#Acq. time (s)=	2
#Accumulations=	3
#Range (nm)=	520...900
#Windows=	24
#Auto scanning=	On
#Autofocus=	Off
#AutoExposure=	Off
#Spike filter=	Multiple accum.
#Delay time (s)=	0
#Binning=	1
#Readout mode=	Signal
#DeNoise=	Off
#ICS correction=	Off
#Dark correction=	Off
#Inst. Process=	Off
#Detector temperature (°C)=	-59.98
#Instrument=	LabRAM HR Evol
#Detector=	Syncerity OE
#Objective=	x50_VIS
#Grating=	600 (500nm)
#ND Filter=	25%
#Laser=	514nm_Edge
#Hole=	199.981
#Range=	Auto
#StageXY=	Marzhauser
#StageZ=	Marzhauser
#X (µm)=	7717.2
#Y (µm)=	10350.4
#Z (µm)=	12.5
#Full time(mm:ss)=	2:55
#Project=	
#Sample=	
#Site=	
#Title=	Amostra BRI com poli
#Remark=	
#Date=	22.02.2024 11:11
#Acquired=	22.02.2024 11:11:05
520.013	30.2453
520.065	36.3322
520.117	31.7529
520.17	34.1197
520.222	30.0419
520.274	35.6756
520.327	39.9969
520.379	31.1438
520.431	27.174
520.483	31.324
520.536	34.4134
520.588	27.1911
520.64	30.1538
520.693	31.6259
520.745	37.1903
520.797	33.4732
520.85	34.9401
520.902	36.5711
520.954	33.5755
521.007	33.516
521.059	34.5334
521.111	40.7866
521.163	35.3938
521.216	32.1827
521.268	32.8902
521.32	36.9076
521.373	31.3262
521.425	28.056
521.477	36.5742
521.529	32.0133
521.582	33.2384
521.634	32.0437
521.686	31.6672
521.739	36.3617
521.791	30.6307
521.843	34.7934
521.896	34.6667
521.948	36.5083
522	32.943
522.052	29.7747
522.105	33.049
522.157	34.8967
522.209	30.9603
522.262	31.5123
522.314	36.365
522.366	36.9491
522.418	34.2585
522.471	34.6667
522.523	30.8201
522.575	35.8031
522.628	36.8765
522.68	36.7451
522.732	35.5494
522.784	34.3579
522.837	35.716
522.889	34.9228
522.941	34.8608
522.994	33.3886
523.046	36.9905
523.098	34.9597
523.15	36.8393
523.203	37.3374
523.255	32.4451
523.307	34.5934
523.36	36.4737
523.412	37.3239
523.464	33.9316
523.516	36.8193
523.569	34.995
523.621	34.0794
523.673	33.8867
523.726	35.0113
523.778	35.1461
523.83	35.0396
523.882	35.8217
523.935	38.8426
523.987	36.1166
524.039	33.8311
524.091	35.8144
524.144	39.5136
524.196	38.7206
524.248	37.9187
524.301	34.7086
524.353	34.1008
524.405	36.248
524.457	31.7932
524.51	31.4536
524.562	36.3648
524.614	38.4461
524.666	38.5648
524.719	35.274
524.771	36.0746
524.823	37.2144
524.875	33.9845
524.928	31.3064
524.98	37.1966
525.032	37.6468
525.085	36.6657
525.137	38.9918
525.189	38.0016
525.241	37.3333
525.294	35.3571
525.346	32.2075
525.398	34.6857
525.45	36.1976
525.503	36.1601
525.555	30.9409
525.607	34.2389
525.659	40.4306
525.712	32.8201
525.764	36.4627
525.816	39.3963
525.868	35.0983
525.921	36.9821
525.973	40.6148
526.025	38.4206
526.077	39.2499
526.13	32.6419
526.182	38.1841
526.234	32.4577
526.286	37.0552
526.339	35.5897
526.391	35.7818
526.443	35.8151
526.495	39.785
526.548	34.6721
526.6	33.4545
526.652	39.0349
526.704	35.7203
526.757	34.3526
526.809	39.2472
526.861	37.7053
526.913	37.7874
526.966	36.8386
527.018	36.3683
527.07	32.8974
527.122	36.7226
527.175	36.2571
527.227	36.9091
527.279	37.0713
527.331	41.9548
527.384	38.5339
527.436	39.9068
527.488	40.1134
527.54	36.9383
527.593	35.9873
527.645	34.9503
527.697	34.7644
527.749	39.9644
527.802	35.2635
527.854	34
527.906	33.5697
527.958	36.6043
528.011	38.3208
528.063	35.225
528.115	39.4145
528.167	36.0882
528.219	37.4744
528.272	35.8877
528.324	38.3868
528.376	33.7102
528.428	37.1385
528.481	40.5781
528.533	35.615
528.585	36.5315
528.637	32.5996
528.69	34.8904
528.742	38.8765
528.794	38.2585
528.846	35.1999
528.898	39.4699
528.951	39.2943
529.003	38.587
529.055	39.9052
529.107	36.3928
529.16	39.8787
529.212	37.7061
529.264	38.2671
529.316	38.1599
529.369	37.1436
529.421	41.1405
529.473	40.8488
529.525	40.9979
529.577	39.9181
529.63	38.7727
529.682	38.5036
529.734	38.1147
529.786	39.6045
529.839	42.4416
529.891	40.7873
529.943	39.4366
529.995	35.6898
530.047	39.7141
530.1	38.7445
530.152	40.6752
530.204	39.3644
530.256	40.2511
530.308	40.4201
530.361	42.3505
530.413	37.5755
530.465	36.9552
530.517	38.8538
530.57	40.0378
530.622	34.3023
530.674	40.943
530.726	35.7527
530.778	41.0512
530.831	39.5713
530.883	39.8903
530.935	39.0194
530.987	39.3584
531.039	40.5087
531.092	42.1587
531.144	42.3269
531.196	39.0894
531.248	40.1501
531.3	41.3341
531.353	41.349
531.405	43.4332
531.457	36.6347
531.509	38.1764
531.561	39.5482
531.614	41.1328
531.666	38.0785
531.718	41.2795
531.77	42.5437
531.822	41.2714
531.875	39.5328
531.927	42.8794
531.979	39.9247
532.031	39.4919
532.083	44.9616
532.136	38.8797
532.188	40.8845
532.24	40.7801
532.292	39.9177
532.344	43.5664
532.397	43.3894
532.449	38.1889
532.501	41.8829
532.553	41.6391
532.605	38.836
532.658	40.8943
532.71	44.2082
532.762	37.4251
532.814	43.7078
532.866	41.4223
532.919	42.8465
532.971	37.9687
533.023	42.9796
533.075	41.912
533.127	42.4413
533.179	39.3063
533.232	39.1864
533.284	44.2018
533.336	44.8126
533.388	47.2436
533.44	44.2792
533.493	43.153
533.545	42.3118
533.597	44.6057
533.649	40.0129
533.701	40.9179
533.753	46.0316
533.806	42.2872
533.858	44.2626
533.91	44.2031
533.962	42.5016
534.014	45.7757
534.067	45.5293
534.119	45.1218
534.171	42.7588
534.223	40.2355
534.275	40.9051
534.327	47.0309
534.38	44.2416
534.432	43.2404
534.484	48.3454
534.536	42.8175
534.588	50.8955
534.641	45.3826
534.693	42.985
534.745	47.6084
534.797	45.5769
534.849	44.6125
534.901	42.7157
534.953	49.7035
535.006	48.3748
535.058	46.5808
535.11	50.2184
535.162	50.3501
535.214	50.2276
535.267	45.2125
535.319	40.8281
535.371	46.3231
535.423	47.4904
535.475	49.7369
535.527	49.9494
535.58	47.5569
535.632	45.6866
535.684	46.0954
535.736	47.5224
535.788	48.4484
535.84	52.2548
535.892	48.924
535.945	46.6659
535.997	46.6266
536.049	43.4768
536.101	50.7763
536.153	48.63
536.205	51.6481
536.258	48.3096
536.31	45.6727
536.362	48.6568
536.414	48.7595
536.466	48.499
536.518	50.9492
536.57	51.844
536.623	48.586
536.675	47.3773
536.727	49.997
536.779	44.1883
536.831	54.066
536.883	48.1467
536.936	53.9979
536.988	49.4493
537.04	49.8129
537.092	43.5076
537.144	48.7632
537.196	48.0343
537.248	50.7219
537.301	51.2322
537.353	53.4599
537.405	47.1823
537.457	48.8963
537.509	51.9052
537.561	51.2872
537.613	48.3476
537.666	51.6609
537.718	49.9646
537.77	47.1749
537.778	49.1306
537.831	54.9381
537.883	51.8955
537.935	50.7621
537.987	52.5558
538.04	50.9685
538.092	52.6172
538.144	45.5012
538.196	53.8425
538.249	53.0087
538.301	50.1019
538.353	41.4823
538.405	49.5243
538.457	53.8175
538.51	54.0122
538.562	49.2499
538.614	51.4284
538.666	52.9913
538.719	56.3731
538.771	50.1576
538.823	53.7455
538.875	51.701
538.927	53.1903
538.98	52.1485
539.032	55.7203
539.084	54.9674
539.136	49.425
539.189	53.2035
539.241	55.1229
539.293	48.2903
539.345	52.0807
539.397	50.2759
539.45	50.8024
539.502	56.6638
539.554	56.041
539.606	54.6057
539.659	53.7858
539.711	56.7758
539.763	50.6805
539.815	50.2961
539.867	53.8245
539.92	55.593
539.972	49.2456
540.024	51.4795
540.076	54.5881
540.128	54.9057
540.181	51.5921
540.233	53.0496
540.285	55.2088
540.337	51.0097
540.39	53.0581
540.442	50.3036
540.494	60.1048
540.546	57.7739
540.598	52.4148
540.651	60.956
540.703	57.2365
540.755	63.0823
540.807	54.7546
540.859	51.816
540.912	59.5672
540.964	55.092
541.016	56.4021
541.068	56.6393
541.12	60.3266
541.173	63.4917
541.225	55.808
541.277	56.4446
541.329	58.8645
541.381	57.7972
541.434	61.7591
541.486	60.8743
541.538	55.4044
541.59	61.0961
541.642	59.0651
541.695	52.385
541.747	56.0842
541.799	67.2549
541.851	60.3509
541.903	57.7126
541.956	56.5662
542.008	61.9866
542.06	57.5083
542.112	57.6738
542.164	57.784
542.217	58.9502
542.269	61.0951
542.321	56.2358
542.373	59.2044
542.425	61.7451
542.478	56.8872
542.53	60.6397
542.582	58.9925
542.634	58.7478
542.686	57.1493
542.738	61.3831
542.791	57.7681
542.843	62.7884
542.895	53.9918
542.947	61.9624
542.999	62.089
543.052	56.7173
543.104	55.0308
543.156	64.2391
543.208	57.4073
543.26	57.6089
543.313	56.0053
543.365	62.9124
543.417	68.0975
543.469	56.0002
543.521	65.3023
543.573	64.3919
543.626	63.4411
543.678	69.9074
543.73	58.4541
543.782	61.2326
543.834	68.1678
543.886	53.9346
543.939	58.1987
543.991	63.658
544.043	62.9703
544.095	59.2637
544.147	58.7873
544.2	64.8741
544.252	71.0386
544.304	58.5095
544.356	61.943
544.408	61.7466
544.46	60.6552
544.513	63.2205
544.565	55.0013
544.617	63.0678
544.669	64.274
544.721	59.6788
544.773	56.7477
544.826	68.8848
544.878	56.9966
544.93	65.3726
544.982	65.78
545.034	62.3492
545.086	69.3555
545.139	59.1758
545.191	69.2894
545.243	65.3474
545.295	69.3542
545.347	65.0981
545.399	70.652
545.452	68.6392
545.504	66.8971
545.556	58.9481
545.608	63.8972
545.66	65.3174
545.712	67.6087
545.765	68.6365
545.817	71.4392
545.869	70.7187
545.921	67.7953
545.973	67.9287
546.025	68.8368
546.077	67.4408
546.13	65.5894
546.182	67.3961
546.234	75.1518
546.286	71.1377
546.338	68.934
546.39	64.5526
546.443	60.7473
546.495	71.0821
546.547	73.0561
546.599	69.6055
546.651	73.9493
546.703	68.9129
546.755	73.9896
546.808	65.6471
546.86	70.5955
546.912	69.6564
546.964	67.4627
547.016	60.6583
547.068	75.759
547.12	74.7184
547.173	70.1167
547.225	65.3702
547.277	69.7867
547.329	70.9247
547.381	72.8828
547.433	69.1568
547.485	76.4466
547.538	70.2887
547.59	69.8381
547.642	65.1379
547.694	73.8922
547.746	77.3319
547.798	71.2311
547.85	71.6788
547.903	74.8258
547.955	74.766
548.007	72.2873
548.059	71.8434
548.111	73.2791
548.163	73.0154
548.215	69.4088
548.268	75.6532
548.32	71.9706
548.372	70.6445
548.424	74.156
548.476	69.0719
548.528	74.6403
548.58	82.2092
548.633	71.6123
548.685	72.1997
548.737	85.8026
548.789	78.3323
548.841	74.4917
548.893	76.201
548.945	75.8344
548.997	83.7885
549.049	79.8752
549.102	77.8171
549.154	82.9212
549.206	77.9012
549.258	77.5424
549.31	77.6195
549.362	78.5428
549.414	87.1227
549.467	77.6336
549.519	77.5752
549.571	80.7202
549.623	82.2346
549.675	78.6782
549.727	82.5471
549.779	77.7061
549.831	78.8402
549.883	77.1748
549.936	77.8643
549.988	81.0386
550.04	88.5148
550.092	84.223
550.144	87.6853
550.196	89.0149
550.248	86.5906
550.3	83.8915
550.353	82.0627
550.405	87.4856
550.457	89.3662
550.509	86.5414
550.561	88.7204
550.613	98.0031
550.665	90.7835
550.717	86.4093
550.769	94.6424
550.822	94.1146
550.874	96.6564
550.926	94.3659
550.978	98.6391
551.03	93.0828
551.082	94.8136
551.134	102.066
551.186	104.248
551.238	104.748
551.291	111.324
551.343	108.389
551.395	111.474
551.447	112.822
551.499	115.157
551.551	120.58
551.603	129.367
551.655	134.19
551.707	143.311
551.759	146.62
551.812	159.721
551.864	159.279
551.916	174.597
551.968	186.428
552.02	203.467
552.072	226.351
552.124	258.735
552.176	288.377
552.228	330.459
552.28	410.722
552.332	532.478
552.385	779.234
552.437	1499.29
552.489	3180.94
552.541	6190.99
552.593	11595.8
552.645	21343.7
552.697	28680.9
552.749	21740.3
552.801	11078.9
552.853	4456.39
552.905	1761.42
552.958	885.351
553.01	569.96
553.062	430.61
553.114	341.394
553.166	281.906
553.218	247.948
553.27	218.965
553.322	196.973
553.374	175.349
553.426	157.426
553.478	149.182
553.531	146.566
553.583	135.552
553.635	137.479
553.687	124.333
553.739	116.347
553.791	110.842
553.843	114.166
553.895	113.925
553.947	111.745
553.999	108.654
554.051	109.576
554.103	99.2779
554.155	101.419
554.208	101.989
554.26	98.1652
554.312	98.7097
554.364	100.86
554.416	101.39
554.468	97.3914
554.52	96.1702
554.572	92.5425
554.624	89.593
554.676	93.5303
554.728	93.9883
554.78	91.8937
554.832	86.1294
554.884	87.9829
554.937	89.8332
554.989	89.0511
555.041	95.1108
555.093	94.0876
555.145	84.8077
555.197	85.859
555.249	84.6806
555.301	85.6728
555.353	89.8578
555.405	88.5953
555.457	89.9924
555.509	87.2491
555.529	84.1506
555.582	91.852
555.634	86.1193
555.686	81.1066
555.738	86.8898
555.79	85.9109
555.842	80.1503
555.895	89.7296
555.947	88.0088
555.999	85.2388
556.051	92.135
556.103	81.5408
556.155	86.8373
556.207	80.1788
556.26	88.6092
556.312	86.8119
556.364	89.535
556.416	92.5763
556.468	87.7309
556.52	87.1297
556.573	90.5127
556.625	84.6757
556.677	80.8973
556.729	89.6112
556.781	84.8156
556.833	87.9038
556.885	85.528
556.938	86.3662
556.99	94.8595
557.042	89.0347
557.094	81.8979
557.146	91.1727
557.198	85.4906
557.25	87.9209
557.302	85.5965
557.355	88.4536
557.407	83.3729
557.459	90.5407
557.511	82.6471
557.563	93.1557
557.615	87.3636
557.667	85.2542
557.72	87.9478
557.772	83.518
557.824	81.1163
557.876	86.3356
557.928	85.0278
557.98	93.6049
558.032	86.563
558.085	92.9405
558.137	82.3109
558.189	83.9985
558.241	84.8441
558.293	91.771
558.345	86.3829
558.397	79.6332
558.449	90.7919
558.502	80.4966
558.554	80.8835
558.606	85.5538
558.658	89.3861
558.71	86.6383
558.762	84.8986
558.814	86.6079
558.866	84.6868
558.919	83.8807
558.971	82.8737
559.023	85.45
559.075	84.4292
559.127	86.6142
559.179	84.894
559.231	90.3139
559.283	85.2335
559.336	85.6614
559.388	84.585
559.44	90.7937
559.492	81.8279
559.544	91.1575
559.596	83.0732
559.648	78.051
559.7	79.1409
559.753	76.3717
559.805	87.6148
559.857	87.9075
559.909	80.9533
559.961	85.0385
560.013	89.1003
560.065	86.2263
560.117	82.978
560.169	86.4994
560.222	80.3336
560.274	85.7244
560.326	84.1224
560.378	81.3835
560.43	82.3217
560.482	88.1272
560.534	82.2234
560.586	77.6315
560.638	85.5677
560.69	83.1496
560.743	89.0374
560.795	88.0334
560.847	82.6834
560.899	77.6438
560.951	84.4715
561.003	83.227
561.055	86.5823
561.107	81.8718
561.159	88.2458
561.212	82.1482
561.264	91.1402
561.316	88.7351
561.368	90.6763
561.42	83.841
561.472	88.7918
561.524	86.578
561.576	87.4946
561.628	85.4548
561.68	85.488
561.733	87.8868
561.785	89.8654
561.837	86.9891
561.889	94.7933
561.941	87.1286
561.993	88.4646
562.045	83.5717
562.097	88.1338
562.149	92.0844
562.201	91.0534
562.253	79.757
562.306	86.8118
562.358	88.2892
562.41	84.1461
562.462	85.3275
562.514	84.8945
562.566	85.4865
562.618	87.5681
562.67	86.1802
562.722	80.0231
562.774	89.6361
562.826	85.098
562.879	89.0555
562.931	80.849
562.983	84.2123
563.035	87.024
563.087	87.3094
563.139	88.5728
563.191	82.6856
563.243	85.1366
563.295	87.7123
563.347	78.7953
563.399	79.9894
563.451	81.9021
563.504	84.6674
563.556	90.6393
563.608	84.7118
563.66	83.5116
563.712	85.7435
563.764	88.1058
563.816	87.2069
563.868	85.3231
563.92	91.4742
563.972	92.239
564.024	85.3707
564.076	81.0238
564.128	85.021
564.181	77.1283
564.233	82.9424
564.285	83.9619
564.337	81.6463
564.389	78.9799
564.441	86.421
564.493	87.252
564.545	88.7805
564.597	86.9083
564.649	82.5059
564.701	82.5806
564.753	82.407
564.805	85.3301
564.857	83.0667
564.909	86.7177
564.962	91.3106
565.014	87.0708
565.066	82.7558
565.118	80.6675
565.17	82.8608
565.222	83.8576
565.274	87.6877
565.326	84.2795
565.378	89.1109
565.43	86.6771
565.482	85.8194
565.534	89.138
565.586	88.2051
565.638	86.3856
565.69	86.2878
565.742	91.9944
565.795	94.2837
565.847	83.6275
565.899	83.2625
565.951	87.8085
566.003	89.8234
566.055	85.61
566.107	85.5127
566.159	86.3975
566.211	87.4078
566.263	83.4744
566.315	87.1494
566.367	92.8105
566.419	89.5232
566.471	85.9483
566.523	88.6043
566.575	86.7817
566.627	87.4303
566.679	82.7942
566.732	84.4902
566.784	88.1738
566.836	87.1922
566.888	83.4334
566.94	91.7202
566.992	88.5008
567.044	89.9675
567.096	89.782
567.148	83.8699
567.2	88.036
567.252	88.9255
567.304	86.9828
567.356	84.9435
567.408	88.1414
567.46	85.8244
567.512	83.1835
567.564	82.4897
567.616	85.469
567.668	89.3762
567.72	87.8007
567.772	90.5377
567.824	88.04
567.876	86.5224
567.928	92.7415
567.98	89.0517
568.033	93.4532
568.085	84.5715
568.137	84.8132
568.189	90.3799
568.241	91.5103
568.293	88.0309
568.345	83.4058
568.397	85.4963
568.449	91.4974
568.501	91.9157
568.553	87.7428
568.605	88.2252
568.657	88.8063
568.709	88.0061
568.761	90.485
568.813	90.5248
568.865	88.7139
568.917	87.2862
568.969	85.9263
569.021	90.5295
569.073	90.4158
569.125	86.8762
569.177	84.9497
569.229	84.7322
569.281	86.6315
569.333	88.0126
569.385	85.3036
569.437	87.4837
569.489	86.8015
569.541	87.3892
569.593	85.1344
569.645	83.2909
569.697	84.4217
569.749	88.1441
569.801	89.6137
569.853	88.8691
569.905	88.8719
569.957	87.7025
570.009	89.7745
570.061	89.5527
570.113	87.9449
570.165	86.8395
570.217	84.2572
570.269	84.5444
570.321	84.9651
570.374	83.1509
570.426	83.7287
570.478	85.079
570.53	86.1652
570.582	83.6133
570.634	81.6186
570.686	85.2479
570.738	87.2753
570.79	83.8785
570.842	86.4055
570.894	85.6075
570.946	88.6265
570.998	88.8519
571.05	85.8249
571.102	84.1469
571.154	84.6454
571.206	83.0673
571.258	87.5184
571.31	91.4158
571.362	87.0345
571.414	88.2864
571.466	89.1434
571.518	85.9898
571.57	84.8926
571.622	86.1782
571.674	87.1874
571.726	90.0343
571.778	84.6691
571.83	87.9432
571.882	88.9748
571.934	87.2818
571.986	84.8425
572.038	84.8316
572.09	85.1148
572.142	86.8676
572.194	87.4432
572.246	91.3073
572.298	86.1771
572.349	92.3508
572.401	88.0739
572.453	85.3571
572.505	84.8444
572.557	81.71
572.609	85.5123
572.661	85.0806
572.713	85.0145
572.765	83.3616
572.817	87.4008
572.869	87.0058
572.921	88.3233
572.973	87.037
573.025	88.0822
573.077	92.7638
573.129	89.6971
573.181	89.9302
573.212	93.4831
573.264	87.3161
573.316	92.6411
573.368	88.6105
573.421	92.0872
573.473	91.6468
573.525	90.1967
573.577	84.2371
573.629	89.3727
573.681	93.1286
573.733	92.1425
573.785	95.1687
573.837	90.2441
573.889	85.7799
573.941	87.7977
573.993	86.3038
574.045	90.5806
574.097	89.1609
574.15	91.5038
574.202	90.2419
574.254	92.0866
574.306	88.6625
574.358	91.0491
574.41	91.3068
574.462	87.07
574.514	94.7919
574.566	96.9224
574.618	95.4063
574.67	96.8391
574.722	91.7086
574.774	94.1049
574.826	98.1513
574.878	94.5002
574.931	87.226
574.983	95.5466
575.035	96.3862
575.087	93.7107
575.139	97.1041
575.191	94.5944
575.243	87.463
575.295	89.5251
575.347	100.149
575.399	98.1578
575.451	104.549
575.503	87.8497
575.555	96.7464
575.607	94.6511
575.659	99.5606
575.711	97.9783
575.763	98.9149
575.815	93.3078
575.868	91.1162
575.92	90.064
575.972	95.0461
576.024	97.259
576.076	95.2036
576.128	100.782
576.18	96.899
576.232	97.3262
576.284	96.2063
576.336	98.07
576.388	94.6749
576.44	90.2195
576.492	98.7261
576.544	86.629
576.596	92.4344
576.648	97.6845
576.7	96.8417
576.752	94.1866
576.804	92.9217
576.856	95.276
576.909	93.2596
576.961	92.9589
577.013	94.2825
577.065	95.1873
577.117	95.5919
577.169	94.3145
577.221	91.9346
577.273	101.015
577.325	91.3027
577.377	92.7145
577.429	91.6612
577.481	91.7184
577.533	92.9275
577.585	93.2213
577.637	92.0312
577.689	91.8423
577.741	91.0164
577.793	88.6056
577.845	91.0544
577.897	86.9351
577.949	86.3492
578.001	90.4047
578.053	87.5834
578.105	91.9777
578.157	89.0487
578.209	84.1187
578.261	93.592
578.313	93.8356
578.365	92.0392
578.417	85.5049
578.469	87.4163
578.522	91.7222
578.574	90.3756
578.626	86.4816
578.678	86.5625
578.73	94.1172
578.782	91.2212
578.834	89.1212
578.886	89.8066
578.938	95.1969
578.99	93.0305
579.042	93.645
579.094	97.4147
579.146	96.0573
579.198	99.1517
579.25	96.0247
579.302	91.0968
579.354	88.7192
579.406	94.5851
579.458	97.8872
579.51	104.006
579.562	99.9151
579.614	96.2962
579.666	98.0354
579.718	101.689
579.77	99.1752
579.822	97.9915
579.874	102.053
579.926	102.245
579.978	101.033
580.03	100.175
580.082	95.8323
580.134	98.2504
580.186	107.825
580.238	100.723
580.29	98.6087
580.342	103.33
580.394	100.413
580.446	99.4107
580.498	102.312
580.55	99.415
580.602	99.3277
580.654	99.8156
580.706	97.1266
580.758	100.987
580.81	103.551
580.862	104.752
580.914	109.266
580.966	106.955
581.018	104.967
581.07	99.6924
581.122	99.3964
581.174	102.107
581.226	105.544
581.278	105.353
581.33	99.9615
581.382	101.798
581.434	104.771
581.486	105.557
581.538	107.592
581.59	110.076
581.642	109.39
581.694	108.661
581.746	109.1
581.798	109.834
581.85	110.144
581.902	110.765
581.954	105.617
582.006	108.493
582.058	110.838
582.11	109.541
582.162	108.825
582.214	112.235
582.266	113.762
582.318	113.705
582.37	114.274
582.422	114.498
582.474	115.503
582.526	115.446
582.578	107.865
582.63	116.402
582.682	119.825
582.734	117.187
582.786	118.865
582.838	120.397
582.89	119.714
582.942	119.609
582.994	120.52
583.046	125.066
583.098	121.677
583.15	122.526
583.202	119.735
583.254	124.73
583.306	122.649
583.358	122.006
583.41	124.879
583.462	128.284
583.514	131.21
583.566	125.047
583.618	122.001
583.67	126.596
583.721	133.71
583.773	130.799
583.825	129.452
583.877	129.267
583.929	136.48
583.981	130.903
584.033	129.449
584.085	133.566
584.137	135.337
584.189	125.178
584.241	128.621
584.293	132.9
584.345	138.604
584.397	134.985
584.449	135.07
584.501	137.366
584.553	142.335
584.605	138.015
584.657	136.838
584.709	138.753
584.761	144.654
584.813	147.944
584.865	148.571
584.917	149.103
584.969	148.556
585.021	146.933
585.073	144.854
585.125	147.567
585.177	146.053
585.229	148.514
585.281	148.778
585.332	143.206
585.384	145.844
585.436	149.435
585.488	153.558
585.54	152.106
585.592	149.035
585.644	152.222
585.696	150.472
585.748	145.636
585.8	147.853
585.852	152.969
585.904	152.776
585.956	153.232
586.008	152.385
586.06	156.706
586.112	156.53
586.164	156.192
586.216	152.238
586.268	148.991
586.32	155.704
586.371	158.528
586.423	157.341
586.475	160.653
586.527	158.934
586.579	170.218
586.631	171.199
586.683	164.55
586.735	163.169
586.787	160.851
586.839	170.948
586.891	174.199
586.943	176.566
586.995	181.968
587.047	181.18
587.099	181.485
587.151	186.29
587.203	192.718
587.255	196.285
587.306	205.517
587.358	197.986
587.41	198.224
587.462	203.844
587.514	203.388
587.566	204.492
587.618	205.93
587.67	199.482
587.722	209.87
587.774	210.114
587.826	205.036
587.878	205.058
587.93	203.186
587.982	206.153
588.034	206.053
588.085	196.142
588.137	191.799
588.189	201.207
588.241	202.233
588.293	196.734
588.345	197.597
588.397	200.495
588.449	204.595
588.501	197.259
588.553	200.304
588.605	196.265
588.657	196.042
588.709	194.646
588.76	186.458
588.812	193.264
588.864	194.581
588.916	195.584
588.968	197.243
589.02	201.066
589.072	207.351
589.124	206.832
589.176	209.784
589.228	209.424
589.28	230.08
589.332	229.419
589.383	230.844
589.435	222.505
589.487	223.551
589.539	217.188
589.591	221.649
589.643	210.839
589.695	220.645
589.747	218.335
589.799	215.104
589.851	216.017
589.903	204.48
589.955	192.635
590.006	202.071
590.058	201.848
590.11	202.713
590.162	193.909
590.214	204.727
590.266	201.729
590.318	198.155
590.37	188.284
590.422	199.814
590.474	205.207
590.525	193.945
590.577	197.65
590.629	193.253
590.681	197.453
590.733	184.827
590.785	184.998
590.837	188.541
590.889	182.801
590.932	191.973
590.984	178.093
591.036	177.04
591.088	178.906
591.14	175.11
591.192	180.847
591.244	177.057
591.296	165.16
591.348	169.009
591.4	172.01
591.452	161.061
591.504	160.079
591.556	159.222
591.608	154.341
591.66	158.693
591.712	151.987
591.764	145.234
591.816	144.253
591.868	137.909
591.92	145.813
591.972	140.981
592.024	144.42
592.076	136.59
592.128	141.424
592.18	141.172
592.232	145.839
592.284	133.272
592.336	140.936
592.388	144.671
592.44	135.105
592.492	135.189
592.544	140.642
592.596	136.215
592.648	135.25
592.7	141.077
592.752	139.583
592.804	141.113
592.856	133.47
592.908	138.667
592.96	136.018
593.012	132.697
593.064	132.919
593.116	131.513
593.168	134.101
593.22	135.74
593.272	126.728
593.324	135.763
593.376	134.664
593.428	134.197
593.479	133.967
593.531	132.355
593.583	127.999
593.635	118.547
593.687	131.299
593.739	133.268
593.791	132.717
593.843	128.218
593.895	131.799
593.947	125.195
593.999	131.588
594.051	132.13
594.103	128.388
594.155	122.344
594.207	128.52
594.259	121.976
594.311	134.876
594.363	127.779
594.415	127.932
594.467	129.831
594.519	123.651
594.571	124.422
594.623	122.34
594.675	124.924
594.727	129.773
594.779	131.218
594.831	123.519
594.883	123.396
594.935	120.877
594.986	126.245
595.038	132.171
595.09	125.512
595.142	130.604
595.194	122.503
595.246	126.106
595.298	128.197
595.35	120.393
595.402	134.224
595.454	128.976
595.506	130.357
595.558	129.886
595.61	126.306
595.662	119.613
595.714	131.604
595.766	124.216
595.818	129.314
595.87	127.4
595.922	127.796
595.974	132.087
596.026	130.962
596.077	131.214
596.129	130.516
596.181	128.369
596.233	127.317
596.285	130.35
596.337	133.306
596.389	131.476
596.441	134.181
596.493	137.592
596.545	144.049
596.597	142.222
596.649	158.124
596.701	154.796
596.753	144.109
596.805	137.926
596.857	132.618
596.909	125.158
596.96	114.073
597.012	116.112
597.064	114.421
597.116	109.087
597.168	104.793
597.22	107.448
597.272	105.898
597.324	102.906
597.376	99.9087
597.428	101.515
597.48	99.0406
597.532	98.5705
597.584	100.663
597.636	102.786
597.688	102.34
597.739	100.925
597.791	102.175
597.843	95.9393
597.895	101.375
597.947	93.3753
597.999	89.2658
598.051	95.4337
598.103	94.5164
598.155	99.4656
598.207	92.7134
598.259	96.2717
598.311	96.085
598.363	95.1963
598.414	96.3152
598.466	95.1719
598.518	95.7965
598.57	96.9269
598.622	98.2615
598.674	100.064
598.726	97.441
598.778	92.7563
598.83	87.9874
598.882	89.0402
598.934	94.9896
598.986	96.693
599.037	93.2239
599.089	93.783
599.141	89.8825
599.193	91.9659
599.245	94.6273
599.297	90.8
599.349	92.6236
599.401	91.8272
599.453	91.1687
599.505	89.2081
599.557	89.9055
599.609	88.1431
599.66	85.7156
599.712	95.0632
599.764	94.8109
599.816	94.5783
599.868	93.0175
599.92	89.3316
599.972	92.4873
600.024	93.2567
600.076	88.193
600.128	94.2733
600.18	95.4684
600.231	89.8855
600.283	81.0584
600.335	89.8448
600.387	89.9251
600.439	86.7889
600.491	88.4128
600.543	93.1875
600.595	88.25
600.647	91.0935
600.699	92.1412
600.75	89.1347
600.802	88.7936
600.854	85.4705
600.906	86.4351
600.958	89.647
601.01	83.2395
601.062	86.8182
601.114	92.3943
601.166	85.6074
601.217	85.8863
601.269	87.2211
601.321	85.2104
601.373	87.9951
601.425	89.5241
601.477	91.1484
601.529	90.4282
601.581	91.6733
601.633	88.4827
601.685	89.1832
601.736	92.3618
601.788	97.3556
601.84	91.5463
601.892	91.3878
601.944	86.7737
601.996	88.9564
602.048	91.8216
602.1	93.3977
602.151	89.0598
602.203	90.8372
602.255	88.7743
602.307	86.3142
602.359	84.6165
602.411	86.2627
602.463	84.6371
602.515	93.3103
602.567	90.6587
602.618	87.7249
602.67	91.163
602.722	87.1758
602.774	93.6884
602.826	87.991
602.878	91.9339
602.93	89.9597
602.982	87.171
603.033	96.7553
603.085	89.6681
603.137	88.4955
603.189	88.1209
603.241	89.53
603.293	86.8764
603.345	79.6209
603.396	86.7369
603.448	87.6067
603.5	85.0097
603.552	89.8784
603.604	90.8904
603.656	89.2824
603.708	84.9437
603.76	86.1178
603.811	90.2531
603.863	95.7144
603.915	91.8573
603.967	88.5943
604.019	95.0995
604.071	96.6829
604.123	85.8474
604.174	90.9272
604.226	93.2172
604.278	90.139
604.33	88.1396
604.382	89.2148
604.434	96.6516
604.486	94.1971
604.538	88.9481
604.589	91.2588
604.641	93.1922
604.693	87.9498
604.745	93.3197
604.797	97.4405
604.849	102.615
604.901	96.9156
604.952	92.8604
605.004	90.8187
605.056	94.3195
605.108	90.632
605.16	89.8761
605.212	92.0384
605.263	93.7271
605.315	89.9439
605.367	87.5619
605.419	88.8589
605.471	91.9474
605.523	94.3055
605.575	90.1782
605.626	92.4068
605.678	92.5822
605.73	89.4262
605.782	90.6405
605.834	93.5349
605.886	90.8815
605.938	97.5841
605.989	95.1221
606.041	94.0204
606.093	95.115
606.145	91.7363
606.197	87.9761
606.249	87.6876
606.3	95.2649
606.352	94.5183
606.404	86.3919
606.456	91.2761
606.508	90.8182
606.56	87.4179
606.611	92.2215
606.663	92.8838
606.715	88.6431
606.767	86.855
606.819	87.9246
606.871	91.805
606.922	92.3132
606.974	90.9572
607.026	89.2614
607.078	94.1331
607.13	96.6059
607.182	90.8614
607.233	91.5764
607.285	94.2113
607.337	92.4282
607.389	92.8442
607.441	91.6085
607.493	92.5245
607.544	90.4697
607.596	94.3204
607.648	91.0639
607.7	91.613
607.752	92.5586
607.803	88.9548
607.855	90.6584
607.907	94.8897
607.959	95.404
608.011	89.6593
608.063	88.4764
608.114	93.5299
608.166	95.563
608.218	90.2681
608.27	93.2962
608.322	95.2453
608.374	98.7858
608.425	89.5239
608.477	87.72
608.529	91.9923
608.56	95.3045
608.612	92.6235
608.664	88.4948
608.716	90.3441
608.768	95.6647
608.82	91.7501
608.872	96.8009
608.924	95.7474
608.976	97.9536
609.027	90.8759
609.079	95.945
609.131	94.9526
609.183	95.7606
609.235	88.1698
609.287	90.8315
609.339	90.2112
609.391	85.2796
609.443	86.9635
609.495	92.8785
609.547	96.3991
609.598	98.7633
609.65	89.9613
609.702	91.4084
609.754	100.448
609.806	101.321
609.858	97.5953
609.91	93.4733
609.962	106.063
610.014	95.7972
610.065	86.1478
610.117	91.3288
610.169	89.2245
610.221	89.8831
610.273	97.6887
610.325	93.8877
610.377	99.4498
610.429	95.6662
610.481	85.9934
610.533	90.2501
610.584	95.9388
610.636	96.1229
610.688	97.4083
610.74	98.5897
610.792	96.5541
610.844	89.732
610.896	96.4149
610.948	92.177
611	98.6756
611.052	95.9256
611.103	93.4194
611.155	99.143
611.207	95.4976
611.259	97.8431
611.311	87.068
611.363	95.0364
611.415	97.852
611.467	90.995
611.518	91.1915
611.57	93.6163
611.622	97.3095
611.674	101.423
611.726	84.9206
611.778	94.4932
611.83	102.267
611.882	96.6576
611.934	90.3814
611.985	94.2033
612.037	97.39
612.089	96.4602
612.141	89.7834
612.193	95.2377
612.245	104.487
612.297	95.5554
612.349	90.9643
612.4	91.6469
612.452	93.5751
612.504	94.752
612.556	98.0671
612.608	94.7145
612.66	94.3828
612.712	98.7119
612.764	95.207
612.815	86.6627
612.867	99.0473
612.919	92.9208
612.971	92.9671
613.023	96.5428
613.075	92.6595
613.127	87.5652
613.179	94.6743
613.23	98.1797
613.282	98.8691
613.334	92.5368
613.386	88.5228
613.438	95.8601
613.49	91.3959
613.542	96.149
613.594	94.944
613.645	101.565
613.697	93.7099
613.749	96.5755
613.801	99.1617
613.853	97.8835
613.905	96.7436
613.957	92.0836
614.008	94.0061
614.06	96.6654
614.112	99.5638
614.164	92.8809
614.216	89.3395
614.268	100.281
614.32	100.94
614.371	100.169
614.423	92.7129
614.475	102.314
614.527	91.6652
614.579	98.7344
614.631	91.3587
614.683	93.2051
614.734	98.4021
614.786	94.3557
614.838	97.1426
614.89	103.079
614.942	103.117
614.994	95.4572
615.045	97.5635
615.097	98.2483
615.149	101.155
615.201	90.9221
615.253	95.8964
615.305	101.812
615.357	101.014
615.408	90.9821
615.46	96.3978
615.512	98.7089
615.564	99.1659
615.616	89.3757
615.668	100.778
615.719	97.8708
615.771	98.7338
615.823	93.4155
615.875	96.6536
615.927	101.024
615.979	101.559
616.031	85.4206
616.082	92.2752
616.134	100.67
616.186	97.0039
616.238	99.9024
616.29	102.767
616.342	100.773
616.393	86.485
616.445	92.9199
616.497	96.7358
616.549	97.7581
616.601	98.8444
616.653	100.567
616.704	102.995
616.756	104.74
616.808	92.576
616.86	102.961
616.912	94.7431
616.964	103.081
617.015	95.9639
617.067	86.3852
617.119	96.6136
617.171	97.8181
617.223	98.7349
617.274	96.6538
617.326	91.1779
617.378	98.493
617.43	100.352
617.482	96.9333
617.534	100.112
617.585	101.838
617.637	89.2339
617.689	91.9246
617.741	96.9531
617.793	100.425
617.845	88.684
617.896	99.593
617.948	100.88
618	93.5823
618.052	94.0431
618.104	93.2497
618.155	95.8431
618.207	97.6155
618.259	87.1653
618.311	100.386
618.363	97.3021
618.415	96.0021
618.466	94.3658
618.518	94.9065
618.57	94.3596
618.622	101.619
618.674	93.9553
618.725	100.665
618.777	101.488
618.829	96.3605
618.881	92.6493
618.933	94.8196
618.984	98.137
619.036	90.0475
619.088	96.0184
619.14	96.1571
619.192	103.939
619.244	95.9627
619.295	93.3594
619.347	98.059
619.399	102.938
619.451	99.6028
619.503	86.9666
619.554	98.8567
619.606	102.569
619.658	96.9096
619.71	89.4192
619.762	99.596
619.813	93.4205
619.865	93.4527
619.917	93.3996
619.969	99.8941
620.021	105.193
620.072	89.7033
620.124	97.4537
620.176	98.439
620.228	95.1874
620.279	99.5959
620.331	94.3182
620.383	100.976
620.435	103.257
620.487	97.9554
620.538	102.278
620.59	99.5332
620.642	96.3071
620.694	93.8809
620.746	94.6291
620.797	102.161
620.849	100.929
620.901	96.5431
620.953	97.4093
621.005	94.9556
621.056	99.203
621.108	100.044
621.16	100.893
621.212	95.0717
621.263	96.4164
621.315	91.6898
621.367	95.9784
621.419	99.6089
621.471	100.906
621.522	95.1055
621.574	95.4965
621.626	96.2996
621.678	96.261
621.729	96.2744
621.781	94.8395
621.833	97.2369
621.885	97.0893
621.937	97.2766
621.988	103.894
622.04	98.687
622.092	101.009
622.144	90.3751
622.195	95.778
622.247	94.9925
622.299	97.5228
622.351	96.4853
622.403	97.9471
622.454	102.393
622.506	102.524
622.558	93.5264
622.61	95.2832
622.661	96.7463
622.713	97.4598
622.765	93.0326
622.817	97.8238
622.869	97.0442
622.92	92.5735
622.972	91.0513
623.024	93.1427
623.076	97.9615
623.127	100.472
623.179	98.2878
623.231	99.3083
623.283	100.969
623.334	97.5343
623.386	98.9832
623.438	100.192
623.49	104.608
623.541	100.418
623.593	91.707
623.645	99.8072
623.697	96.3008
623.748	95.1297
623.8	91.8437
623.852	88.9206
623.904	95.6615
623.956	95.8353
624.007	92.8138
624.059	96.6449
624.111	94.9774
624.162	89.7889
624.214	93.7261
624.266	98.6484
624.318	94.927
624.37	93.1693
624.421	101.446
624.473	99.2304
624.525	94.4882
624.576	87.9979
624.628	98.1974
624.68	104.517
624.732	103.087
624.784	94.4306
624.835	99.8231
624.887	103.704
624.939	105.064
624.99	104.562
625.042	101.523
625.094	96.7231
625.146	95.3629
625.197	94.1603
625.249	99.3073
625.301	96.9803
625.353	93.2718
625.404	91.0271
625.456	97.7406
625.508	99.2331
625.56	92.0638
625.611	90.3499
625.663	92.1581
625.715	101.886
625.767	100.729
625.818	94.7645
625.87	97.3532
625.922	104.114
625.974	102.498
626.025	98.7328
626.077	100.809
626.129	103.932
626.18	100.713
626.197	96.9548
626.249	97.5305
626.3	102.986
626.352	101.467
626.404	96.4819
626.456	96.0206
626.508	99.8809
626.56	105.726
626.611	94.3896
626.663	87.3911
626.715	101.251
626.767	103.503
626.819	94.0293
626.87	98.3777
626.922	98.9493
626.974	99.9168
627.026	97.9952
627.078	97.5061
627.13	99.6072
627.181	101.099
627.233	96.5153
627.285	99.0301
627.337	93.2498
627.389	98.424
627.44	98.1347
627.492	98.5133
627.544	94.4854
627.596	100.177
627.648	99.68
627.7	98.7863
627.751	97.8028
627.803	91.5954
627.855	98.5668
627.907	97.9584
627.959	100.828
628.01	106.708
628.062	104.021
628.114	103.617
628.166	98.1848
628.218	102.24
628.27	105.758
628.321	106.055
628.373	102.255
628.425	101.472
628.477	99.7588
628.529	98.2885
628.58	101.693
628.632	98.3678
628.684	99.8626
628.736	105.443
628.788	98.8118
628.839	99.7155
628.891	96.0239
628.943	102.915
628.995	101.083
629.047	98.9888
629.098	99.3035
629.15	105.11
629.202	103.698
629.254	99.2749
629.306	96.899
629.357	102.079
629.409	100.642
629.461	94.753
629.513	100.891
629.565	110.131
629.616	99.3097
629.668	98.4228
629.72	98.1673
629.772	97.4859
629.824	93.6999
629.875	92.5268
629.927	101.665
629.979	102.556
630.031	102.626
630.083	101.958
630.134	104.952
630.186	100.695
630.238	98.9233
630.29	96.631
630.342	94.9719
630.393	100.241
630.445	102.422
630.497	93.6823
630.549	97.7386
630.6	101.024
630.652	96.9788
630.704	101.908
630.756	101.546
630.808	98.9011
630.859	102.612
630.911	92.6494
630.963	97.2482
631.015	90.8496
631.067	98.4239
631.118	95.1859
631.17	95.9031
631.222	98.419
631.274	98.1905
631.325	98.424
631.377	103.609
631.429	94.3816
631.481	101.265
631.533	95.7305
631.584	108.607
631.636	99.6502
631.688	96.1571
631.74	97.8055
631.791	103.205
631.843	97.2271
631.895	100.484
631.947	107.227
631.999	105.227
632.05	96.9511
632.102	101.733
632.154	100.307
632.206	93.4649
632.257	97.8836
632.309	102.823
632.361	97.6377
632.413	103.433
632.464	99.8395
632.516	103.411
632.568	101.151
632.62	101.363
632.672	100.314
632.723	104.907
632.775	99.2365
632.827	103.026
632.879	105.133
632.93	107.187
632.982	101.766
633.034	104.691
633.086	101.85
633.137	103.156
633.189	95.5184
633.241	102.317
633.293	101.364
633.344	101.491
633.396	97.241
633.448	102.651
633.5	103.527
633.551	108.358
633.603	94.2365
633.655	99.453
633.707	97.8541
633.758	102.52
633.81	103.492
633.862	103.556
633.914	104.406
633.965	100.942
634.017	106.237
634.069	102.446
634.121	95.0749
634.172	97.3185
634.224	106.199
634.276	105.538
634.328	102.697
634.379	105.944
634.431	104.496
634.483	98.7089
634.535	101.319
634.586	102.083
634.638	109.204
634.69	104.578
634.742	105.221
634.793	102.802
634.845	104.079
634.897	102.957
634.949	103.295
635	95.9641
635.052	95.985
635.104	104.168
635.156	105.83
635.207	106.056
635.259	92.2053
635.311	97.3166
635.363	99.7874
635.414	92.1567
635.466	97.6788
635.518	91.3582
635.57	100.144
635.621	102.142
635.673	103.589
635.725	101.559
635.776	97.7279
635.828	101.488
635.88	100.632
635.932	96.7886
635.983	100.346
636.035	104.259
636.087	100.191
636.139	95.3905
636.19	103.91
636.242	97.0493
636.294	101.309
636.345	102.755
636.397	96.4236
636.449	96.9565
636.501	101.037
636.552	98.3631
636.604	97.7519
636.656	99.4577
636.708	102.429
636.759	101.898
636.811	102.829
636.863	100.819
636.914	101.517
636.966	101.888
637.018	103.703
637.07	100.144
637.121	101.376
637.173	98.7686
637.225	100.74
637.276	105.518
637.328	105.443
637.38	102.372
637.432	108.958
637.483	107.042
637.535	96.6256
637.587	100.972
637.638	105.127
637.69	109.508
637.742	102.297
637.794	102.144
637.845	103.991
637.897	102.6
637.949	106.701
638	102.619
638.052	96.557
638.104	100.269
638.156	104.477
638.207	100.66
638.259	105.616
638.311	99.892
638.362	105.125
638.414	98.9846
638.466	109.55
638.517	105.76
638.569	105.707
638.621	105.726
638.673	101.484
638.724	102.314
638.776	103.848
638.828	102.724
638.879	112.293
638.931	102.454
638.983	99.369
639.034	106.277
639.086	101.232
639.138	98.8416
639.19	96.1314
639.241	102.634
639.293	102.153
639.345	102.971
639.396	103.419
639.448	107.745
639.5	105.717
639.551	106.746
639.603	107.369
639.655	100.242
639.706	109.168
639.758	103.511
639.81	94.0258
639.862	101.475
639.913	100.353
639.965	105.402
640.017	108.137
640.068	98.2181
640.12	100.178
640.172	104.003
640.223	96.5148
640.275	106.837
640.327	96.4292
640.378	104.558
640.43	101.078
640.482	102.956
640.533	97.6736
640.585	98.5665
640.637	96.5366
640.688	105.624
640.74	105.158
640.792	105.01
640.844	106.622
640.895	98.0749
640.947	102.456
640.999	99.8779
641.05	92.1872
641.102	96.2531
641.154	103.257
641.205	100.467
641.257	91.5141
641.309	104.443
641.36	103.896
641.412	97.4992
641.464	100.124
641.515	104.893
641.567	99.2308
641.619	99.2387
641.67	93.5995
641.722	101.316
641.774	102.007
641.825	97.1184
641.877	100.193
641.929	96.0961
641.98	90.0215
642.032	101.131
642.084	99.189
642.135	106.183
642.187	97.317
642.239	96.4492
642.29	94.2524
642.342	103.671
642.394	95.3133
642.445	99.0376
642.497	100.787
642.549	101.267
642.6	89.5751
642.652	86.6001
642.704	95.0247
642.755	100.954
642.807	93.4914
642.859	92.9226
642.91	97.0679
642.962	95.3667
643.013	92.9505
643.065	100.936
643.117	96.5124
643.168	100.428
643.22	92.0072
643.272	97.7803
643.323	95.6428
643.375	98.3704
643.427	86.8501
643.478	95.7116
643.53	100.789
643.582	102.947
643.633	101.337
643.685	95.2999
643.737	95.5193
643.788	97.2812
643.84	90.0015
643.891	97.8877
643.898	98.7052
643.949	98.701
644.001	95.976
644.053	91.4615
644.105	103.802
644.156	103.675
644.208	89.6423
644.26	97.6446
644.312	101.448
644.363	97.9879
644.415	92.6857
644.467	97.4642
644.519	91.9359
644.57	100.324
644.622	95.4852
644.674	95.289
644.726	101.576
644.777	101.284
644.829	98.5689
644.881	97.1754
644.932	96.451
644.984	105.007
645.036	96.7174
645.088	95.5408
645.139	97.8523
645.191	97.4513
645.243	94.0496
645.295	98.6469
645.346	101.762
645.398	99.5986
645.45	94.1754
645.502	88.2775
645.553	95.5556
645.605	100.705
645.657	93.6953
645.708	96.1223
645.76	92.0653
645.812	97.0189
645.864	92.5058
645.915	100.897
645.967	96.6943
646.019	99.2939
646.071	92.0385
646.122	99.7267
646.174	105.685
646.226	104.84
646.277	93.221
646.329	98.7744
646.381	95.1519
646.433	91.0735
646.484	87.5904
646.536	96.0672
646.588	98.1804
646.639	97.4146
646.691	89.1406
646.743	98.647
646.795	95.583
646.846	99.4829
646.898	93.1435
646.95	91.3304
647.001	95.0394
647.053	95.1946
647.105	101.467
647.157	96.4709
647.208	97.604
647.26	93.1275
647.312	97.2686
647.363	99.6506
647.415	90.7299
647.467	98.3066
647.519	88.0496
647.57	96.0379
647.622	95.6101
647.674	94.1681
647.725	101.737
647.777	93.3376
647.829	96.4447
647.881	88.5797
647.932	92.9491
647.984	95.5726
648.036	97.9966
648.087	94.1203
648.139	94.3263
648.191	100.752
648.242	92.9748
648.294	95.9579
648.346	98.5338
648.398	93.1292
648.449	107.519
648.501	91.477
648.553	89.6804
648.604	97.1743
648.656	104.338
648.708	99.1304
648.759	88.4964
648.811	95.6649
648.863	94.8974
648.914	86.7678
648.966	98.5164
649.018	103.435
649.07	101.98
649.121	96.3986
649.173	93.9951
649.225	86.0628
649.276	100.358
649.328	91.4863
649.38	96.8326
649.431	86.3826
649.483	92.2416
649.535	84.463
649.586	93.0255
649.638	101.959
649.69	95.1031
649.742	98.5067
649.793	93.1333
649.845	97.8326
649.897	95.1998
649.948	93.6531
650	102.395
650.052	93.3591
650.103	102.38
650.155	93.0662
650.207	93.5164
650.258	95.4557
650.31	95.364
650.362	95.5084
650.413	97.7987
650.465	90.8464
650.517	92.937
650.568	86.4648
650.62	99.1884
650.672	93.6725
650.723	99.8798
650.775	95.4884
650.827	100.313
650.878	98.1121
650.93	102.667
650.982	99.0959
651.034	90.0503
651.085	98.3133
651.137	96.6495
651.189	97.2784
651.24	90.3494
651.292	94.3417
651.344	87.9841
651.395	98.5582
651.447	89.9802
651.499	95.7788
651.55	96.1912
651.602	100.159
651.654	101.028
651.705	95.0984
651.757	94.7793
651.809	94.382
651.86	97.2417
651.912	94.4746
651.964	91.9606
652.015	93.466
652.067	101.309
652.118	92.0787
652.17	94.7553
652.222	88.6842
652.273	93.3578
652.325	90.8435
652.377	89.2977
652.428	98.0348
652.48	95.9038
652.532	88.0347
652.583	85.2436
652.635	95.4327
652.687	92.6942
652.738	99.116
652.79	98.0881
652.842	95.8489
652.893	97.9807
652.945	95.0677
652.997	96.7964
653.048	97.1489
653.1	91.9358
653.152	100.272
653.203	91.9641
653.255	95.5058
653.307	95.5739
653.358	94.2839
653.41	96.7392
653.461	92.7847
653.513	96.9432
653.565	95.1106
653.616	89.5982
653.668	89.7624
653.72	93.684
653.771	103.953
653.823	92.1874
653.875	90.8555
653.926	94.23
653.978	101.685
654.029	96.3613
654.081	103.291
654.133	95.3013
654.184	93.8785
654.236	91.4062
654.288	93.0299
654.339	93.4794
654.391	98.3341
654.443	91.0554
654.494	93.797
654.546	91.9959
654.597	94.6861
654.649	93.7071
654.701	99.6966
654.752	98.3451
654.804	96.6657
654.856	98.4676
654.907	93.7042
654.959	96.7765
655.01	96.0521
655.062	96.2882
655.114	97.2572
655.165	94.531
655.217	96.5854
655.269	97.0312
655.32	98.7395
655.372	92.673
655.424	92.0194
655.475	89.5626
655.527	91.8429
655.578	93.5802
655.63	87.1993
655.682	99.5071
655.733	92.8855
655.785	91.7889
655.836	94.4796
655.888	98.9374
655.94	93.8133
655.991	100.826
656.043	98.1182
656.095	97.7315
656.146	96.4858
656.198	92.966
656.249	92.832
656.301	101.268
656.353	96.6867
656.404	93.6774
656.456	92.0147
656.508	94.7848
656.559	94.8228
656.611	99.669
656.662	95.0601
656.714	102.896
656.766	92.7715
656.817	97.1916
656.869	92.0195
656.92	96.1841
656.972	93.724
657.024	98.7667
657.075	91.922
657.127	95.8559
657.178	96.7922
657.23	98.5703
657.282	97.0615
657.333	99.0276
657.385	101.079
657.436	100.935
657.488	95.6838
657.54	90.2454
657.591	94.8875
657.643	97.1129
657.694	97.3955
657.746	96.7364
657.798	92.9053
657.849	90.6189
657.901	94.5276
657.952	101.468
658.004	104.114
658.056	97.5947
658.107	99.2086
658.159	102.023
658.21	97.4009
658.262	96.9144
658.314	99.9129
658.365	102.079
658.417	101.514
658.468	93.487
658.52	99.7107
658.571	97.6602
658.623	96.6862
658.675	98.7476
658.726	101.013
658.778	96.1634
658.829	100.847
658.881	95.4546
658.933	96.8893
658.984	98.12
659.036	99.1708
659.087	102.298
659.139	96.9909
659.19	103.443
659.242	99.9731
659.294	101.029
659.345	92.7036
659.397	100.658
659.448	95.3732
659.5	94.0771
659.552	99.6592
659.603	96.8504
659.655	98.0602
659.706	97.772
659.758	95.5501
659.809	98.3472
659.861	102.323
659.913	90.9841
659.964	95.8353
660.016	101.929
660.067	97.3077
660.119	91.9113
660.17	94.9851
660.222	100.643
660.274	97.8383
660.325	92.7474
660.377	92.7061
660.428	99.6254
660.48	96.8986
660.531	88.3338
660.583	97.3353
660.635	95.8722
660.686	90.3381
660.738	91.8282
660.789	100.162
660.841	97.5938
660.892	96.821
660.944	92.6977
660.995	93.8102
661.047	92.0796
661.099	96.3792
661.15	91.466
661.202	92.7344
661.253	103.852
661.305	99.3581
661.356	96.921
661.408	98.2949
661.46	92.6283
661.511	101.962
661.532	102.855
661.583	95.0636
661.635	101.69
661.687	96.968
661.738	98.3784
661.79	95.1188
661.842	100.419
661.893	92.9594
661.945	102.575
661.997	99.3824
662.048	98.4132
662.1	99.2292
662.151	98.2816
662.203	99.2442
662.255	103.743
662.306	97.7805
662.358	92.9483
662.41	95.359
662.461	86.7521
662.513	85.9286
662.565	95.597
662.616	96.5276
662.668	101.618
662.72	99.3974
662.771	98.5201
662.823	96.9259
662.875	92.819
662.926	95.7357
662.978	92.5308
663.03	98.1918
663.081	98.8865
663.133	97.7877
663.184	93.7965
663.236	94.6339
663.288	97.454
663.339	93.199
663.391	95.3102
663.443	96.3711
663.494	86.0317
663.546	99.8722
663.598	98.4191
663.649	101.269
663.701	98.1827
663.752	102.403
663.804	90.6661
663.856	97.2202
663.907	90.9935
663.959	104.436
664.011	93.3916
664.062	98.097
664.114	97.9408
664.166	93.4856
664.217	89.6873
664.269	95.2612
664.32	96.7545
664.372	91.8282
664.424	94.8611
664.475	98.2824
664.527	96.1242
664.579	99.2299
664.63	95.4693
664.682	96.4121
664.733	93.0454
664.785	92.9316
664.837	93.0128
664.888	102.691
664.94	88.5048
664.992	99.0719
665.043	99.9319
665.095	96.6166
665.146	96.2782
665.198	93.8267
665.25	94.9161
665.301	93.3022
665.353	98.2272
665.405	98.0629
665.456	88.2857
665.508	86.9379
665.559	90.9039
665.611	92.3296
665.663	90.1914
665.714	95.3916
665.766	91.1985
665.817	98.2428
665.869	94.5715
665.921	99.3147
665.972	90.2896
666.024	94.5683
666.076	95.4615
666.127	92.4423
666.179	96.3615
666.23	88.2482
666.282	90.5631
666.334	92.3043
666.385	95.2948
666.437	92.5136
666.488	95.7191
666.54	97.23
666.592	100.413
666.643	89.504
666.695	97.716
666.746	92.1731
666.798	88.5592
666.85	95.5538
666.901	88.4896
666.953	93.7896
667.004	96.4787
667.056	90.3485
667.108	94.4753
667.159	96.6112
667.211	99.7641
667.262	93.6705
667.314	95.3735
667.366	97.248
667.417	99.1013
667.469	90.8472
667.52	90.2045
667.572	90.3589
667.624	93.6043
667.675	90.0874
667.727	89.7039
667.778	91.6814
667.83	91.2453
667.882	85.3126
667.933	95.3033
667.985	91.0374
668.036	88.6127
668.088	91.1926
668.14	90.2645
668.191	93.8412
668.243	91.1226
668.294	86.5375
668.346	90.6012
668.397	87.4145
668.449	92.8349
668.501	94.8367
668.552	92.9449
668.604	88.0189
668.655	94.1575
668.707	95.7716
668.759	94.0718
668.81	99.0835
668.862	95.3891
668.913	87.3491
668.965	92.4963
669.016	93.4168
669.068	91.2798
669.12	81.3346
669.171	94.1695
669.223	90.6901
669.274	93.876
669.326	89.7575
669.377	96.7919
669.429	94.0818
669.481	95.5998
669.532	93.7002
669.584	92.2187
669.635	98.275
669.687	88.7027
669.738	79.4131
669.79	86.3893
669.842	93.3859
669.893	84.8002
669.945	90.0604
669.996	94.8981
670.048	93.1818
670.099	87.471
670.151	88.8534
670.203	88.2446
670.254	96.4013
670.306	95.0198
670.357	99.7771
670.409	93.1525
670.46	89.5518
670.512	84.0381
670.564	82.9768
670.615	92.1033
670.667	88.3374
670.718	88.0714
670.77	77.486
670.821	92.2125
670.873	93.5057
670.924	86.4063
670.976	90.8015
671.028	92.9494
671.079	93.0506
671.131	85.0059
671.182	87.7813
671.234	94.3493
671.285	87.662
671.337	84.6346
671.388	91.427
671.44	93.301
671.492	96.462
671.543	83.4981
671.595	91.6773
671.646	96.7721
671.698	87.007
671.749	88.1355
671.801	85.8634
671.852	79.6611
671.904	96.1546
671.956	89.1771
672.007	94.3375
672.059	91.8041
672.11	93.4272
672.162	88.2643
672.213	93.6362
672.265	88.4994
672.316	96.0125
672.368	89.3715
672.419	84.1901
672.471	89.1569
672.522	89.683
672.574	94.8191
672.626	92.0364
672.677	88.8826
672.729	91.6104
672.78	88.4516
672.832	92.9452
672.883	95.6499
672.935	90.1848
672.986	90.7385
673.038	92.717
673.089	97.9684
673.141	91.5026
673.192	89.5513
673.244	83.1297
673.296	93.2951
673.347	87.9161
673.399	89.0874
673.45	89.0912
673.502	94.0491
673.553	83.6589
673.605	83.4796
673.656	92.111
673.708	96.56
673.759	91.4917
673.811	94.3328
673.862	88.7656
673.914	88.9794
673.965	89.9196
674.017	87.3926
674.068	84.8556
674.12	89.9015
674.171	88.8233
674.223	98.0379
674.275	100.974
674.326	86.7422
674.378	86.9362
674.429	88.8969
674.481	93.8657
674.532	95.2943
674.584	84.4283
674.635	89.4418
674.687	95.7979
674.738	90.0563
674.79	93.8914
674.841	95.5182
674.893	92.2035
674.944	89.5199
674.996	80.7413
675.047	83.6788
675.099	86.4232
675.15	90.0416
675.202	87.1906
675.253	87.7444
675.305	84.0541
675.356	90.2374
675.408	91.1687
675.459	92.9103
675.511	95.6386
675.562	94.3096
675.614	88.6798
675.665	84.4845
675.717	84.689
675.768	94.5578
675.82	88.0217
675.871	87.8041
675.923	88.8103
675.974	88.7757
676.026	86.3693
676.077	92.7375
676.129	87.187
676.18	89.2369
676.232	88.3647
676.283	91.6756
676.335	88.6849
676.386	86.0875
676.438	82.6262
676.489	90.535
676.541	85.1118
676.592	89.6981
676.644	90.2913
676.695	94.7729
676.747	99.5053
676.798	91.2719
676.85	88.5618
676.901	94.3181
676.953	89.9733
677.004	85.9762
677.056	87.2225
677.107	90.2985
677.159	94.1811
677.21	95.5541
677.262	90.9297
677.313	85.6572
677.365	90.701
677.416	87.4321
677.468	93.4764
677.519	86.769
677.571	92.2624
677.622	92.0026
677.674	90.1876
677.725	94.5441
677.777	91.1087
677.828	91.0226
677.88	92.5396
677.931	87.4211
677.982	97.5647
678.034	83.6443
678.085	83.6223
678.137	85.979
678.188	89.9308
678.24	84.7382
678.291	92.4771
678.343	90.2859
678.394	89.1228
678.446	90.2521
678.497	85.8132
678.549	94.884
678.6	95.7278
678.652	86.4339
678.703	87.5083
678.755	94.5953
678.806	90.9469
678.857	81.3
678.909	86.3579
678.96	96.3929
679.012	91.9745
679.063	82.3138
679.083	81.3887
679.135	89.009
679.186	86.5446
679.238	89.2821
679.289	87.266
679.341	87.0833
679.392	95.0356
679.444	88.4744
679.496	85.9014
679.547	88.3071
679.599	90.568
679.65	91.1887
679.702	83.0427
679.753	94.6116
679.805	96.752
679.857	84.4485
679.908	91.5148
679.96	87.7477
680.011	93.853
680.063	87.7796
680.114	88.9905
680.166	88.8603
680.217	91.0417
680.269	89.4224
680.321	84.3316
680.372	96.1191
680.424	92.7256
680.475	88.1165
680.527	90.5239
680.578	83.7634
680.63	91.4542
680.682	87.6716
680.733	82.8313
680.785	88.9448
680.836	85.761
680.888	81.957
680.939	91.0976
680.991	92.7508
681.042	89.2391
681.094	92.2763
681.146	84.4521
681.197	95.9367
681.249	89.019
681.3	85.4751
681.352	89.3951
681.403	89.8889
681.455	90.0918
681.506	83.9547
681.558	83.9296
681.609	96.7953
681.661	95.1872
681.712	89.0772
681.764	85.6613
681.816	92.3417
681.867	95.7429
681.919	89.1632
681.97	83.8665
682.022	93.3469
682.073	94.5466
682.125	88.4971
682.176	89.0208
682.228	90.4161
682.279	91.5594
682.331	83.6655
682.383	90.9997
682.434	93.9516
682.486	91.1294
682.537	88.1021
682.589	88.5223
682.64	88.0282
682.692	88.6209
682.743	85.4262
682.795	86.6522
682.846	89.2425
682.898	84.6292
682.949	81.3084
683.001	86.4304
683.052	90.2799
683.104	90.0981
683.156	85.7238
683.207	93.0715
683.259	94.1205
683.31	87.4863
683.362	88.0231
683.413	90.6106
683.465	86.5937
683.516	90.9532
683.568	83.3315
683.619	87.5576
683.671	86.1575
683.722	90.9625
683.774	79.7533
683.825	87.7964
683.877	87.9134
683.928	90.9116
683.98	91.6923
684.031	85.3255
684.083	92.3326
684.134	88.7461
684.186	87.665
684.237	88.3596
684.289	90.5069
684.341	88.8365
684.392	83.0198
684.444	93.5837
684.495	95.0402
684.547	90.1263
684.598	80.3964
684.65	87.1825
684.701	88.3537
684.753	81.8497
684.804	87.06
684.856	94.8998
684.907	86.0847
684.959	91.567
685.01	88.1616
685.062	83.513
685.113	94.1388
685.165	84.0732
685.216	85.5835
685.268	86.0319
685.319	95.1147
685.371	89.886
685.422	87.8025
685.474	88.508
685.525	85.4697
685.577	82.374
685.628	82.5014
685.68	89.9128
685.731	89.7922
685.783	76.164
685.834	84.544
685.886	91.4291
685.937	83.549
685.989	82.4202
686.04	79.7502
686.092	85.6487
686.143	85.9923
686.195	82.768
686.246	77.3009
686.298	87.6932
686.349	89.7524
686.401	82.8818
686.452	80.9145
686.504	88.3905
686.555	84.1114
686.607	85.3423
686.658	84.868
686.71	85.73
686.761	88.7005
686.813	79.7701
686.864	87.9197
686.916	88.5469
686.967	85.8233
687.018	81.5655
687.07	87.3437
687.121	90.2747
687.173	86.5461
687.224	82.3547
687.276	87.0204
687.327	86.8669
687.379	86.7201
687.43	88.0628
687.482	85.1286
687.533	86.8932
687.585	89.6647
687.636	80.866
687.688	87.9766
687.739	84.2805
687.791	87.7808
687.842	87.6315
687.894	87.4005
687.945	93.0978
687.997	88.1935
688.048	83.6809
688.1	87.7353
688.151	83.8275
688.203	85.8409
688.254	84.0472
688.305	89.0542
688.357	88.5441
688.408	83.1349
688.46	84.2127
688.511	85.6352
688.563	86.586
688.614	84.3875
688.666	84.4136
688.717	87.29
688.769	86.2128
688.82	82.0633
688.872	78.8703
688.923	92.0571
688.974	83.7764
689.026	86.783
689.077	84.4731
689.129	79.1662
689.18	89.9881
689.232	78.5927
689.283	84.4358
689.335	83.7358
689.386	82.8452
689.438	85.7115
689.489	78.3861
689.541	84.559
689.592	91.7635
689.643	85.729
689.695	85.6809
689.746	89.2734
689.798	86.1513
689.849	81.1034
689.901	81.3044
689.952	87.8502
690.004	87.4013
690.055	82.3419
690.107	83.8508
690.158	87.5499
690.209	89.759
690.261	81.9244
690.312	87.2159
690.364	88.9135
690.415	82.7398
690.467	77.3451
690.518	80.8808
690.57	93.8447
690.621	83.0867
690.672	77.6818
690.724	85.0876
690.775	89.8372
690.827	85.9564
690.878	84.4855
690.93	81.8128
690.981	86.6179
691.033	87.6817
691.084	78.8933
691.135	79.7889
691.187	85.3479
691.238	86.4565
691.29	86.1947
691.341	85.1143
691.393	85.6326
691.444	82.8272
691.495	82.244
691.547	88.8745
691.598	86.7498
691.65	79.0837
691.701	80.2799
691.753	79.3995
691.804	81.0577
691.856	83.3533
691.907	78.3
691.958	88.285
692.01	86.8215
692.061	82.9071
692.113	82.9633
692.164	86.5657
692.216	83.3425
692.267	83.616
692.318	81.0526
692.37	85.475
692.421	84.3741
692.473	78.2598
692.524	81.9409
692.576	81.6625
692.627	84.6037
692.678	84.8294
692.73	81.0013
692.781	81.7391
692.833	84.78
692.884	83.4036
692.935	83.4347
692.987	86.1988
693.038	82.052
693.09	84.1404
693.141	80.4183
693.193	77.0976
693.244	78.3603
693.295	78.2493
693.347	75.3831
693.398	84.2392
693.45	81.9774
693.501	77.6804
693.552	79.7006
693.604	81.8009
693.655	86.6554
693.707	84.3129
693.758	81.248
693.809	83.5083
693.861	83.4557
693.912	80.1929
693.964	83.6132
694.015	85.5494
694.066	86.816
694.118	82.751
694.169	77.6391
694.221	80.843
694.272	83.4603
694.323	80.4377
694.375	80.8511
694.426	83.6997
694.478	83.0813
694.529	79.1939
694.581	77.9716
694.632	82.2074
694.683	84.0387
694.735	76.3207
694.786	84.0732
694.837	87.5144
694.889	80.0784
694.94	79.8446
694.992	76.6456
695.043	81.7048
695.094	82.7713
695.146	75.1474
695.197	79.3075
695.249	86.6779
695.3	83.0002
695.351	81.7765
695.403	80.7745
695.454	80.8662
695.506	82.6303
695.557	80.9897
695.608	81.0285
695.66	84.0808
695.711	81.0081
695.763	75.9006
695.814	78.7462
695.865	80.0175
695.917	77.6272
695.968	81.6385
696.019	85.0335
696.071	79.4486
696.122	78.0453
696.174	74.5692
696.225	80.4171
696.276	84.7962
696.328	80.833
696.379	82.8379
696.43	84.5157
696.482	84.2409
696.533	79.2718
696.585	76.257
696.636	82.5176
696.687	86.1038
696.707	82.594
696.759	72.4267
696.81	77.2604
696.862	82.1814
696.913	84.3285
696.965	73.3084
697.016	78.1764
697.068	83.8236
697.119	79.3402
697.171	75.2312
697.222	79.9911
697.274	83.1456
697.325	82.3246
697.377	80.088
697.428	76.9638
697.479	83.1298
697.531	81.9189
697.582	79.4597
697.634	80.346
697.685	77.0949
697.737	80.5003
697.788	75.7928
697.84	81.584
697.891	85.8593
697.943	80.9391
697.994	71.4405
698.046	78.3833
698.097	79.1077
698.149	76.0288
698.2	75.2276
698.252	84.3915
698.303	81.8251
698.354	77.3993
698.406	80.8275
698.457	79.7661
698.509	76.187
698.56	80.7009
698.612	80.692
698.663	78.5038
698.715	80.3251
698.766	78.199
698.818	79.4904
698.869	79.5488
698.921	75.9161
698.972	79.9563
699.023	76.0863
699.075	85.6148
699.126	82.6814
699.178	79.1686
699.229	74.3876
699.281	78.1376
699.332	78.4467
699.384	78.0303
699.435	78.8887
699.487	79.0499
699.538	81.7377
699.589	78.2847
699.641	76.4511
699.692	82.3583
699.744	81.121
699.795	76.5425
699.847	81.8693
699.898	80.3487
699.95	73.2668
700.001	74.689
700.052	76.7673
700.104	85.09
700.155	74.5306
700.207	77.402
700.258	72.9634
700.31	76.858
700.361	75.1437
700.413	72.9483
700.464	74.7669
700.515	84.6514
700.567	80.9592
700.618	74.1809
700.67	76.8551
700.721	75.3511
700.773	82.1105
700.824	80.4154
700.875	80.7654
700.927	80.1174
700.978	79.0529
701.03	73.8197
701.081	71.1394
701.133	77.0694
701.184	78.0959
701.235	74.0875
701.287	78.0126
701.338	84.5184
701.39	81.3687
701.441	77.7024
701.493	80.3424
701.544	82.9485
701.596	75.2354
701.647	69.2604
701.698	75.2676
701.75	76.7542
701.801	74.4876
701.853	77.4075
701.904	81.6198
701.956	80.4827
702.007	76.8138
702.058	78.4089
702.11	81.4622
702.161	81.079
702.213	79.7287
702.264	75.6315
702.315	80.4071
702.367	76.8393
702.418	77.3882
702.47	78.7231
702.521	78.0163
702.573	80.8913
702.624	78.4674
702.675	79.1348
702.727	79.5083
702.778	78.0628
702.83	74.3673
702.881	78.5718
702.932	78.1145
702.984	79.8057
703.035	76.3821
703.087	79.8143
703.138	78.9054
703.19	78.1666
703.241	83.2154
703.292	80.9223
703.344	74.4933
703.395	73.4884
703.447	74.6115
703.498	79.9187
703.549	80.1167
703.601	74.6903
703.652	77.7549
703.704	79.3139
703.755	80.7285
703.806	81.5578
703.858	80.3376
703.909	73.4825
703.961	78.113
704.012	76.4247
704.063	77.6108
704.115	73.6563
704.166	82.1093
704.218	78.0896
704.269	74.7874
704.32	77.9219
704.372	80.5117
704.423	77.8765
704.475	77.1736
704.526	73.8105
704.577	75.1215
704.629	82.869
704.68	77.183
704.732	78.7993
704.783	86.2277
704.834	80.1811
704.886	80.7081
704.937	80.6062
704.988	78.8385
705.04	79.779
705.091	79.6637
705.143	83.4526
705.194	79.4575
705.245	74.6306
705.297	73.2947
705.348	76.6619
705.4	77.761
705.451	78.3969
705.502	81.0266
705.554	78.7685
705.605	78.5479
705.656	75.6072
705.708	74.5331
705.759	77.5644
705.811	79.9741
705.862	76.2805
705.913	70.4709
705.965	77.4415
706.016	77.3352
706.068	71.6648
706.119	72.5816
706.17	75.7757
706.222	74.4501
706.273	76.5332
706.324	78.8292
706.376	73.3235
706.427	73.2735
706.479	73.0516
706.53	76.2216
706.581	77.3143
706.633	74.5156
706.684	75.2828
706.735	74.3019
706.787	76.9544
706.838	78.4952
706.889	75.9036
706.941	73.0368
706.992	80.9484
707.044	76.0706
707.095	75.4654
707.146	77.6576
707.198	78.5099
707.249	77.7679
707.3	80.6873
707.352	76.1016
707.403	76.138
707.454	77.7891
707.506	76.3608
707.557	78.2533
707.609	82.2448
707.66	78.2349
707.711	77.9233
707.763	73.6486
707.814	80.8368
707.865	73.0952
707.917	73.804
707.968	78.6327
708.019	72.6665
708.071	72.4114
708.122	71.2
708.173	75.8017
708.225	78.1308
708.276	71.8505
708.328	75.1817
708.379	75.2325
708.43	75.744
708.482	78.1176
708.533	78.2817
708.584	76.4873
708.636	75.746
708.687	70.2784
708.738	76.0959
708.79	76.6646
708.841	79.2805
708.892	74.0357
708.944	72.6511
708.995	73.4923
709.046	77.7544
709.098	76.7119
709.149	72.2703
709.2	72.2068
709.252	75.6317
709.303	70.7277
709.354	78.8552
709.406	78.7528
709.457	79.6646
709.508	75.7643
709.56	79.2994
709.611	75.7969
709.662	81.1734
709.714	74.1742
709.765	70.1439
709.816	75.1367
709.868	77.949
709.919	74.57
709.97	75.7506
710.022	76.7193
710.073	84.4596
710.124	72.435
710.176	78.4948
710.227	76.655
710.278	80.0471
710.33	70.8939
710.381	77.9638
710.432	73.3596
710.484	79.0841
710.535	75.5664
710.586	77.5845
710.638	69.5848
710.689	78.9833
710.74	79.8299
710.792	74.8526
710.843	75.9117
710.894	74.2018
710.946	69.7023
710.997	71.9647
711.048	80.1137
711.1	75.3748
711.151	73.7573
711.202	76.9005
711.254	77.9888
711.305	75.0796
711.356	77.7482
711.407	77.6496
711.459	75.5903
711.51	74.6807
711.561	77.7019
711.613	72.8934
711.664	78.6369
711.715	76.5857
711.767	70.1028
711.818	78.8838
711.869	77.8771
711.921	73.5259
711.972	75.7367
712.023	74.4421
712.075	77.0327
712.126	71.1094
712.177	78.316
712.228	77.6006
712.28	84.3808
712.331	77.021
712.382	74.3789
712.434	75.7672
712.485	78.395
712.536	75.9751
712.588	76.831
712.639	82.767
712.69	80.2825
712.741	74.8072
712.793	77.8598
712.844	71.7503
712.895	78.8308
712.947	77.6308
712.998	74.6596
713.049	77.4962
713.101	78.18
713.152	74.1468
713.203	80.0697
713.254	75.5703
713.306	75.2819
713.357	71.4436
713.408	77.0878
713.46	84.4409
713.511	78.1978
713.562	74.3622
713.613	77.5813
713.665	71.6815
713.716	81.5411
713.767	83.2037
713.819	83.7816
713.87	80.9004
713.921	73.6198
713.972	79.0554
714.024	78.579
714.075	73.1852
714.126	70.5387
714.178	76.9798
714.18	77.2421
714.231	79.0059
714.283	73.1864
714.334	83.6661
714.385	75.8828
714.437	74.965
714.488	74.3705
714.539	74.1024
714.591	80.1454
714.642	79.0021
714.694	75.4931
714.745	75.8833
714.796	75.6345
714.848	77.9488
714.899	74.3365
714.951	81.4053
715.002	83.2271
715.053	72.396
715.105	78.2853
715.156	79.5751
715.207	80.6046
715.259	79.8303
715.31	78.3255
715.362	81.8333
715.413	77.2
715.464	76.016
715.516	77.0433
715.567	72.1675
715.618	77.0194
715.67	77.4618
715.721	74.5352
715.773	78.4808
715.824	77.5035
715.875	72.4395
715.927	72.185
715.978	76.3503
716.029	79.5477
716.081	72.4271
716.132	79.9739
716.184	76.6098
716.235	81.6548
716.286	76.1459
716.338	69.39
716.389	78.2746
716.44	79.7163
716.492	76.6829
716.543	80.9588
716.594	79.8686
716.646	78.449
716.697	79.0805
716.749	76.9973
716.8	75.9529
716.851	76.9101
716.903	79.8466
716.954	81.6651
717.005	76.851
717.057	81.5223
717.108	77.8307
717.159	74.0027
717.211	75.0767
717.262	76.27
717.314	77.5115
717.365	78.8197
717.416	78.041
717.468	77.8259
717.519	75.4363
717.57	77.4661
717.622	77.9981
717.673	83.1844
717.724	82.5249
717.776	79.6045
717.827	80.0733
717.878	80.4099
717.93	77.3149
717.981	78.2894
718.032	80.4419
718.084	79.3786
718.135	77.2232
718.187	76.7585
718.238	77.2133
718.289	79.5311
718.341	76.361
718.392	81.6895
718.443	83.6063
718.495	81.346
718.546	78.9672
718.597	75.1101
718.649	76.4718
718.7	78.4124
718.751	82.531
718.803	86.282
718.854	83.6823
718.905	82.143
718.957	79.5688
719.008	80.98
719.059	86.1069
719.111	83.2752
719.162	81.1415
719.213	81.1642
719.265	85.4616
719.316	80.2913
719.367	80.4429
719.419	86.3184
719.47	85.7382
719.521	81.3927
719.573	80.4895
719.624	82.2984
719.675	84.9576
719.727	79.4497
719.778	74.7566
719.829	77.7729
719.881	84.4138
719.932	76.4015
719.983	78.3204
720.035	82.7492
720.086	82.84
720.137	77.4518
720.189	79.7508
720.24	82.0571
720.291	85.8408
720.343	79.923
720.394	81.4232
720.445	83.3144
720.496	83.3063
720.548	77.9893
720.599	81.5771
720.65	86.6958
720.702	89.8436
720.753	85.0038
720.804	83.1445
720.856	85.6494
720.907	83.298
720.958	80.7892
721.01	83.7517
721.061	91.3807
721.112	85.1987
721.164	85.5948
721.215	84.9198
721.266	85.6536
721.318	83.756
721.369	77.9962
721.42	84.6091
721.471	83.9521
721.523	86.5071
721.574	89.851
721.625	85.3877
721.677	88.8144
721.728	84.5855
721.779	82.0157
721.831	85.9711
721.882	89.8361
721.933	83.4577
721.984	81.2368
722.036	86.8727
722.087	90.2977
722.138	87.7345
722.19	80.7319
722.241	85.0543
722.292	93.141
722.344	84.2908
722.395	82.8097
722.446	85.4182
722.497	84.5822
722.549	79.5498
722.6	82.2639
722.651	91.8854
722.703	90.0335
722.754	85.0304
722.805	85.7925
722.857	89.025
722.908	88.9066
722.959	91.5363
723.01	85.4644
723.062	90.3
723.113	87.2681
723.164	85.4507
723.216	84.1591
723.267	87.6778
723.318	87.4545
723.369	86.698
723.421	86.8614
723.472	88.5097
723.523	89.292
723.575	88.3288
723.626	91.4572
723.677	90.6003
723.728	91.3908
723.78	93.9482
723.831	95.7272
723.882	95.8707
723.934	90.1415
723.985	94.9766
724.036	89.984
724.087	93.7154
724.139	94.0201
724.19	93.7655
724.241	88.5536
724.292	93.1983
724.344	94.9395
724.395	89.7605
724.446	94.4627
724.498	95.8501
724.549	96.3618
724.6	90.1999
724.651	97.3175
724.703	95.3315
724.754	101.685
724.805	92.8402
724.856	93.5456
724.908	95.8451
724.959	94.8633
725.01	90.3746
725.062	97.6367
725.113	96.4222
725.164	94.8273
725.215	95.3089
725.267	96.0107
725.318	99.9142
725.369	106.722
725.42	98.9033
725.472	94.1068
725.523	101.382
725.574	102.793
725.625	96.2243
725.677	107.762
725.728	100.619
725.779	104.611
725.83	106.393
725.882	101.107
725.933	99.3434
725.984	98.7679
726.036	96.6097
726.087	104.874
726.138	103.807
726.189	104.531
726.241	100.352
726.292	113.467
726.343	107.125
726.394	100.549
726.445	100.859
726.497	112.482
726.548	105.791
726.599	103.138
726.651	97.689
726.702	109.16
726.753	100.614
726.804	97.3742
726.855	101.867
726.907	108.882
726.958	105.939
727.009	101.333
727.06	106.723
727.112	113.251
727.163	105.306
727.214	103.889
727.265	107.045
727.317	100.561
727.368	104.455
727.419	100.317
727.47	104.53
727.522	108.743
727.573	111.195
727.624	105.866
727.675	104.46
727.727	111.111
727.778	107.627
727.829	105.087
727.88	109.234
727.932	113.625
727.983	114.753
728.034	118.254
728.085	113.273
728.136	117.254
728.188	111.788
728.239	105.301
728.29	118.139
728.341	113.153
728.393	114.11
728.444	112.947
728.495	122.443
728.546	112.459
728.597	110.418
728.649	105.896
728.7	114.791
728.751	117.008
728.802	117.736
728.854	112.276
728.905	114.504
728.956	116.812
729.007	106.924
729.058	106.042
729.11	122.917
729.161	120.278
729.212	121.963
729.263	117.001
729.315	123.604
729.366	118.989
729.417	118.047
729.468	114.685
729.519	130.626
729.571	126.026
729.622	112.613
729.673	111.071
729.724	118.426
729.775	116.712
729.827	122.244
729.878	117.93
729.929	125.121
729.98	123.089
730.031	122.72
730.083	109.386
730.134	124.775
730.185	119.681
730.236	123.011
730.288	122.793
730.339	123.743
730.39	128.773
730.441	119.409
730.492	115.329
730.544	133.098
730.595	123.99
730.646	131.675
730.697	124.287
730.748	125.13
730.8	129.052
730.851	125.666
730.902	124.896
730.953	129.767
731.004	132.413
731.056	127.089
731.107	126.902
731.158	135.432
731.209	129.382
731.26	119.537
731.312	125.541
731.363	130.812
731.414	131.703
731.465	131.605
731.516	123.435
731.567	128.263
731.619	132.643
731.622	132.899
731.673	129.325
731.725	126.999
731.776	134.34
731.827	143.147
731.878	134.796
731.93	144.679
731.981	141.235
732.032	132.366
732.084	129.286
732.135	138.496
732.186	145.644
732.237	143.697
732.289	136.796
732.34	139.553
732.391	141.961
732.443	141.886
732.494	140.027
732.545	141.317
732.597	152.735
732.648	151.02
732.699	140.921
732.75	148.244
732.802	146.511
732.853	137.302
732.904	148.003
732.956	153.819
733.007	157.897
733.058	153.672
733.109	147.843
733.161	156.945
733.212	158.057
733.263	158.272
733.315	166.017
733.366	153.512
733.417	161.275
733.468	162.49
733.52	162.667
733.571	167.377
733.622	166.299
733.673	169.121
733.725	165.217
733.776	173.685
733.827	172.781
733.879	176.067
733.93	174.323
733.981	176.973
734.032	175.955
734.084	183.254
734.135	175.156
734.186	185.581
734.237	184.676
734.289	188.23
734.34	182.693
734.391	196.772
734.443	201.372
734.494	201.794
734.545	193.604
734.596	210.817
734.648	207.454
734.699	214.332
734.75	210.094
734.801	216.836
734.853	226.851
734.904	220.046
734.955	223.726
735.006	223.306
735.058	228.681
735.109	236.138
735.16	235.036
735.211	250.389
735.263	249.375
735.314	252.335
735.365	253.616
735.417	262.926
735.468	250.375
735.519	253.107
735.57	269.445
735.622	277.05
735.673	281.381
735.724	275.022
735.775	284.505
735.827	286.847
735.878	285.717
735.929	293.041
735.98	304.258
736.032	312.889
736.083	313.66
736.134	323.694
736.185	325.662
736.237	324.198
736.288	334.039
736.339	340.902
736.39	339.109
736.442	352.163
736.493	364.062
736.544	373.442
736.595	377.695
736.646	384.598
736.698	382.713
736.749	387.984
736.8	398.622
736.851	404.698
736.903	420.69
736.954	409.543
737.005	430.267
737.056	434.032
737.108	438.778
737.159	446.851
737.21	454.875
737.261	458.631
737.313	471.644
737.364	472.686
737.415	491.914
737.466	496.34
737.518	496.627
737.569	485.053
737.62	499.801
737.671	512.327
737.722	521.372
737.774	518.539
737.825	527.517
737.876	527.435
737.927	531.977
737.979	542.312
738.03	544.505
738.081	548.405
738.132	545.485
738.183	544.513
738.235	554.264
738.286	552.21
738.337	541.563
738.388	543.065
738.44	554.077
738.491	551.959
738.542	548.119
738.593	551.891
738.644	538.93
738.696	534.534
738.747	536.873
738.798	538.318
738.849	533.123
738.901	524.147
738.952	504.652
739.003	506.31
739.054	515.115
739.105	505.137
739.157	483.45
739.208	477.15
739.259	481.804
739.31	471.77
739.361	462.764
739.413	462.183
739.464	452.945
739.515	449.093
739.566	449.156
739.617	440.471
739.669	433.993
739.72	437.449
739.771	422.267
739.822	417.243
739.874	408.509
739.925	404.307
739.976	382.901
740.027	379.754
740.078	384.831
740.13	367.804
740.181	370.894
740.232	368.088
740.283	366.023
740.334	351.896
740.385	348.97
740.437	338.458
740.488	336.926
740.539	331.625
740.59	335.073
740.641	337.565
740.693	324.436
740.744	314.233
740.795	308.329
740.846	292.255
740.897	293.006
740.949	292.38
741	283.764
741.051	290.553
741.102	285.061
741.153	277.616
741.205	273.266
741.256	268.696
741.307	266.732
741.358	268.434
741.409	264.359
741.461	257.152
741.512	259.184
741.563	254.199
741.614	250.017
741.665	246.46
741.716	248.628
741.768	242.535
741.819	236.984
741.87	231.321
741.921	232.158
741.972	219.96
742.024	226.12
742.075	230.32
742.126	224.934
742.177	214.155
742.228	208.91
742.279	220.253
742.331	215.26
742.382	211.658
742.433	201.513
742.484	203.691
742.535	200.893
742.586	191.213
742.638	203.111
742.689	196.927
742.74	194.442
742.791	195.231
742.842	192.54
742.893	194.334
742.945	198.185
742.996	187.739
743.047	185.03
743.098	185.295
743.149	184.705
743.201	182.355
743.252	182.391
743.303	187.765
743.354	181.437
743.405	173.54
743.456	177.455
743.507	177.119
743.559	171.808
743.61	170.201
743.661	170.738
743.712	169.738
743.763	164.942
743.814	167.527
743.866	174.011
743.917	174.483
743.968	168.345
744.019	166.771
744.07	162.306
744.121	165.201
744.172	160.734
744.224	152.529
744.275	155.348
744.326	160.846
744.377	153.791
744.428	153.743
744.479	160.42
744.531	156.724
744.582	149.972
744.633	152.422
744.684	151.381
744.735	146.861
744.786	148.218
744.837	150.965
744.889	148.786
744.94	150.29
744.991	143.161
745.042	141.754
745.093	147.799
745.144	148.48
745.195	139.997
745.247	139.4
745.298	140.494
745.349	132.163
745.4	135.459
745.451	139.632
745.502	141.869
745.553	138.471
745.605	136.395
745.656	140.389
745.707	140.357
745.758	137.756
745.809	137.117
745.86	140.312
745.911	135.217
745.962	133.075
746.014	133.641
746.065	133.394
746.116	138.251
746.167	131.673
746.218	128.454
746.269	134.298
746.32	132.528
746.372	127.571
746.423	132.479
746.474	136.056
746.525	132.309
746.576	125.356
746.627	124.808
746.678	130.827
746.729	132.994
746.78	132.062
746.832	128.988
746.883	130.535
746.934	129.404
746.985	130.655
747.036	124.772
747.087	118.069
747.138	121.777
747.189	126.836
747.241	121.946
747.292	123.684
747.343	128.206
747.394	129.106
747.445	126.327
747.496	128.404
747.547	126.959
747.598	125.641
747.649	123.318
747.701	119.75
747.752	126.074
747.803	124.97
747.854	124.16
747.905	123.782
747.956	122.509
748.007	121.009
748.058	116.286
748.109	126.701
748.161	120.795
748.212	118.76
748.263	121.034
748.314	122.895
748.365	119.725
748.416	118.228
748.467	120.928
748.518	118.877
748.569	116.871
748.62	115.078
748.672	118.111
748.723	121.077
748.774	120.717
748.825	121.267
748.876	116.426
748.927	121.21
748.978	121.909
749.029	120.289
749.08	118.791
749.131	113.154
749.173	114.143
749.224	115.049
749.275	111.324
749.326	114.63
749.378	117.731
749.429	122.876
749.48	111.44
749.531	121.459
749.582	109.14
749.634	112.205
749.685	117.373
749.736	114.078
749.787	123.527
749.838	112.921
749.89	110.794
749.941	109.33
749.992	113.499
750.043	114.004
750.094	113.93
750.146	117.766
750.197	116.424
750.248	117.108
750.299	111.063
750.35	123.674
750.401	113.796
750.453	106.662
750.504	108.908
750.555	113.014
750.606	107.664
750.657	121.294
750.709	113.475
750.76	114.566
750.811	112.126
750.862	110.236
750.913	115.965
750.964	109.226
751.016	107.146
751.067	97.5874
751.118	104.656
751.169	116.798
751.22	116.09
751.272	110.012
751.323	105.606
751.374	118.291
751.425	114.243
751.476	101.006
751.528	106.381
751.579	106.712
751.63	104.713
751.681	107.267
751.732	108.587
751.783	108.227
751.835	112.813
751.886	102.411
751.937	108.465
751.988	108.527
752.039	114.892
752.09	109.487
752.142	107.947
752.193	104.967
752.244	108.322
752.295	101.883
752.346	113.604
752.397	108.256
752.449	111.604
752.5	105.127
752.551	111.817
752.602	106.016
752.653	111.29
752.704	105.693
752.756	104.61
752.807	106.336
752.858	108.728
752.909	109.58
752.96	102.883
753.011	111.784
753.063	106.306
753.114	99.0988
753.165	112.973
753.216	105.475
753.267	114.68
753.318	108.479
753.37	113.732
753.421	112.364
753.472	104.359
753.523	106.97
753.574	113.262
753.625	104.197
753.676	105.578
753.728	103.782
753.779	106.735
753.83	109.512
753.881	105.051
753.932	107.615
753.983	107.882
754.034	108.851
754.086	110.299
754.137	105.033
754.188	109.457
754.239	105.948
754.29	104.368
754.341	104.57
754.393	104.967
754.444	110.621
754.495	104.52
754.546	106.313
754.597	103.248
754.648	99.5346
754.699	102.725
754.75	94.4241
754.802	110.678
754.853	106.853
754.904	102.137
754.955	108.061
755.006	108.043
755.057	104.338
755.108	95.1131
755.16	107.889
755.211	105.604
755.262	99.6542
755.313	101.334
755.364	107.024
755.415	108.733
755.466	106.716
755.518	97.9547
755.569	104.211
755.62	104.854
755.671	102.308
755.722	105.158
755.773	101.633
755.824	98.4435
755.875	110.169
755.927	105.871
755.978	107.664
756.029	101.9
756.08	99.3248
756.131	99.4295
756.182	99.234
756.233	104.442
756.284	101.22
756.336	102.356
756.387	100.063
756.438	105.007
756.489	101.606
756.54	99.7206
756.591	103.596
756.642	108.921
756.693	104.063
756.745	96.9962
756.796	102.976
756.847	105.102
756.898	104.616
756.949	108.692
757	101.049
757.051	103.768
757.102	106.651
757.153	104.51
757.205	102.344
757.256	103.722
757.307	97.1971
757.358	101.359
757.409	97.1932
757.46	101.075
757.511	104.091
757.562	104.062
757.613	103.681
757.664	103.834
757.716	103.678
757.767	105.839
757.818	98.4949
757.869	97.0363
757.92	96.7217
757.971	105.1
758.022	103.191
758.073	96.6867
758.124	92.3676
758.175	101.164
758.227	100.463
758.278	97.5605
758.329	97.9138
758.38	96.8574
758.431	104.821
758.482	98.9554
758.533	90.9927
758.584	97.5558
758.635	101.221
758.686	98.896
758.738	98.728
758.789	95.6128
758.84	103.131
758.891	99.7497
758.942	97.9093
758.993	102.947
759.044	105.453
759.095	103.178
759.146	99.4552
759.197	98.3567
759.248	100.924
759.3	94.3045
759.351	90.7685
759.402	95.1845
759.453	99.8555
759.504	97.7926
759.555	101.927
759.606	92.8715
759.657	92.1195
759.708	98.6888
759.759	96.8392
759.81	99.2637
759.861	99.1829
759.913	97.1702
759.964	99.0285
760.015	98.0224
760.066	91.7734
760.117	98.0811
760.168	97.8481
760.219	98.6406
760.27	100.05
760.321	99.8724
760.372	92.9599
760.423	96.0977
760.474	94.5232
760.525	95.4431
760.576	97.2693
760.628	97.443
760.679	102.077
760.73	102.044
760.781	98.8928
760.832	97.9807
760.883	95.4961
760.934	96.2772
760.985	94.1245
761.036	94.5349
761.087	94.4084
761.138	98.3434
761.189	94.4615
761.24	97.935
761.291	100.865
761.342	101.57
761.393	94.2179
761.445	95.4781
761.496	93.5086
761.547	91.1421
761.598	91.7852
761.649	90.6405
761.7	99.0729
761.751	95.5782
761.802	93.2411
761.853	97.522
761.904	101.055
761.955	95.7504
762.006	94.7137
762.057	97.1764
762.108	95.8007
762.159	97.5984
762.21	99.8756
762.261	101.089
762.313	98.9468
762.364	90.2055
762.415	88.6836
762.466	94.4757
762.517	91.5476
762.568	95.1822
762.619	96.6601
762.67	97.6633
762.721	97.8466
762.772	94.2182
762.823	94
762.874	95.583
762.925	95.3761
762.976	90.0187
763.027	93.0021
763.078	95.5922
763.129	96.5562
763.18	94.4702
763.231	90.7666
763.282	93.7641
763.333	94.5062
763.384	94.766
763.435	93.4145
763.486	92.0359
763.537	92.6633
763.589	87.7395
763.64	88.0644
763.691	95.2468
763.742	97.5152
763.793	90.8272
763.844	87.9858
763.895	93.5238
763.946	91.4585
763.997	94.8464
764.048	91.815
764.099	89.8496
764.15	89.9807
764.201	92.7125
764.252	93.1905
764.303	90.614
764.354	93.5655
764.405	95.2868
764.456	92.2637
764.507	93.3956
764.558	89.9315
764.609	90.0981
764.66	89.8335
764.711	91.0925
764.762	92.4418
764.813	90.4101
764.864	92.3127
764.915	94.1042
764.966	91.9742
765.017	91.2891
765.068	92.8129
765.119	95.0841
765.17	97.1303
765.221	94.3096
765.272	92.7253
765.323	99.027
765.374	98.3929
765.425	96.0914
765.476	95.8875
765.527	94.0245
765.578	94.1064
765.629	87.4328
765.68	87.5752
765.731	92.4708
765.782	90.1655
765.833	89.5642
765.884	95.8897
765.935	96.066
765.986	93.3606
766.037	94.4199
766.088	94.5652
766.139	95.3234
766.19	95.1889
766.241	93.2963
766.292	91.1415
766.343	93.4261
766.394	94.8065
766.445	90.2432
766.496	92.0888
766.547	96.6383
766.598	94.647
766.649	92.2508
766.677	94.9934
766.729	94.9411
766.78	97.9231
766.831	97.0114
766.882	88.2803
766.933	94.6439
766.984	89.0657
767.035	94.7723
767.086	97.9266
767.137	96.7078
767.188	93.1685
767.24	87.2349
767.291	90.8026
767.342	90.7662
767.393	94.9215
767.444	95.8032
767.495	92.7851
767.546	89.0344
767.597	92.9654
767.648	84.655
767.7	94.2722
767.751	89.5397
767.802	95.6916
767.853	81.8525
767.904	85.0282
767.955	90.7218
768.006	85.0762
768.057	84.0277
768.108	89.3624
768.159	91.6881
768.21	86.1296
768.262	87.6168
768.313	89.9371
768.364	83.8595
768.415	88.9895
768.466	89.3102
768.517	85.3223
768.568	80.4582
768.619	92.1499
768.67	86.5458
768.721	90.2929
768.772	90.2432
768.823	89.9173
768.875	90.0405
768.926	81.1911
768.977	81.6984
769.028	82.9629
769.079	84.3707
769.13	89.7562
769.181	78.606
769.232	85.4253
769.283	78.9619
769.334	85.5015
769.385	87.7798
769.436	83.5551
769.488	86.3563
769.539	87.4898
769.59	84.2183
769.641	82.2185
769.692	78.1655
769.743	83.2634
769.794	86.8107
769.845	86.1674
769.896	81.9433
769.947	84.2327
769.998	84.0903
770.049	76.5341
770.1	79.4576
770.151	77.719
770.203	76.7671
770.254	79.7656
770.305	82.5722
770.356	81.3429
770.407	78.8614
770.458	77.4244
770.509	78.3892
770.56	85.8081
770.611	83.2227
770.662	83.1164
770.713	82.9636
770.764	77.2136
770.815	82.2376
770.866	73.8001
770.917	79.0738
770.968	78.9745
771.02	84.9044
771.071	74.475
771.122	82.6823
771.173	78.4608
771.224	76.0959
771.275	73.7448
771.326	74.3158
771.377	80.729
771.428	81.3306
771.479	77.333
771.53	76.5143
771.581	77.5592
771.632	77.3762
771.683	78.6607
771.734	73.7196
771.785	79.6928
771.836	76.1392
771.887	80.2502
771.938	77.2137
771.99	79.8568
772.041	78.3318
772.092	70.7682
772.143	67.6955
772.194	74.2599
772.245	72.1468
772.296	71.0254
772.347	73.9494
772.398	71.3838
772.449	74.7336
772.5	74.9278
772.551	67.8789
772.602	70.69
772.653	69.7758
772.704	67.0631
772.755	68.7078
772.806	74.3182
772.857	77.2685
772.908	70.4029
772.959	72.935
773.01	69.0146
773.061	70.5287
773.112	70.3338
773.163	73.6813
773.214	71.0144
773.265	72.6476
773.316	70.7602
773.367	67.8613
773.419	73.5943
773.47	72.5393
773.521	71.2734
773.572	71.4891
773.623	73.7806
773.674	71.4848
773.725	70.0474
773.776	70.1766
773.827	76.386
773.878	72.9363
773.929	67.6176
773.98	68.2133
774.031	65.2103
774.082	67.3496
774.133	70.6104
774.184	68.8224
774.235	70.7876
774.286	71.2056
774.337	73.5505
774.388	67.9439
774.439	67.8086
774.49	73.0828
774.541	69.2557
774.592	67.2852
774.643	74.1417
774.694	70.9443
774.745	70.7947
774.796	73.8053
774.847	69.7344
774.898	70.01
774.949	71.7844
775	66.3471
775.051	71.7541
775.102	67.5017
775.153	65.7472
775.204	68.4375
775.255	65.8005
775.306	62.7734
775.357	69.4325
775.408	70.3407
775.459	68.6213
775.51	66.9519
775.561	63.7704
775.612	66.3845
775.663	65.6574
775.714	63.4737
775.765	62.9703
775.816	64.3976
775.867	72.3479
775.918	66.9282
775.969	65.7908
776.02	69.6912
776.071	67.2056
776.122	64.9243
776.173	65.2845
776.224	67.8661
776.275	67.7034
776.326	65.4241
776.377	67.7996
776.428	66.9671
776.479	64.0365
776.53	65.3382
776.581	65.1123
776.632	67.3027
776.683	69.4912
776.734	64.6368
776.785	63.7649
776.836	67.572
776.887	62.523
776.938	67.0932
776.989	65.5775
777.04	64.6189
777.091	62.9975
777.142	62.9651
777.193	63.6023
777.244	68.3381
777.295	65.5884
777.346	63.2635
777.397	64.1201
777.448	66.0722
777.499	66.5373
777.55	63.3836
777.601	62.105
777.652	63.718
777.703	64.089
777.754	67.3575
777.805	68.0207
777.856	65.2847
777.907	61.333
777.958	61.2198
778.009	65.0008
778.06	66.1671
778.111	66.3171
778.161	67.17
778.212	64.4422
778.263	61.1466
778.314	62.2864
778.365	60.8351
778.416	59.5606
778.467	62.1082
778.518	63.9137
778.569	65.5178
778.62	59.4983
778.671	62.6218
778.722	64.0222
778.773	64.4417
778.824	60.6635
778.875	62.4863
778.926	64.6761
778.977	59.6379
779.028	62.895
779.079	62.0111
779.13	62.0665
779.181	64.6917
779.232	61.5497
779.283	62.3381
779.334	62.8641
779.385	61.2744
779.436	61.8095
779.487	61.2494
779.537	60.3422
779.588	60.4101
779.639	57.7926
779.69	63.1473
779.741	61.6223
779.792	63.2949
779.843	63.4213
779.894	60.2046
779.945	59.9815
779.996	63.3441
780.047	63.0538
780.098	61.0942
780.149	60.497
780.2	64.2834
780.251	63.0517
780.302	59.7926
780.353	60.5193
780.404	59.3832
780.455	56.2195
780.505	62.7934
780.556	62.0742
780.607	59.4124
780.658	62.4414
780.709	62.148
780.76	61.8604
780.811	62.844
780.862	63.6972
780.913	64.6763
780.964	58.4015
781.015	56.5451
781.066	61.8181
781.117	61.8229
781.168	59.8605
781.219	58.1649
781.27	59.854
781.32	62.4831
781.371	61.618
781.422	60.8258
781.473	58.5769
781.524	63.1713
781.575	62.0357
781.626	58.7544
781.677	60.4508
781.728	60.8232
781.779	59.4886
781.83	54.2155
781.881	54.9984
781.932	58.7708
781.983	56.6908
782.033	57.9323
782.084	58.621
782.135	55.4429
782.186	58.1099
782.237	60.1872
782.288	66.4111
782.339	59.2936
782.39	55.5687
782.441	57.6213
782.492	60.9492
782.543	59.4083
782.594	60.5136
782.644	60.8411
782.695	60.5841
782.746	57.9426
782.797	53.4141
782.848	53.6575
782.899	57.6928
782.95	59.7511
783.001	61.4572
783.052	56.2219
783.103	57.7847
783.154	59.2776
783.204	57.9681
783.255	54.5486
783.306	61.0158
783.357	57.7112
783.408	58.9451
783.459	56.1021
783.51	55.0199
783.561	51.3062
783.612	51.9374
783.663	52.9911
783.714	58.1599
783.764	56.4983
783.815	59.9102
783.866	52.8773
783.917	56.7973
783.968	57.3677
784.019	53.3231
784.07	58.868
784.109	61.9314
784.16	55.0263
784.211	53.0312
784.262	54.1484
784.313	61.541
784.364	61.0018
784.415	57.0197
784.466	53.2261
784.517	56.7594
784.568	58.6849
784.619	53.3524
784.67	51.8621
784.721	55.9777
784.772	53.2347
784.823	53.1776
784.874	46.7812
784.925	57.2242
784.976	57.6439
785.027	56.2134
785.078	52.2943
785.129	58.3645
785.18	60.5414
785.231	45.1192
785.282	55.4572
785.333	53.0984
785.384	54.0642
785.435	50.2886
785.486	55.2943
785.537	51.9992
785.588	59.2256
785.639	54.5842
785.69	53.2164
785.741	53.8954
785.792	55.4507
785.843	60.54
785.894	52.6734
785.945	51.8862
785.996	57.3337
786.047	52.9467
786.098	50.216
786.149	51.0347
786.2	58.9731
786.251	52.4716
786.302	54.8536
786.353	48.9801
786.404	54.3597
786.455	53.706
786.506	58.4822
786.557	58.2104
786.608	51.2641
786.659	52.4807
786.71	59.3777
786.761	51.4166
786.812	55.4846
786.863	54.1175
786.914	53.5108
786.965	52.6166
787.016	54.3206
787.067	47.2812
787.118	54.639
787.169	55.4819
787.22	57.8608
787.271	48.9431
787.322	56.0191
787.373	56.3604
787.424	56.0075
787.475	49.7707
787.526	52.8572
787.576	56.6637
787.627	50.8313
787.678	50.342
787.729	51.5083
787.78	53.2681
787.831	49.1461
787.882	51.8706
787.933	58.0764
787.984	50.9697
788.035	50.3794
788.086	55.1215
788.137	55.649
788.188	54.5253
788.239	55.5522
788.29	48.742
788.341	53.9618
788.392	50.9845
788.443	51.4504
788.494	50.8531
788.545	55.8326
788.596	57.4874
788.647	45.8194
788.698	47.8184
788.749	48.6009
788.8	52.0486
788.851	49.6547
788.901	48.0458
788.952	48.9634
789.003	58.3811
789.054	48.4106
789.105	50.0875
789.156	53.4552
789.207	52.2556
789.258	48.2397
789.309	53.3646
789.36	53.4109
789.411	59.6306
789.462	50.6382
789.513	55.6809
789.564	53.0849
789.615	52.9794
789.666	47.4754
789.717	48.1442
789.768	48.3515
789.819	56.7714
789.87	52.3835
789.92	53.8678
789.971	51.8979
790.022	54.8623
790.073	53.4849
790.124	53.6962
790.175	55.6052
790.226	58.9456
790.277	57.0628
790.328	56.3476
790.379	52.9521
790.43	54.2022
790.481	55.3732
790.532	53.5555
790.583	50.9986
790.634	52.3283
790.685	49.0151
790.735	49.027
790.786	51.3945
790.837	49.4544
790.888	47.6663
790.939	53.8041
790.99	51.3369
791.041	51.8451
791.092	51.4701
791.143	48.2538
791.194	48.2645
791.245	52.9504
791.296	48.3483
791.347	47.8117
791.397	49.9787
791.448	50.7398
791.499	46.9691
791.55	46.1998
791.601	48.1477
791.652	54.2298
791.703	53.6502
791.754	50.4804
791.805	51.315
791.856	49.6762
791.907	45.6707
791.958	50.5417
792.008	52.2582
792.059	49.7382
792.11	49.6839
792.161	50.3599
792.212	50.0758
792.263	48.8587
792.314	51.3522
792.365	52.3648
792.416	55.5
792.467	50.3363
792.518	51.0337
792.569	50.3429
792.619	47.2561
792.67	50.4941
792.721	51.0415
792.772	47.9057
792.823	52.1684
792.874	52.3531
792.925	51.1565
792.976	45.3223
793.027	53.4521
793.078	51.7633
793.128	51.3902
793.179	51.1956
793.23	53.8258
793.281	53.8047
793.332	53.7641
793.383	50.7611
793.434	53.5974
793.485	51.0549
793.536	52.2744
793.587	50.0455
793.638	54.5338
793.688	50.6155
793.739	49.8538
793.79	49.761
793.841	49.8362
793.892	50.8808
793.943	54.1767
793.994	54.7038
794.045	54.2968
794.096	49.455
794.146	52.9059
794.197	50.6817
794.248	51.0324
794.299	49.0914
794.35	49.6937
794.401	48.7637
794.452	49.6327
794.503	48.2793
794.554	47.0332
794.604	45.6607
794.655	50.6598
794.706	50.5865
794.757	55.5038
794.808	54.5912
794.859	53.1807
794.91	47.6609
794.961	51.9611
795.011	49.4123
795.062	49.2559
795.113	55.0357
795.164	52.3299
795.215	55.3195
795.266	55.6288
795.317	51.8784
795.368	54.1727
795.418	52.0286
795.469	50.6571
795.52	50.8166
795.571	48.9694
795.622	47.8932
795.673	46.8859
795.724	49.6167
795.775	49.8869
795.825	51.4428
795.876	54.7064
795.927	51.136
795.978	51.0308
796.029	47.5292
796.08	48.0307
796.131	49.0992
796.181	48.1288
796.232	48.2432
796.283	50.2504
796.334	54.304
796.385	52.3995
796.436	45.9671
796.487	45.2318
796.537	49.2496
796.588	51.2226
796.639	53.8599
796.69	54.5654
796.741	52.3038
796.792	46.8316
796.843	49.0516
796.893	52.3602
796.944	53.6852
796.995	49.7175
797.046	51.3254
797.097	48.6968
797.148	46.5664
797.199	49.5212
797.249	46.452
797.3	45.2838
797.351	48.2123
797.402	46.3506
797.453	47.6627
797.504	49.2298
797.555	49.0756
797.605	49.3605
797.656	48.2382
797.707	50.7884
797.758	55.0141
797.809	51.2386
797.86	53.8681
797.91	50.0921
797.961	49.0792
798.012	47.9779
798.063	48.9892
798.114	50.8842
798.165	51.158
798.216	49.905
798.266	47.8947
798.317	44.815
798.368	45.494
798.419	48.5872
798.47	51.3161
798.521	52.2149
798.571	53.5978
798.622	50.9798
798.673	51.1334
798.724	52.0093
798.775	51.0579
798.826	50.2641
798.876	48.094
798.927	47.6277
798.978	51.5307
799.029	51.5815
799.08	47.8229
799.13	45.1061
799.181	46.1585
799.232	45.7417
799.283	44.8242
799.334	49.6069
799.385	50.7514
799.435	49.9135
799.486	49.5577
799.537	46.4144
799.588	46.4977
799.639	46.6282
799.69	46.4556
799.74	46.6151
799.791	46.5409
799.842	46.5067
799.893	47.8229
799.944	50.844
799.994	45.9069
800.045	47.7505
800.096	48.4135
800.147	43.434
800.198	47.0867
800.248	48.7409
800.299	47.9147
800.35	45.1476
800.401	45.3602
800.452	45.3412
800.503	49.4026
800.553	46.5906
800.604	42.8608
800.655	42.8103
800.706	53.5369
800.757	53.9738
800.807	48.4482
800.858	44.2415
800.909	47.0356
800.96	45.1139
801.011	46.0566
801.061	44.6966
801.112	49.0135
801.163	46.9566
801.214	43.5964
801.265	42.6739
801.315	45.7379
801.366	47.1711
801.417	45.928
801.457	42.5048
801.508	46.233
801.558	45.9813
801.609	48.4467
801.66	47.4919
801.711	47.7847
801.762	47.5729
801.813	45.7164
801.864	46.241
801.915	47.2544
801.966	48.6345
802.017	46.9401
802.068	44.0898
802.118	45.6054
802.169	47.1231
802.22	45.5801
802.271	47.7856
802.322	44.4526
802.373	49.871
802.424	43.5622
802.475	45.1881
802.526	46.9271
802.577	44.2635
802.627	42.6414
802.678	47.1248
802.729	44.31
802.78	47.152
802.831	44.9838
802.882	44.9519
802.933	42.8796
802.984	46.2891
803.035	43.0977
803.086	47.6825
803.136	44.5582
803.187	42.9097
803.238	44.5132
803.289	48.7685
803.34	43.9411
803.391	45.1567
803.442	39.8662
803.493	44.283
803.544	43.7404
803.594	49.1832
803.645	38.8197
803.696	41.7537
803.747	43.6261
803.798	44.1008
803.849	43.1464
803.9	45.3112
803.951	45.7497
804.002	48.7268
804.052	44.5471
804.103	46.6567
804.154	46.6446
804.205	47.9392
804.256	40.1587
804.307	51.7136
804.358	48.5326
804.409	49.1367
804.459	42.5356
804.51	48.5476
804.561	44.6955
804.612	44.5788
804.663	41.4166
804.714	41.9065
804.765	45.4696
804.816	42.7074
804.866	41.0432
804.917	42.7227
804.968	47.9493
805.019	50.299
805.07	38.125
805.121	49.9176
805.172	46.8076
805.223	45.5459
805.273	42.9529
805.324	41.6019
805.375	43.1644
805.426	43.2718
805.477	42.2239
805.528	44.0115
805.579	43.2443
805.629	42.9075
805.68	41.3734
805.731	41.635
805.782	44.0819
805.833	46.0688
805.884	43.2476
805.935	44.425
805.985	43.9176
806.036	45.1795
806.087	42.7737
806.138	44.5515
806.189	42.8874
806.24	40.5718
806.291	45.6737
806.341	48.7447
806.392	46.5225
806.443	41.7341
806.494	42.42
806.545	39.7576
806.596	49.8612
806.647	49.6473
806.697	44.1964
806.748	41.939
806.799	39.2819
806.85	41.5101
806.901	43.6221
806.952	43.7257
807.003	43.2953
807.053	35.1068
807.104	47.3915
807.155	48.5229
807.206	45.1699
807.257	36.4202
807.308	42.5936
807.358	41.5552
807.409	43.0719
807.46	36.2266
807.511	46.6371
807.562	45.1107
807.613	46.2997
807.663	40.4914
807.714	49.016
807.765	37.9167
807.816	45.585
807.867	35.9472
807.918	41.8278
807.969	42.5723
808.019	39.1957
808.07	40.8035
808.121	43.9181
808.172	39.2671
808.223	53.0002
808.273	35.4719
808.324	39.7139
808.375	40.8626
808.426	43.2687
808.477	39.8439
808.528	41.9066
808.578	44.7387
808.629	47.0624
808.68	36.8728
808.731	46.668
808.782	41.2769
808.833	39.16
808.883	40.2557
808.934	44.9568
808.985	45.4138
809.036	44.3378
809.087	41.9783
809.138	46.1804
809.188	48.1309
809.239	38.9293
809.29	41.237
809.341	48.4044
809.392	45.2913
809.442	41.8315
809.493	43.2227
809.544	46.2476
809.595	46.4854
809.646	39.5652
809.696	38.6739
809.747	44.1417
809.798	41.8876
809.849	38.9023
809.9	40.3687
809.951	38.9032
810.001	42.3622
810.052	37.3983
810.103	41.7988
810.154	45.6753
810.205	44.8721
810.255	37.5499
810.306	41.195
810.357	41.232
810.408	43.7272
810.459	44.3835
810.509	37.6546
810.56	42.8866
810.611	42.9053
810.662	38.1231
810.713	40.8701
810.763	43.4797
810.814	43.7361
810.865	39.4063
810.916	41.8739
810.967	43.5885
811.017	41.9317
811.068	37.9282
811.119	42.7239
811.17	40.7973
811.221	43.8511
811.271	38.8756
811.322	41.8306
811.373	42.5797
811.424	43.2702
811.474	39.1541
811.525	42.432
811.576	37.5579
811.627	44.3158
811.678	41.3178
811.728	48.6563
811.779	43.168
811.83	37.7505
811.881	36.5027
811.932	45.4891
811.982	41.7015
812.033	45.1269
812.084	40.4521
812.135	42.6916
812.185	44.218
812.236	38.042
812.287	38.4365
812.338	41.0671
812.389	44.3029
812.439	44.8561
812.49	39.525
812.541	41.8588
812.592	44.2796
812.642	40.5438
812.693	39.6581
812.744	44.7892
812.795	44.9028
812.846	42.5609
812.896	41.0687
812.947	42.475
812.998	40.4044
813.049	38.4099
813.099	38.6783
813.15	41.3897
813.201	44.6001
813.252	40.0585
813.302	40.0845
813.353	41.6598
813.404	39.3731
813.455	40.218
813.506	41.6852
813.556	42.4871
813.607	42.9783
813.658	46.5794
813.709	41.2218
813.759	43.103
813.81	41.9043
813.861	40.4693
813.912	43.14
813.962	43.2084
814.013	44.2056
814.064	38.9266
814.115	37.1102
814.165	39.7619
814.216	45.499
814.267	43.7739
814.318	40.9013
814.368	42.8123
814.419	41.3527
814.47	40.4931
814.521	40.2097
814.571	42.0654
814.622	42.358
814.673	37.7268
814.724	39.2853
814.774	39.5308
814.825	37.6834
814.876	39.3475
814.927	41.7771
814.977	42.4213
815.028	38.9561
815.079	36.7581
815.13	39.639
815.18	40.9489
815.231	38.2239
815.282	40.0224
815.333	42.7134
815.383	39.468
815.434	41.6011
815.485	37.8942
815.536	41.9011
815.586	38.8891
815.637	37.2612
815.688	37.2799
815.739	41.9432
815.789	43.0707
815.84	40.7603
815.891	35.9709
815.941	39.5134
815.992	41.6107
816.043	39.682
816.094	36.9902
816.144	38.5842
816.195	40.0435
816.246	40.5988
816.297	38.4069
816.347	38.4805
816.398	40.9827
816.449	37.3373
816.499	36.3576
816.55	39.2259
816.601	40.9834
816.652	39.7053
816.702	39.5471
816.753	39.7929
816.804	36.5895
816.855	35.1527
816.905	38.0721
816.956	39.7652
817.007	40.7596
817.057	40.8507
817.108	39.8859
817.159	42.1135
817.21	45.3637
817.26	40.7317
817.311	36.6054
817.362	41.2727
817.412	39.1218
817.463	35.0988
817.514	38.7433
817.565	39.138
817.615	37.3856
817.666	38.5462
817.717	39.7023
817.767	38.687
817.818	41.3486
817.869	39.85
817.919	37.9084
817.97	39.2498
818.021	40.9791
818.072	39.4488
818.122	36.9137
818.173	39.8791
818.224	36.7964
818.274	37.8246
818.325	39.9737
818.376	39.0527
818.427	43.256
818.477	41.1891
818.528	38.0685
818.579	42.5654
818.629	40.5984
818.68	38.9711
818.731	38.0659
818.781	36.3357
818.806	33.8705
818.857	38.3968
818.908	32.7209
818.959	36.4311
819.01	38.3026
819.06	40.806
819.111	27.1792
819.162	39.0789
819.213	37.978
819.264	41.8062
819.315	36.2749
819.365	42.6432
819.416	38.7358
819.467	37.5628
819.518	36.3788
819.569	42.4731
819.619	39.4166
819.67	40.0936
819.721	34.289
819.772	38.2337
819.823	37.0833
819.873	38.922
819.924	35.7678
819.975	39.0176
820.026	37.503
820.077	40.9807
820.127	37.7556
820.178	39.8049
820.229	35.1565
820.28	38.6892
820.331	36.0453
820.381	38.3625
820.432	33.9528
820.483	37.9723
820.534	32.8672
820.585	37.9914
820.635	36.7927
820.686	30.5866
820.737	36.0156
820.788	37.7777
820.839	38.6733
820.889	34.7317
820.94	39.4926
820.991	41.5306
821.042	36.1931
821.092	36.966
821.143	35.1667
821.194	39.8579
821.245	35.6281
821.296	39.4469
821.346	38.0082
821.397	35.208
821.448	36.1038
821.499	32.4452
821.549	34.6988
821.6	35.9669
821.651	34.8745
821.702	34.6134
821.753	38.6718
821.803	35.9243
821.854	36.5206
821.905	33.4994
821.956	36.5294
822.006	40.0072
822.057	33.8285
822.108	30.5445
822.159	40.245
822.21	34.811
822.26	36.9223
822.311	32.6562
822.362	35.025
822.413	36.9725
822.463	36.7526
822.514	30.6441
822.565	38.0749
822.616	34.8966
822.667	39.113
822.717	30.6225
822.768	40.8896
822.819	40.181
822.87	38.7715
822.92	33.0787
822.971	38.2313
823.022	36.9981
823.073	37.4861
823.123	33.6171
823.174	39.4617
823.225	36.3646
823.276	37.8977
823.326	35.2582
823.377	37.2526
823.428	38.0253
823.479	36.438
823.529	36.0131
823.58	36.1424
823.631	37.0289
823.682	33.2785
823.732	34.422
823.783	36.7692
823.834	36.7518
823.885	37.2787
823.935	36.0759
823.986	35.5899
824.037	36.4927
824.088	34.0406
824.138	33.6888
824.189	36.8663
824.24	33.3548
824.291	37.7644
824.341	32.6961
824.392	36.1333
824.443	38.3232
824.494	32.7416
824.544	32.4286
824.595	38.6826
824.646	38.772
824.697	34.2375
824.747	36.4453
824.798	40.5436
824.849	39.7231
824.9	33.6936
824.95	32.9684
825.001	38.5334
825.052	35.5213
825.103	33.662
825.153	33.2029
825.204	38.3263
825.255	36.8544
825.305	32.0801
825.356	38.1589
825.407	38.2373
825.458	34.3448
825.508	31.4739
825.559	34.4666
825.61	35.9829
825.661	37.2061
825.711	33.6395
825.762	35.6356
825.813	37.08
825.864	33.0735
825.914	30.7917
825.965	33.4057
826.016	33.9336
826.066	33.9718
826.117	33.4087
826.168	35.0392
826.219	38.9323
826.269	36.9783
826.32	34.3615
826.371	39.3699
826.421	36.2378
826.472	35.0878
826.523	33.6115
826.574	36.3905
826.624	39.0401
826.675	35.6823
826.726	33.362
826.776	37.7953
826.827	37.0556
826.878	34.1716
826.929	33.5404
826.979	36.9292
827.03	37.7296
827.081	34.3458
827.131	36.614
827.182	34.9182
827.233	31.6734
827.284	33.2085
827.334	34.7664
827.385	33.5526
827.436	35.9707
827.486	31.1336
827.537	30.2581
827.588	32.7629
827.638	35.1412
827.689	34.8337
827.74	34.0882
827.791	36.4204
827.841	37.7967
827.892	34.1987
827.943	35.7786
827.993	38.6764
828.044	33.3904
828.095	30.7029
828.146	34.7162
828.196	33.6955
828.247	34.0498
828.298	26.7259
828.348	33.1657
828.399	33.3324
828.45	35.3483
828.5	31.6849
828.551	30.2637
828.602	36.5171
828.652	36.8372
828.703	33.5195
828.754	31.7396
828.805	37.2106
828.855	38.6417
828.906	37.6328
828.957	38.6735
829.007	35.0053
829.058	36.149
829.109	32.0253
829.159	34.0466
829.21	36.535
829.261	30.977
829.311	32.4888
829.362	34.8182
829.413	33.3752
829.463	34.1529
829.514	31.2423
829.565	32.7671
829.615	34.6965
829.666	34.6705
829.717	34.5002
829.767	35.1223
829.818	33.8718
829.869	35.4712
829.919	34.6433
829.97	34.1131
830.021	36.3546
830.071	33.8088
830.122	30.5775
830.173	34.752
830.224	37.308
830.274	34.1691
830.325	33.4927
830.376	33.5804
830.426	36.1687
830.477	32.4116
830.528	33.91
830.578	33.4693
830.629	29.2716
830.68	36.0069
830.73	36.2259
830.781	36.2912
830.831	39.0747
830.882	34.655
830.933	35.4602
830.983	40.5773
831.034	36.8984
831.085	33.5754
831.135	31.9119
831.186	30.1698
831.237	35.2088
831.287	35.1918
831.338	33.241
831.389	32.5834
831.439	34.033
831.49	33.6865
831.541	32.2959
831.591	36.6337
831.642	38.9637
831.693	28.4879
831.743	34.6173
831.794	31.6381
831.845	35.0169
831.895	34.989
831.946	34.7499
831.997	33.2346
832.047	39.3422
832.098	33.1787
832.148	33.154
832.199	35.1469
832.25	39.1938
832.3	30.0754
832.351	31.1386
832.402	30.72
832.452	34.2498
832.503	29.5632
832.554	28.6167
832.604	34.6976
832.655	35.0463
832.706	31.273
832.756	29.4418
832.807	31.2025
832.857	35.0027
832.908	30.1832
832.959	28.6614
833.009	31.4514
833.06	34.8978
833.111	33.7915
833.161	31.918
833.212	34.8748
833.263	35.3282
833.313	29.242
833.364	30.9182
833.414	38.6061
833.465	33.7148
833.516	31.213
833.566	33.562
833.617	35.3115
833.668	36.9118
833.718	33.9773
833.769	28.1721
833.819	36.8061
833.87	31.0201
833.921	31.9599
833.971	32.5056
834.022	38.7367
834.073	36.0636
834.123	34.3408
834.174	30.6907
834.224	36.5666
834.275	28.7351
834.326	31.1395
834.376	29.3182
834.427	37.2425
834.477	34.8968
834.528	39.9658
834.579	28.7838
834.629	37.2311
834.68	28.0939
834.73	33.6121
834.781	29.4537
834.832	35.889
834.882	28.5763
834.933	38.2077
834.984	29.2095
835.034	37.9388
835.085	29.8109
835.135	34.4945
835.186	33.4394
835.237	34.663
835.287	32.9168
835.338	32.2351
835.388	30.1013
835.439	37.2993
835.49	35.0192
835.54	31.9804
835.591	30.1578
835.641	40.5456
835.692	36.0915
835.743	33.9009
835.793	30.1025
835.844	32.9542
835.894	31.0989
835.945	34.8628
835.996	29.209
836.046	37.7171
836.097	31.2299
836.099	31.1032
836.15	39.9693
836.201	34.9365
836.251	33.9043
836.302	26.1409
836.353	37.9189
836.404	35.9962
836.454	35.8897
836.505	28.0494
836.556	33.0517
836.606	35.0353
836.657	33.9807
836.708	31.9792
836.758	36.9184
836.809	35.8362
836.86	35.9172
836.911	35.8446
836.961	34.8418
837.012	32.1455
837.063	35.6185
837.113	33.0658
837.164	31.8594
837.215	35.4956
837.265	32.7534
837.316	32.8931
837.367	31.8113
837.418	38.9035
837.468	32.9955
837.519	38.7517
837.57	30.2257
837.62	37.436
837.671	28.0811
837.722	33.7415
837.772	30.2137
837.823	37.7743
837.874	34.3558
837.924	34.8114
837.975	28.2893
838.026	38.4975
838.077	35.3565
838.127	44.1629
838.178	26.4433
838.229	37.4873
838.279	27.8615
838.33	33.9397
838.381	30.666
838.431	31.5753
838.482	35.5676
838.533	40.5124
838.583	29.4525
838.634	36.7519
838.685	32.0574
838.735	35.9544
838.786	32.9358
838.837	33.829
838.888	33.6166
838.938	33.8566
838.989	30.0839
839.04	33.6199
839.09	28.2435
839.141	36.2168
839.192	32.9924
839.242	36.7687
839.293	28.3668
839.344	33.8223
839.394	29.3731
839.445	36.4767
839.496	34.3173
839.546	31.1295
839.597	28.3737
839.648	33.0179
839.698	30.3975
839.749	33.1293
839.8	33.927
839.85	29.0469
839.901	34.1124
839.952	30.1921
840.002	32.6475
840.053	34.1551
840.104	29.7777
840.154	30.7672
840.205	31.8649
840.256	26.3106
840.306	31.9774
840.357	30.4982
840.408	33.6845
840.458	31.7547
840.509	29.9375
840.56	31.3848
840.61	34.4237
840.661	33.0459
840.711	35.3084
840.762	35.7747
840.813	36.4806
840.863	33.8993
840.914	33.0536
840.965	32.3396
841.015	31.5741
841.066	30.0441
841.117	33.5686
841.167	28.0873
841.218	35.164
841.269	25.5949
841.319	28.7523
841.37	30.2639
841.421	35.3343
841.471	31.9571
841.522	33.0229
841.573	34.0406
841.623	36.8174
841.674	30.772
841.724	34.6406
841.775	32.1688
841.826	38.417
841.876	34.684
841.927	33.9552
841.978	30.0505
842.028	34.3094
842.079	32.2329
842.13	33.3025
842.18	27.1071
842.231	34.6011
842.281	30.8084
842.332	34.2818
842.383	27.1104
842.433	32.5502
842.484	32.0069
842.535	35.6169
842.585	27.3309
842.636	34.7886
842.687	33.913
842.737	30.8063
842.788	29.2
842.838	31.766
842.889	26.7584
842.94	33.3356
842.99	28.6369
843.041	29.218
843.092	28.4538
843.142	32.2258
843.193	31.7515
843.243	32.8371
843.294	31.0699
843.345	32.3219
843.395	30.1023
843.446	32.5384
843.497	32.8901
843.547	33.9445
843.598	32.4939
843.648	31.0977
843.699	30.95
843.75	31.1931
843.8	34.1507
843.851	33.2869
843.901	31.7528
843.952	33.5709
844.003	32.5364
844.053	26.7086
844.104	26.8977
844.155	32.2409
844.205	33.8109
844.256	31.9672
844.306	34.7062
844.357	32.3086
844.408	29.3191
844.458	29.0286
844.509	34.5618
844.559	31.788
844.61	33.7687
844.661	29.9883
844.711	29.6942
844.762	31.15
844.812	36.459
844.863	32.4854
844.914	29.5467
844.964	29.5929
845.015	32.9179
845.065	30.7266
845.116	32.3774
845.167	32.6842
845.217	32.3943
845.268	33.923
845.318	32.6591
845.369	27.3265
845.42	27.2361
845.47	32.5329
845.521	34.06
845.571	32.1412
845.622	31.3643
845.673	32.2137
845.723	32.5851
845.774	30.2883
845.824	30.9259
845.875	32.679
845.926	34.3568
845.976	31.5818
846.027	32.8784
846.077	32.3815
846.128	31.7519
846.178	31.2923
846.229	31.1399
846.28	32.0487
846.33	34.1723
846.381	31.6133
846.431	30.4748
846.482	31.0596
846.533	34.8034
846.583	33.408
846.634	28.9966
846.684	30.7811
846.735	33.1668
846.785	28.7629
846.836	32.8006
846.887	32.539
846.937	33.4135
846.988	32.4646
847.038	30.5918
847.089	34.4227
847.139	32.2138
847.19	31.2571
847.241	34.331
847.291	34.4673
847.342	33.3049
847.392	34.0771
847.443	31.137
847.493	33.1745
847.544	34.4384
847.595	35.082
847.645	32.8766
847.696	31.4952
847.746	30.5488
847.797	28.2717
847.847	36.2409
847.898	34.2933
847.948	28.6969
847.999	32.0458
848.05	34.1123
848.1	32.1254
848.151	32.5382
848.201	29.9902
848.252	29.8889
848.302	37.5434
848.353	33.6646
848.404	30.9187
848.454	30.6717
848.505	32.8071
848.555	27.5712
848.606	26.4207
848.656	31.7433
848.707	30.0645
848.757	33.2027
848.808	34.2788
848.859	32.2783
848.909	30.5948
848.96	33.0583
849.01	35.2497
849.061	30.2253
849.111	30.6973
849.162	30.5867
849.212	30.9216
849.263	28.9723
849.313	32.3064
849.364	35.3375
849.414	29.8904
849.465	31.5532
849.516	34.6694
849.566	34.6111
849.617	30.788
849.667	31.8891
849.718	33.0336
849.768	32.8452
849.819	30.9215
849.869	32.0655
849.92	31.0407
849.97	32.4515
850.021	29.1604
850.071	32.4357
850.122	30.5024
850.173	33.1899
850.223	29.2117
850.274	35.0725
850.324	28.9414
850.375	33.284
850.425	26.0333
850.476	30.2617
850.526	30.8705
850.577	31.114
850.627	32.9194
850.678	32.4063
850.728	31.3704
850.779	32.8958
850.829	29.1328
850.88	31.384
850.93	31.7531
850.981	32.8695
851.031	32.4431
851.082	33.3305
851.133	29.9132
851.183	32.4742
851.234	29.8574
851.284	30.2283
851.335	28.7129
851.385	32.3893
851.436	33.7545
851.486	33.9028
851.537	31.7736
851.587	31.8226
851.638	29.0748
851.688	32.5039
851.739	31.6446
851.789	31.3747
851.84	35.3342
851.89	32.4539
851.941	29.58
851.991	29.9943
852.042	30.0107
852.092	32.3467
852.143	32.9354
852.193	32.819
852.244	28.7587
852.294	31.464
852.345	30.3448
852.395	29.6644
852.446	32.441
852.496	30.7546
852.547	30.6725
852.597	33.201
852.648	34.0773
852.698	30.5612
852.749	30.2816
852.799	28.8327
852.85	30.1494
852.9	30.1407
852.951	30.6788
853.001	36.3067
853.052	34.9173
853.102	34.9128
853.153	34.1347
853.203	30.6944
853.254	32.1071
853.304	33.2932
853.355	33.8772
853.405	28.0663
853.443	27.107
853.493	32.9047
853.544	27.8369
853.594	29.31
853.645	25.9149
853.696	32.4864
853.746	29.9881
853.797	29.4492
853.847	31.2083
853.898	32.8866
853.949	31.2844
853.999	30.259
854.05	30.82
854.1	29.7309
854.151	32.2198
854.202	30.0751
854.252	28.4693
854.303	27.9351
854.353	26.4237
854.404	34.8031
854.455	31.2155
854.505	33.3627
854.556	26.9775
854.606	30.4093
854.657	32.9433
854.708	31.9645
854.758	24.7516
854.809	32.2266
854.859	27.3208
854.91	37.4136
854.961	32.56
855.011	27.2959
855.062	25.6838
855.112	32.2517
855.163	27.1158
855.214	27.5926
855.264	28.6305
855.315	31.155
855.365	28.8717
855.416	30.3626
855.466	29.1023
855.517	33.8139
855.568	31.4562
855.618	31.2257
855.669	30.4921
855.719	32.4698
855.77	28.6435
855.821	31.9691
855.871	28.8531
855.922	34.6916
855.972	27.9451
856.023	28.1647
856.073	30.5998
856.124	33.7373
856.175	26.3801
856.225	31.7133
856.276	31.5147
856.326	32.8386
856.377	31.623
856.427	29.4662
856.478	34.6049
856.529	33.1153
856.579	30.5428
856.63	25.417
856.68	30.3564
856.731	29.1574
856.781	34.2326
856.832	30.2829
856.883	35.258
856.933	28.5963
856.984	33.4575
857.034	27.6933
857.085	34.7313
857.135	26.8667
857.186	32.7992
857.237	34.1981
857.287	33.6717
857.338	28.0078
857.388	35.271
857.439	27.846
857.489	34.0654
857.54	30.399
857.59	34.7371
857.641	27.9627
857.692	32.4034
857.742	28.0478
857.793	31.9084
857.843	32.2593
857.894	30.0387
857.944	30.8177
857.995	36.7154
858.045	27.8743
858.096	31.1131
858.147	29.0891
858.197	29.2073
858.248	25.2083
858.298	31.2276
858.349	28.0328
858.399	32.1402
858.45	29.5623
858.5	31.0259
858.551	24.3878
858.601	30.2458
858.652	28.2228
858.703	30.5531
858.753	29.4932
858.804	34.5299
858.854	31.8843
858.905	34.1436
858.955	27.2914
859.006	28.9443
859.056	29.5544
859.107	33.5167
859.157	32.4746
859.208	28.8584
859.258	29.3405
859.309	31.2287
859.36	29.2408
859.41	29.5831
859.461	28.2945
859.511	33.1409
859.562	30.5398
859.612	33.2158
859.663	28.3506
859.713	33.3476
859.764	25.879
859.814	31.7509
859.865	31.7656
859.915	29.7823
859.966	31.4056
860.016	31.7767
860.067	32.5275
860.117	32.0052
860.168	29.9969
860.219	33.4634
860.269	31.6569
860.32	26.0649
860.37	33.5721
860.421	31.0626
860.471	33.3012
860.522	25.9969
860.572	31.5448
860.623	31.6955
860.673	29.3277
860.724	27.5005
860.774	30.2594
860.825	23.8812
860.875	33.1959
860.926	29.0379
860.976	28.8743
861.027	30.4475
861.077	33.0788
861.128	32.3276
861.178	31.7405
861.229	28.5254
861.279	31.8735
861.33	28.0593
861.38	30.4767
861.431	26.2322
861.481	31.9978
861.532	25.8722
861.582	32.246
861.633	26.1133
861.683	33.8885
861.734	27.9417
861.784	35.3931
861.835	34.2649
861.885	35.5732
861.936	27.2609
861.986	29.8453
862.037	34.2409
862.087	32.5616
862.138	28.3863
862.188	33.725
862.239	24.3255
862.289	31.6419
862.34	29.0604
862.39	32.382
862.441	28.9876
862.491	32.2449
862.542	30.894
862.592	38.558
862.643	27.9226
862.693	33.0325
862.744	31.1028
862.794	30.0474
862.845	27.6141
862.895	31.5141
862.946	31.0347
862.996	35.7735
863.047	28.5439
863.097	31.6316
863.148	24.5344
863.198	31.6444
863.249	33.6319
863.299	35.2668
863.35	33.1199
863.4	30.7263
863.451	23.7963
863.501	29.5717
863.552	28.198
863.602	28.3037
863.653	31.0799
863.703	33.2217
863.754	30.5926
863.804	29.5795
863.854	37.7133
863.905	31.0158
863.955	26.8961
864.006	28.8428
864.056	27.6565
864.107	30.1879
864.157	31.291
864.208	29.6816
864.258	30.4698
864.309	30.951
864.359	32.6269
864.41	31.6557
864.46	30.3498
864.511	31.6736
864.561	29.8776
864.612	30.3812
864.662	32.4217
864.712	30.2663
864.763	33.1778
864.813	29.3141
864.864	31.1697
864.914	26.8257
864.965	33.7224
865.015	27.6696
865.066	31.2206
865.116	31.9988
865.167	34.5045
865.217	29.4907
865.268	30.4128
865.318	26.9108
865.368	32.2661
865.419	28.596
865.469	29.595
865.52	29.6581
865.57	33.9838
865.621	26.6481
865.671	34.4164
865.722	28.407
865.772	28.5507
865.823	29.7552
865.873	33.916
865.923	28.227
865.974	32.5028
866.024	27.4427
866.075	33.0915
866.125	27.9401
866.176	29.4582
866.226	30.0052
866.276	27.2175
866.327	30.806
866.377	34.1073
866.428	26.981
866.478	29.7136
866.529	28.9771
866.579	30.6566
866.63	30.1416
866.68	32.8994
866.73	27.8495
866.781	29.8049
866.831	26.1674
866.882	31.2297
866.932	27.6974
866.983	31.3129
867.033	32.858
867.083	33.5018
867.134	34.4925
867.184	27.996
867.235	28.7583
867.285	27.709
867.336	23.9579
867.386	28.2593
867.436	28.9742
867.487	33.0978
867.537	30.8318
867.588	31.2598
867.638	27.8257
867.689	28.9489
867.739	28.9276
867.789	32.972
867.84	32.6424
867.89	30.4235
867.941	31.0162
867.991	30.1216
868.042	31.0173
868.092	26.6112
868.142	30.0805
868.193	29.017
868.243	32.4139
868.294	34.5572
868.344	29.7844
868.394	30.1729
868.445	31.9574
868.495	29.1487
868.546	30.821
868.596	30.8707
868.647	27.9355
868.697	31.4485
868.747	31.3025
868.798	30.75
868.848	28.6366
868.899	31.2414
868.949	31.536
868.999	31.8746
869.05	31.9657
869.1	35.7794
869.151	33.2839
869.201	29.9863
869.251	28.4228
869.302	33.5009
869.352	32.3275
869.403	28.8366
869.453	32.5339
869.503	29.649
869.554	30.0305
869.604	29.7781
869.655	25.2917
869.705	29.596
869.755	30.7722
869.806	33.1769
869.856	28.4936
869.907	31.5289
869.957	28.1894
870.007	29.1675
870.058	32.7288
870.108	33.5097
870.159	33.313
870.209	29.1787
870.259	29.0982
870.31	25.9451
870.36	27.9745
870.41	30.95
870.461	30.9452
870.511	31.2222
870.562	32.2083
870.612	27.2039
870.662	27.0495
870.713	28.5301
870.731	28.5682
870.782	27.4399
870.832	30.648
870.883	31.5398
870.933	27.0525
870.984	30.3232
871.034	26.4318
871.085	32.3133
871.135	33.6909
871.186	30.3035
871.236	27.7669
871.287	32.5825
871.337	34.8709
871.388	30.1192
871.438	30.5052
871.489	30.5522
871.539	30.0934
871.59	31.3928
871.64	28.0048
871.691	29.7257
871.741	30.5445
871.792	33.1019
871.842	29.6934
871.893	31.6494
871.943	32.0558
871.994	35.0541
872.044	30.1787
872.095	26.2825
872.145	34.7301
872.196	32.4975
872.246	31.0984
872.297	30.0755
872.347	30.5416
872.397	29.3044
872.448	31.4542
872.498	28.6512
872.549	30.8599
872.599	28.9771
872.65	33.0849
872.7	31.1516
872.751	32.6931
872.801	29.3879
872.852	31.5825
872.902	26.6658
872.953	27.9208
873.003	29.8819
873.054	34.283
873.104	28.6276
873.155	31.3601
873.205	26.4019
873.256	29.9979
873.306	29.2018
873.357	26.7889
873.407	31.3267
873.458	31.1811
873.508	30.6363
873.558	29.7245
873.609	30.022
873.659	31.0525
873.71	33.1661
873.76	31.2411
873.811	31.7407
873.861	29.1031
873.912	29.8758
873.962	30.0895
874.013	30.1466
874.063	33.6629
874.114	31.8102
874.164	29.7476
874.215	30.1916
874.265	32.6219
874.315	30.5396
874.366	30.7506
874.416	26.4013
874.467	34.8012
874.517	30.4181
874.568	31.26
874.618	30.6884
874.669	32.4029
874.719	27.9333
874.77	32.293
874.82	28.7696
874.87	32.9218
874.921	34.6036
874.971	29.1853
875.022	29.7337
875.072	29.9937
875.123	29.8744
875.173	28.4971
875.224	25.0885
875.274	31.8341
875.324	29.6762
875.375	30.0804
875.425	30.4973
875.476	31.4168
875.526	26.1841
875.577	27.6284
875.627	30.7278
875.678	31.909
875.728	29.4934
875.779	34.99
875.829	28.9689
875.879	29.429
875.93	28.7323
875.98	28.4132
876.031	29.2333
876.081	30.2233
876.132	29.8098
876.182	29.2143
876.232	31.14
876.283	29.9214
876.333	25.4812
876.384	28.6297
876.434	32.0294
876.485	31.7636
876.535	31.2396
876.585	29.3263
876.636	35.617
876.686	31.2188
876.737	25.3681
876.787	30.9347
876.838	34.165
876.888	32.5183
876.938	29.3715
876.989	27.1582
877.039	31.5729
877.09	30.4494
877.14	27.9035
877.191	29.3235
877.241	34.7144
877.291	27.5785
877.342	27.5145
877.392	27.1178
877.443	31.926
877.493	30.3416
877.544	33.408
877.594	23.9995
877.644	35.3085
877.695	30.532
877.745	31.3726
877.796	29.664
877.846	32.4624
877.896	27.9176
877.947	31.4918
877.997	27.744
878.048	30.777
878.098	27.2372
878.148	32.5994
878.199	25.6503
878.249	33.0676
878.3	26.7791
878.35	26.68
878.4	28.2864
878.451	32.8813
878.501	27.8861
878.552	32.8473
878.602	28.0448
878.653	28.5552
878.703	26.8126
878.753	27.9495
878.804	25.9902
878.854	34.6019
878.904	25.2209
878.955	31.0951
879.005	30.4307
879.056	31.0609
879.106	31.8297
879.156	32.4199
879.207	25.4156
879.257	27.0593
879.308	22.9931
879.358	33.9875
879.408	32.0521
879.459	34.4271
879.509	24.744
879.56	30.4487
879.61	30.9669
879.66	32.7465
879.711	29.0896
879.761	28.5503
879.812	28.2013
879.862	29.4923
879.912	29.9313
879.963	29.2678
880.013	28.1075
880.063	31.4589
880.114	29.037
880.164	28.7035
880.215	31.4966
880.265	33.7971
880.315	25.7149
880.366	26.661
880.416	24.8433
880.467	29.5822
880.517	29.1471
880.567	31.1887
880.618	28.0593
880.668	28.5709
880.718	31.8855
880.769	31.5893
880.819	30.3834
880.87	27.0998
880.92	29.183
880.97	30.433
881.021	34.1716
881.071	28.8052
881.121	32.0719
881.172	26.2363
881.222	31.1916
881.273	29.5832
881.323	32.1684
881.373	30.5063
881.424	34.1685
881.474	30.5581
881.524	28.2259
881.575	29.0271
881.625	28.7283
881.675	26.4479
881.726	28.7864
881.776	31.9017
881.826	31.3965
881.877	32.1905
881.927	32.1528
881.978	28.1089
882.028	31.774
882.078	30.0134
882.129	27.7108
882.179	28.3983
882.229	30.7942
882.28	26.8968
882.33	30.8214
882.38	26.6985
882.431	29.312
882.481	27.351
882.531	29.3799
882.582	29.8015
882.632	32.2671
882.682	25.9322
882.733	28.9462
882.783	30.0888
882.834	30.8935
882.884	27.5283
882.934	34.2895
882.985	30.2414
883.035	35.0963
883.085	28.2663
883.136	30.1544
883.186	31.7711
883.236	34.5219
883.287	31.6023
883.337	28.3764
883.387	28.5122
883.438	28.6096
883.488	25.2535
883.538	27.2098
883.589	30.8046
883.639	30.9738
883.689	27.6247
883.74	29.6647
883.79	30.9411
883.84	30.0958
883.891	28.5432
883.941	31.2727
883.991	32.589
884.042	32.6493
884.092	30.2259
884.142	28.9179
884.193	30.9798
884.243	33.1837
884.293	31.0611
884.344	25.1986
884.394	28.4904
884.444	27.6206
884.495	27.1356
884.545	27.2404
884.595	33.2484
884.646	29.6448
884.696	27.9749
884.746	26.8235
884.797	30.1397
884.847	27.5387
884.897	27.5867
884.947	29.4001
884.998	34.6084
885.048	28.6914
885.098	27.0727
885.149	29.1802
885.199	30.3581
885.249	27.9757
885.3	29.1629
885.35	30.3251
885.4	32.3878
885.451	26.8395
885.501	29.9818
885.551	31.9209
885.602	31.7496
885.652	33.0728
885.702	31.2383
885.752	30.9389
885.803	31.1098
885.853	28.3912
885.903	27.9428
885.954	27.4246
886.004	28.1018
886.054	25.0078
886.105	27.2059
886.155	31.5133
886.205	30.4593
886.255	29.0351
886.306	29.4961
886.356	30.444
886.406	29.2199
886.457	30.4224
886.507	30.2247
886.557	32.8964
886.608	34.2502
886.658	28.8399
886.708	29.6754
886.758	36.2548
886.809	33.3051
886.859	30.165
886.909	29.5707
886.96	31.1004
887.01	31.9989
887.06	29.5102
887.11	25.8243
887.161	29.2126
887.211	31.5247
887.261	32.3396
887.312	24.4537
887.362	27.3423
887.412	29.5586
887.462	27.7807
887.513	28.2914
887.563	32.1682
887.613	30.8228
887.664	29.535
887.714	27.9914
887.764	31.8395
887.814	30.9232
887.865	29.3345
887.915	29.0874
887.965	31.815
887.987	31.3866
888.038	25.9937
888.088	25.6415
888.138	29.0074
888.189	28.3666
888.239	29.5357
888.289	27.0414
888.34	28.9316
888.39	33.6205
888.441	26.0213
888.491	28.3905
888.542	27.6863
888.592	31.6704
888.642	26.9651
888.693	29.8701
888.743	28.067
888.793	33.0349
888.844	30.8845
888.894	30.2765
888.945	27.1171
888.995	27.6927
889.045	28.7467
889.096	31.3189
889.146	33.8854
889.197	33.8544
889.247	25.9438
889.297	30.328
889.348	28.5331
889.398	33.206
889.448	25.8127
889.499	33.3083
889.549	30.1585
889.6	32.8801
889.65	29.0976
889.7	30.7176
889.751	33.339
889.801	32.2559
889.851	25.5611
889.902	28.9828
889.952	28.1286
890.003	26.3159
890.053	28.6103
890.103	30.0501
890.154	30.7704
890.204	34.0979
890.254	26.1707
890.305	21.9637
890.355	26.4784
890.406	28.9871
890.456	27.2309
890.506	22.9369
890.557	33.0721
890.607	28.722
890.657	31.1296
890.708	26.9677
890.758	33.4455
890.808	31.3826
890.859	26.7648
890.909	28.6287
890.96	30.8594
891.01	28.2474
891.06	24.3298
891.111	23.383
891.161	30.3274
891.211	29.0304
891.262	27.4416
891.312	27.8192
891.362	32.5722
891.413	27.8127
891.463	28.3385
891.513	26.4817
891.564	32.2962
891.614	26.7466
891.665	30.2463
891.715	34.2427
891.765	34.5051
891.816	27.779
891.866	33.585
891.916	30.0226
891.967	30.926
892.017	23.6519
892.067	30.8526
892.118	33.1177
892.168	33.9072
892.218	25.6627
892.269	27.0327
892.319	30.7168
892.369	31.8427
892.42	24.9869
892.47	24.6814
892.52	30.3984
892.571	33.8977
892.621	23.9121
892.671	27.5059
892.722	30.3529
892.772	30.6835
892.822	26.0765
892.873	27.1709
892.923	28.3052
892.973	32.5032
893.024	27.8524
893.074	28.6065
893.124	30.3516
893.175	26.4183
893.225	27.1185
893.275	27.3634
893.326	31.2483
893.376	31.1523
893.426	26.3514
893.477	28.5319
893.527	30.8569
893.577	28.4592
893.628	28.2248
893.678	28.5812
893.728	29.2538
893.779	29.5903
893.829	25.3893
893.879	28.2274
893.93	31.364
893.98	29.464
894.03	26.925
894.081	25.8545
894.131	30.4715
894.181	28.6725
894.232	27.7625
894.282	28.0811
894.332	32.2808
894.383	29.4578
894.433	28.7513
894.483	26.5788
894.533	29.362
894.584	23.0824
894.634	22.4302
894.684	29.6292
894.735	31.3002
894.785	29.3405
894.835	28.2066
894.886	26.7934
894.936	30.8588
894.986	26.7399
895.037	28.9671
895.087	30.635
895.137	32.7499
895.188	27.7552
895.238	30.0891
895.288	27.644
895.338	30.11
895.389	28.0526
895.439	25.5988
895.489	29.2962
895.54	33.9697
895.59	24.9825
895.64	24.4853
895.69	29.185
895.741	30.1404
895.791	28.5333
895.841	26.5818
895.892	29.9374
895.942	30.3675
895.992	26.2536
896.043	26.8596
896.093	29.7726
896.143	30.6348
896.193	28.8174
896.244	27.4914
896.294	29.2022
896.344	34.8663
896.395	26.2917
896.445	24.5099
896.495	27.5652
896.545	30.4019
896.596	27.3086
896.646	26.437
896.696	31.1824
896.747	31.736
896.797	24.5431
896.847	26.8158
896.897	30.4312
896.948	28.7303
896.998	28.436
897.048	26.5451
897.099	33.1461
897.149	30.7771
897.199	26.904
897.249	27.1395
897.3	33.5499
897.35	28.5558
897.4	26.7706
897.451	26.575
897.501	30.8499
897.551	29.5307
897.601	29.4404
897.652	26.5258
897.702	34.1908
897.752	30.1055
897.802	30.1271
897.853	24.0158
897.903	30.5256
897.953	28.1027
898.003	27.6194
898.054	27.7039
898.104	31.9015
898.154	27.0798
898.204	25.7496
898.255	26.3051
898.305	29.5283
898.355	27.6465
898.406	28.0035
898.456	31.1348
898.506	34.6647
898.556	26.5757
898.607	26.295
898.657	23.7598
898.707	32
898.757	27.4631
898.808	28.0311
898.858	27.9147
898.908	32.663
898.958	26.1463
899.009	25.5543
899.059	27.3163
899.109	32.6398
899.159	29.9018
899.21	22.7003
899.26	27.5502
899.31	32.3008
899.36	27.1173
899.411	25.3652
899.461	28.1094
899.511	27.7636
899.561	30.9188
899.612	29.2505
899.662	26.9349
899.712	30.5131
899.762	28.5175
899.813	23.5462
899.863	32.5732
899.913	31.8601
899.963	33.3333
