#Acq. time (s)=	2
#Accumulations=	3
#Range (nm)=	520...900
#Windows=	24
#Auto scanning=	On
#Autofocus=	Off
#AutoExposure=	Off
#Spike filter=	Multiple accum.
#Delay time (s)=	0
#Binning=	1
#Readout mode=	Signal
#DeNoise=	Off
#ICS correction=	Off
#Dark correction=	Off
#Inst. Process=	Off
#Detector temperature (°C)=	-59.98
#Instrument=	LabRAM HR Evol
#Detector=	Syncerity OE
#Objective=	x50_VIS
#Grating=	600 (500nm)
#ND Filter=	25%
#Laser=	514nm_Edge
#Hole=	199.981
#Range=	Auto
#StageXY=	Marzhauser
#StageZ=	Marzhauser
#X (µm)=	-1795.9
#Y (µm)=	1818.9
#Z (µm)=	13.8
#Full time(mm:ss)=	2:44
#Project=	
#Sample=	
#Site=	
#Title=	Amostra branca
#Remark=	
#Date=	22.02.2024 10:55
#Acquired=	22.02.2024 10:55:42
520.013	39.8306
520.065	41.3977
520.117	42.1049
520.17	41.2564
520.222	36.2074
520.274	40.6574
520.327	39.0831
520.379	39.2471
520.431	40.8415
520.483	36.5976
520.536	37.1616
520.588	40.481
520.64	41.9153
520.693	39.3426
520.745	38.6449
520.797	40.0124
520.85	42.2145
520.902	36.8111
520.954	42.9841
521.007	42.4087
521.059	43.8569
521.111	38.4762
521.163	40.7344
521.216	39.99
521.268	41.1385
521.32	36.396
521.373	42.3326
521.425	43.6583
521.477	42.8405
521.529	39.7436
521.582	38.4279
521.634	38.7515
521.686	43.6352
521.739	40.7148
521.791	48.3733
521.843	41.7685
521.896	41.0511
521.948	38.1583
522	41.8937
522.052	41.6583
522.105	45.3908
522.157	35.5147
522.209	41.9519
522.262	40.0259
522.314	40.5624
522.366	39.4361
522.418	41.0007
522.471	38.9928
522.523	42.6265
522.575	41.1007
522.628	42.1323
522.68	38.3017
522.732	38.2874
522.784	41.1704
522.837	40.7505
522.889	42.3767
522.941	44.1738
522.994	43.8768
523.046	42.7977
523.098	46.0426
523.15	42.0064
523.203	38.2787
523.255	40.9156
523.307	46.116
523.36	41.1477
523.412	40.312
523.464	45.296
523.516	41.459
523.569	41.2516
523.621	37.825
523.673	44.0726
523.726	37.9962
523.778	36.656
523.83	43.824
523.882	38.1783
523.935	42.2495
523.987	43.2875
524.039	44.4152
524.091	46.278
524.144	40.5222
524.196	41.8681
524.248	41.2446
524.301	41.3333
524.353	44.6427
524.405	41.4278
524.457	40.7683
524.51	42.3851
524.562	40.8596
524.614	40.2377
524.666	41.3333
524.719	38.8269
524.771	42.3667
524.823	40.3089
524.875	45.877
524.928	45.3617
524.98	39.1189
525.032	43.352
525.085	42.3297
525.137	38.8444
525.189	39.1647
525.241	38.6441
525.294	41.8522
525.346	43.1181
525.398	42.5111
525.45	42.8695
525.503	42.1531
525.555	43.335
525.607	39.7543
525.659	42.1039
525.712	43.3291
525.764	42.9092
525.816	40.2929
525.868	38.1925
525.921	43.2119
525.973	44.3525
526.025	42.1279
526.077	43.8162
526.13	42.9114
526.182	43.5918
526.234	42.3193
526.286	39.8377
526.339	43.453
526.391	45.2415
526.443	44.4483
526.495	41.519
526.548	43.2651
526.6	44.0337
526.652	42.6636
526.704	46.4413
526.757	44.9506
526.809	43.7277
526.861	41.9171
526.913	43.0331
526.966	44.0318
527.018	46.7521
527.07	42.1528
527.122	45.5074
527.175	44.8022
527.227	45.1973
527.279	44.5061
527.331	42.9578
527.384	42.6667
527.436	48.9166
527.488	41.0567
527.54	43.2213
527.593	44.9104
527.645	45.843
527.697	44.8571
527.749	46.7384
527.802	42.9254
527.854	43.094
527.906	45.4097
527.958	49.151
528.011	48.4613
528.063	43.839
528.115	45.7841
528.167	48.4881
528.219	47.4076
528.272	42.8568
528.324	44.1955
528.376	45.0435
528.428	47.1528
528.481	45.8848
528.533	46.1349
528.585	47.0503
528.637	43.8078
528.69	45.6724
528.742	43.4379
528.794	44.6241
528.846	47.2366
528.898	42.6627
528.951	44.3251
529.003	44.9334
529.055	41.8586
529.107	46.4256
529.16	44.3174
529.212	46.3108
529.264	47.2206
529.316	45.2001
529.369	44.3726
529.421	44.2008
529.473	44.9861
529.525	45.0537
529.577	41.9353
529.63	46.725
529.682	42.6331
529.734	40.8828
529.786	43.0237
529.839	47.0735
529.891	44.4777
529.943	41.6906
529.995	43.847
530.047	43.0806
530.1	42.3268
530.152	45.4528
530.204	46.758
530.256	43.2272
530.308	44.5088
530.361	42.8085
530.413	41.085
530.465	47.3923
530.517	45.3917
530.57	45.2413
530.622	46.2989
530.674	49.5305
530.726	46.1257
530.778	45.1771
530.831	42.845
530.883	43.9034
530.935	42.2691
530.987	44.2692
531.039	47.8963
531.092	49.6265
531.144	48.4101
531.196	44.4414
531.248	47.8274
531.3	45.8574
531.353	45.312
531.405	44.6421
531.457	45.4067
531.509	45.0702
531.561	45.8358
531.614	49.6439
531.666	50.5215
531.718	44.3821
531.77	39.3627
531.822	42.0452
531.875	46.6942
531.927	47.4632
531.979	39.9945
532.031	42.0101
532.083	46.4179
532.136	47.1892
532.188	47.1496
532.24	48.8041
532.292	46.3744
532.344	52.3589
532.397	44.6313
532.449	44.8231
532.501	48.7731
532.553	45.9186
532.605	42.3413
532.658	46.7963
532.71	43.0529
532.762	46.8323
532.814	46.367
532.866	49.0897
532.919	46.0601
532.971	47.793
533.023	42.4403
533.075	46.6641
533.127	45.7111
533.179	46.9991
533.232	49.4176
533.284	49.7549
533.336	49.726
533.388	47.7472
533.44	46.0871
533.493	48.7295
533.545	51.9222
533.597	45.8037
533.649	46.2793
533.701	51.2932
533.753	44.639
533.806	46.9924
533.858	42.7189
533.91	46.8411
533.962	48.7454
534.014	50.0755
534.067	52.6609
534.119	49.3586
534.171	47.143
534.223	50.1695
534.275	47.0208
534.327	49.5391
534.38	50.579
534.432	49.6007
534.484	49.4634
534.536	49.8638
534.588	48.4716
534.641	50.566
534.693	50.4556
534.745	50.8773
534.797	45.4418
534.849	45.9035
534.901	51.2067
534.953	51.6386
535.006	51.3513
535.058	45.6867
535.11	52.6045
535.162	51.7854
535.214	51.2054
535.267	47.6844
535.319	54.7218
535.371	53.4529
535.423	51.0264
535.475	50.3755
535.527	51.1094
535.58	50.9109
535.632	50.6591
535.684	50.4337
535.736	53.1092
535.788	54.2718
535.84	52.9101
535.892	48.5082
535.945	52.902
535.997	45.8373
536.049	53.6071
536.101	53.8583
536.153	51.5995
536.205	56.3022
536.258	56.8139
536.31	52.4001
536.362	52.4325
536.414	53.6576
536.466	52.7082
536.518	49.406
536.57	56.6863
536.623	49.6827
536.675	51.7432
536.727	50.1854
536.779	55.186
536.831	56.5527
536.883	52.0302
536.936	53.7779
536.988	56.9072
537.04	52.8788
537.092	54.8573
537.144	53.2463
537.196	57.7793
537.248	55.2689
537.301	51.8934
537.353	56.803
537.405	51.3653
537.457	55.8604
537.509	56.1636
537.561	54.911
537.613	61.6753
537.666	56.0755
537.718	58.4442
537.77	57.6006
537.778	57.2722
537.831	56.2983
537.883	55.4404
537.935	53.007
537.987	55.0525
538.04	50.6632
538.092	53.9844
538.144	53.4254
538.196	57.6961
538.249	54.2499
538.301	53.261
538.353	52.015
538.405	55.717
538.457	59.9605
538.51	57.1288
538.562	53.714
538.614	54.1404
538.666	57.7408
538.719	61.2825
538.771	50.6058
538.823	59.5566
538.875	57.626
538.927	49.8235
538.98	53.5552
539.032	61.5989
539.084	58.7661
539.136	59.4257
539.189	49.9464
539.241	57.7182
539.293	56.8598
539.345	63.1375
539.397	56.5463
539.45	58.8604
539.502	48.6132
539.554	56.001
539.606	53.8338
539.659	58.4127
539.711	53.3451
539.763	62.0801
539.815	57.3291
539.867	62.5309
539.92	60.309
539.972	57.9318
540.024	58.7436
540.076	63.2492
540.128	55.2682
540.181	63.4484
540.233	58.3012
540.285	52.8727
540.337	59.9528
540.39	61.5322
540.442	59.6025
540.494	61.9969
540.546	58.4563
540.598	58.7884
540.651	52.8724
540.703	59.9419
540.755	53.9969
540.807	61.2538
540.859	61.4613
540.912	63.5394
540.964	62.445
541.016	61.8375
541.068	58.3529
541.12	58.9986
541.173	60.733
541.225	62.6585
541.277	61.7
541.329	56.001
541.381	62.7926
541.434	54.553
541.486	60.6927
541.538	62.7328
541.59	60.7314
541.642	63.5879
541.695	62.787
541.747	60.7918
541.799	58.9346
541.851	54.1677
541.903	61.0048
541.956	59.493
542.008	56.0636
542.06	61.9777
542.112	60.7084
542.164	61.7002
542.217	66.2811
542.269	61.9831
542.321	62.8425
542.373	59.4185
542.425	57.2289
542.478	63.9703
542.53	66.6547
542.582	69.9558
542.634	60.6624
542.686	65.0157
542.738	60.3869
542.791	64.2672
542.843	59.7579
542.895	63.7391
542.947	59.4599
542.999	61.3055
543.052	61.0685
543.104	58.5369
543.156	63.8855
543.208	60.9546
543.26	65.551
543.313	67.5182
543.365	67.4248
543.417	60.7392
543.469	67.7455
543.521	63.6028
543.573	69.9198
543.626	61.4814
543.678	67.5961
543.73	69.7132
543.782	66.8772
543.834	57.8628
543.886	57.1965
543.939	61.1358
543.991	67.8804
544.043	62.5718
544.095	69.4713
544.147	67.7584
544.2	65.1526
544.252	66.2379
544.304	68.0796
544.356	67.5406
544.408	67.5042
544.46	63.8059
544.513	63.8841
544.565	69.4015
544.617	68.5175
544.669	64.7328
544.721	69.4324
544.773	63.8677
544.826	68.152
544.878	68.9133
544.93	66.636
544.982	71.8826
545.034	70.888
545.086	63.9594
545.139	62.7565
545.191	71.9618
545.243	62.8086
545.295	68.9729
545.347	67.936
545.399	73.3203
545.452	71.1184
545.504	68.1561
545.556	66.2446
545.608	69.1771
545.66	68.4583
545.712	75.0369
545.765	70.6745
545.817	74.362
545.869	69.2125
545.921	71.1927
545.973	70.6478
546.025	73.3673
546.077	74.2103
546.13	77.0439
546.182	70.5682
546.234	77.4999
546.286	72.6625
546.338	76.9972
546.39	70.6955
546.443	70.3598
546.495	67.5722
546.547	75.6923
546.599	72.821
546.651	72.9381
546.703	68.4787
546.755	75.2507
546.808	69.3931
546.86	74.1919
546.912	70.272
546.964	76.7018
547.016	72.8376
547.068	72.939
547.12	79.2323
547.173	78.3863
547.225	80.3063
547.277	71.7925
547.329	70.6119
547.381	79.5719
547.433	80.8441
547.485	77.4142
547.538	77.8559
547.59	78.5125
547.642	81.5872
547.694	81.4517
547.746	73.7251
547.798	69.8166
547.85	79.1162
547.903	76.4872
547.955	78.9564
548.007	77.0023
548.059	80.7785
548.111	77.2515
548.163	78.6628
548.215	73.9646
548.268	80.2035
548.32	77.054
548.372	72.38
548.424	78.1529
548.476	82.4359
548.528	85.1158
548.58	78.1242
548.633	82.7211
548.685	74.2974
548.737	76.3634
548.789	81.8938
548.841	80.8803
548.893	82.7412
548.945	80.6096
548.997	80.5148
549.049	84.774
549.102	84.7289
549.154	82.4035
549.206	91.9548
549.258	88.5425
549.31	91.0959
549.362	83.5991
549.414	83.5586
549.467	87.739
549.519	88.559
549.571	87.2965
549.623	92.2268
549.675	88.4517
549.727	93.2993
549.779	94.4708
549.831	81.6671
549.883	89.7092
549.936	94.2092
549.988	92.6671
550.04	94.205
550.092	98.2413
550.144	97.2324
550.196	98.0847
550.248	105.294
550.3	102.96
550.353	109.311
550.405	102.191
550.457	106.991
550.509	102.558
550.561	108.755
550.613	106.123
550.665	104.596
550.717	111.322
550.769	116.526
550.822	105.429
550.874	105.023
550.926	107.189
550.978	113.071
551.03	108.424
551.082	107.522
551.134	113.545
551.186	122.064
551.238	115.481
551.291	117.202
551.343	123.274
551.395	119.274
551.447	120.942
551.499	118.864
551.551	132.513
551.603	142.298
551.655	147.821
551.707	141.815
551.759	145.604
551.812	156.738
551.864	170.01
551.916	179.004
551.968	193.859
552.02	196.044
552.072	214.325
552.124	238.885
552.176	276.066
552.228	311.555
552.28	385.043
552.332	492.144
552.385	707.951
552.437	1378.17
552.489	3135.13
552.541	5999.81
552.593	10719.4
552.645	17449.7
552.697	21957.4
552.749	18277.3
552.801	10388.3
552.853	4499.16
552.905	1748.74
552.958	840.437
553.01	543.286
553.062	399.587
553.114	326.034
553.166	270.246
553.218	241.051
553.27	218.185
553.322	196.323
553.374	176.256
553.426	165.113
553.478	161.01
553.531	151.649
553.583	140.947
553.635	137.803
553.687	136.93
553.739	128.484
553.791	125.076
553.843	125.304
553.895	121.943
553.947	126.528
553.999	118.891
554.051	122.351
554.103	121.41
554.155	116.524
554.208	113.198
554.26	116.945
554.312	113.8
554.364	107.248
554.416	102.588
554.468	108.688
554.52	108.368
554.572	104.665
554.624	108.194
554.676	105.453
554.728	112.849
554.78	114.334
554.832	112.927
554.884	108.42
554.937	110.075
554.989	109.879
555.041	107.83
555.093	107.962
555.145	108.684
555.197	105.212
555.249	106.038
555.301	106.749
555.353	102.967
555.405	105.256
555.457	109.884
555.509	104.908
555.529	101.05
555.582	109.889
555.634	103.071
555.686	108.859
555.738	105.028
555.79	106.935
555.842	102.305
555.895	113.721
555.947	106.167
555.999	112.165
556.051	93.934
556.103	112.65
556.155	95.6061
556.207	114.424
556.26	107.431
556.312	113.822
556.364	108.222
556.416	101.322
556.468	106.924
556.52	107.133
556.573	116.958
556.625	110.245
556.677	105.912
556.729	116.696
556.781	117.176
556.833	107.582
556.885	100.506
556.938	114.639
556.99	115.32
557.042	113.514
557.094	103.942
557.146	109.243
557.198	113.778
557.25	115.039
557.302	109.457
557.355	112.894
557.407	112.983
557.459	119.37
557.511	109.101
557.563	121.715
557.615	108.061
557.667	108.586
557.72	107.008
557.772	117.371
557.824	115.121
557.876	114.139
557.928	114.171
557.98	117.843
558.032	119.839
558.085	118.071
558.137	121.158
558.189	115.687
558.241	113.794
558.293	108.358
558.345	112.559
558.397	116.507
558.449	114.711
558.502	110.114
558.554	115.062
558.606	114.575
558.658	118.97
558.71	123.349
558.762	117.84
558.814	118.395
558.866	114.114
558.919	125.092
558.971	125.527
559.023	120.393
559.075	110.876
559.127	122.197
559.179	114.84
559.231	122.595
559.283	121.257
559.336	117.393
559.388	130.751
559.44	118.531
559.492	123.184
559.544	118.393
559.596	120.647
559.648	114.709
559.7	124.496
559.753	119.096
559.805	126.258
559.857	126.781
559.909	130.275
559.961	124.438
560.013	127.058
560.065	119.637
560.117	126.302
560.169	124.691
560.222	132.944
560.274	120.571
560.326	126.966
560.378	126.82
560.43	134.755
560.482	132.078
560.534	135.752
560.586	126.643
560.638	117.697
560.69	127.081
560.743	132.696
560.795	125.304
560.847	130.461
560.899	115.954
560.951	128.919
561.003	137.182
561.055	140.095
561.107	135.759
561.159	141.216
561.212	136.834
561.264	128.936
561.316	135.734
561.368	137.979
561.42	137.556
561.472	131.436
561.524	133.584
561.576	134.902
561.628	139.912
561.68	140.541
561.733	137.991
561.785	145.039
561.837	139.779
561.889	136.601
561.941	132.667
561.993	136.777
562.045	138.096
562.097	139.424
562.149	133.473
562.201	148.48
562.253	130.648
562.306	147.059
562.358	145.498
562.41	139.835
562.462	139.957
562.514	141.244
562.566	141.964
562.618	141.328
562.67	141.546
562.722	147.675
562.774	146.477
562.826	149.328
562.879	150.859
562.931	151.126
562.983	145.315
563.035	144.115
563.087	145.745
563.139	149.667
563.191	149.533
563.243	149.079
563.295	148.066
563.347	145.425
563.399	145.777
563.451	143.681
563.504	144.865
563.556	150.137
563.608	147.378
563.66	151.166
563.712	148.635
563.764	142.371
563.816	154.202
563.868	159.018
563.92	154.924
563.972	149.506
564.024	149.51
564.076	156.947
564.128	154.492
564.181	153.308
564.233	154.91
564.285	149.979
564.337	153.519
564.389	152.16
564.441	158.737
564.493	157.194
564.545	155.537
564.597	158.157
564.649	163.505
564.701	155.311
564.753	162.587
564.805	155.196
564.857	160.293
564.909	161.776
564.962	162.629
565.014	158.716
565.066	163.194
565.118	162.415
565.17	169.983
565.222	162.361
565.274	165.574
565.326	162.329
565.378	163.419
565.43	160.734
565.482	166.429
565.534	171.29
565.586	173.346
565.638	174.02
565.69	173.06
565.742	166.015
565.795	162.283
565.847	169.045
565.899	169.309
565.951	175.476
566.003	167.728
566.055	165.387
566.107	170.232
566.159	170.688
566.211	169.845
566.263	175.777
566.315	172.273
566.367	172.44
566.419	169.24
566.471	169.864
566.523	170.995
566.575	173.417
566.627	175.128
566.679	176.865
566.732	181.674
566.784	182.13
566.836	181.472
566.888	175.363
566.94	176.226
566.992	176.395
567.044	176.15
567.096	180.736
567.148	185.099
567.2	181.348
567.252	183.128
567.304	182.39
567.356	183.256
567.408	185.371
567.46	179.422
567.512	180.797
567.564	180.712
567.616	189.215
567.668	186.691
567.72	182.736
567.772	187.521
567.824	187.955
567.876	184.079
567.928	187.211
567.98	193.581
568.033	198.18
568.085	186.4
568.137	186.845
568.189	191.817
568.241	193.238
568.293	193.423
568.345	196.161
568.397	195.399
568.449	187.516
568.501	189.191
568.553	185.384
568.605	190.12
568.657	194.198
568.709	195.045
568.761	199.179
568.813	197.176
568.865	197.147
568.917	197.252
568.969	200.227
569.021	199.553
569.073	194.743
569.125	197.627
569.177	199.532
569.229	200.083
569.281	195.952
569.333	192.32
569.385	194.768
569.437	199.104
569.489	203.087
569.541	199.966
569.593	199.827
569.645	201.79
569.697	202.578
569.749	206.253
569.801	210.753
569.853	211.424
569.905	208.988
569.957	207.813
570.009	204.567
570.061	212.567
570.113	215.322
570.165	206.277
570.217	206.664
570.269	211.714
570.321	213.612
570.374	212.83
570.426	222.232
570.478	221.999
570.53	216.114
570.582	216.955
570.634	220.073
570.686	228.003
570.738	224.658
570.79	226.901
570.842	231.418
570.894	225.972
570.946	222.196
570.998	227.936
571.05	233.23
571.102	232.603
571.154	239.614
571.206	234.85
571.258	231.143
571.31	239.819
571.362	242.489
571.414	243.012
571.466	245.679
571.518	242.521
571.57	249.069
571.622	246.443
571.674	249.156
571.726	248.772
571.778	257.558
571.83	256.373
571.882	256.821
571.934	259.744
571.986	261.239
572.038	264.793
572.09	267.643
572.142	262.956
572.194	270.255
572.246	272.531
572.298	280.232
572.349	282.006
572.401	286.854
572.453	284.038
572.505	293.092
572.557	294.549
572.609	300.134
572.661	301.687
572.713	302.912
572.765	306.065
572.817	301.764
572.869	302.824
572.921	322.175
572.973	317.889
573.025	327.546
573.077	320.709
573.129	331.166
573.181	320.342
573.212	318.591
573.264	325.077
573.316	333.843
573.368	348.138
573.421	348.213
573.473	343.493
573.525	357.986
573.577	353.832
573.629	361.92
573.681	358.747
573.733	386.485
573.785	375.702
573.837	375.039
573.889	386.849
573.941	383.506
573.993	397.619
574.045	394.8
574.097	409.952
574.15	413.025
574.202	409.13
574.254	409.108
574.306	420.786
574.358	419.529
574.41	436.621
574.462	429.436
574.514	455.949
574.566	450.65
574.618	460.326
574.67	467.002
574.722	475.389
574.774	472.82
574.826	485.524
574.878	487.992
574.931	494.938
574.983	502.519
575.035	508.805
575.087	521.732
575.139	528.414
575.191	531.047
575.243	539.749
575.295	534.307
575.347	552.518
575.399	547.289
575.451	546.355
575.503	559.188
575.555	570.024
575.607	546.662
575.659	547.266
575.711	570.6
575.763	570.595
575.815	581.418
575.868	578.001
575.92	580.623
575.972	584.986
576.024	565.147
576.076	575.268
576.128	555.486
576.18	560.481
576.232	562.214
576.284	550.752
576.336	550.172
576.388	557.306
576.44	555.572
576.492	543.536
576.544	545.548
576.596	537.629
576.648	537.768
576.7	549.793
576.752	537.671
576.804	525.216
576.856	518.35
576.909	519.702
576.961	503.225
577.013	501.129
577.065	497.255
577.117	497.779
577.169	489.49
577.221	486.361
577.273	492.525
577.325	481.653
577.377	460.388
577.429	465.83
577.481	465.34
577.533	456.721
577.585	458.902
577.637	436.977
577.689	438.001
577.741	434.45
577.793	429.749
577.845	440.054
577.897	447.222
577.949	433.053
578.001	419.642
578.053	424.529
578.105	416.055
578.157	410.609
578.209	406.932
578.261	420.36
578.313	414.056
578.365	409.676
578.417	421.615
578.469	412.36
578.522	403.372
578.574	402.926
578.626	407.689
578.678	409.887
578.73	408.029
578.782	392.348
578.834	393.79
578.886	406.427
578.938	409.322
578.99	390.229
579.042	399.038
579.094	405.605
579.146	401.188
579.198	392.279
579.25	401.69
579.302	406.029
579.354	402.179
579.406	399.277
579.458	406.634
579.51	388.981
579.562	385.942
579.614	396.704
579.666	394.862
579.718	405.013
579.77	403.142
579.822	398.327
579.874	401.179
579.926	396.755
579.978	392.923
580.03	391.684
580.082	400.09
580.134	398.218
580.186	396.373
580.238	389.872
580.29	385.184
580.342	402.026
580.394	404.77
580.446	392.435
580.498	402.846
580.55	402.692
580.602	399.324
580.654	399.801
580.706	399.811
580.758	400.868
580.81	397.983
580.862	400.771
580.914	412.993
580.966	401.443
581.018	404.083
581.07	403.318
581.122	409.319
581.174	400.654
581.226	402.008
581.278	414.276
581.33	416.137
581.382	406.308
581.434	410.623
581.486	411.152
581.538	424.338
581.59	423.05
581.642	412.203
581.694	413.65
581.746	426.522
581.798	426.11
581.85	418.82
581.902	411.594
581.954	412.151
582.006	421.104
582.058	419.431
582.11	426.083
582.162	420.921
582.214	427.465
582.266	430.065
582.318	426.39
582.37	433.353
582.422	435.159
582.474	433.943
582.526	425.527
582.578	429.208
582.63	433.789
582.682	439.647
582.734	440.246
582.786	434.749
582.838	435.627
582.89	438.511
582.942	435.803
582.994	441.058
583.046	434.85
583.098	432.623
583.15	440.19
583.202	446.028
583.254	453.221
583.306	444.218
583.358	441.189
583.41	448.506
583.462	457.142
583.514	453.571
583.566	461.846
583.618	463.273
583.67	455.943
583.721	459.748
583.773	461.835
583.825	457.259
583.877	464.063
583.929	467.456
583.981	469.663
584.033	469.601
584.085	466.989
584.137	470.807
584.189	465.657
584.241	470.256
584.293	480.091
584.345	478.182
584.397	488.856
584.449	493.767
584.501	486.464
584.553	473.815
584.605	483.662
584.657	489.196
584.709	487.48
584.761	493.117
584.813	495.195
584.865	494.62
584.917	492.232
584.969	493.611
585.021	505.336
585.073	507.509
585.125	510.073
585.177	508.189
585.229	512.2
585.281	517.852
585.332	520.506
585.384	516.159
585.436	510.052
585.488	510.657
585.54	509.855
585.592	519.762
585.644	521.781
585.696	520.861
585.748	526.3
585.8	535.295
585.852	540.066
585.904	537.753
585.956	525.421
586.008	518.156
586.06	533.118
586.112	541.465
586.164	537.117
586.216	535.375
586.268	544.488
586.32	547.944
586.371	542.677
586.423	545.546
586.475	543.667
586.527	544.843
586.579	544.437
586.631	552.177
586.683	552.869
586.735	551.275
586.787	559.017
586.839	551.033
586.891	566.824
586.943	562.066
586.995	554.556
587.047	555.959
587.099	559.687
587.151	554.669
587.203	552.205
587.255	557.654
587.306	566.052
587.358	564.692
587.41	562.127
587.462	563.63
587.514	572.044
587.566	571.785
587.618	567.267
587.67	577.842
587.722	575.204
587.774	565.117
587.826	565.431
587.878	580.133
587.93	588.596
587.982	584.676
588.034	567.793
588.085	571.935
588.137	592.95
588.189	579.679
588.241	578.242
588.293	571.008
588.345	585.86
588.397	599.102
588.449	589.377
588.501	586.216
588.553	589.994
588.605	572.801
588.657	578.906
588.709	589.696
588.76	601.613
588.812	594.457
588.864	600.267
588.916	596.878
588.968	605.152
589.02	595.271
589.072	605.471
589.124	608.008
589.176	615.557
589.228	603.313
589.28	614.702
589.332	619.222
589.383	630.453
589.435	615.823
589.487	613.766
589.539	606.018
589.591	606.997
589.643	618.867
589.695	622.833
589.747	625.999
589.799	636.267
589.851	615.468
589.903	622.114
589.955	626.217
590.006	610.148
590.058	606.482
590.11	605.708
590.162	610.981
590.214	598.479
590.266	617.884
590.318	612.479
590.37	606.157
590.422	609.553
590.474	612.448
590.525	608.017
590.577	613.266
590.629	600.278
590.681	615.599
590.733	604.051
590.785	599.49
590.837	601.843
590.889	600.796
590.932	599.985
590.984	590.122
591.036	594.923
591.088	578.067
591.14	578.858
591.192	594.679
591.244	599.823
591.296	581.012
591.348	601.148
591.4	579.635
591.452	581.85
591.504	573.432
591.556	573.981
591.608	563.327
591.66	575.682
591.712	567.802
591.764	550.822
591.816	578.297
591.868	580.261
591.92	566.771
591.972	560.961
592.024	570.65
592.076	564.185
592.128	579.549
592.18	574.48
592.232	577.414
592.284	562.701
592.336	558.187
592.388	560.422
592.44	571.662
592.492	571.241
592.544	559.762
592.596	565.543
592.648	565.544
592.7	573.558
592.752	558.085
592.804	584.065
592.856	563.31
592.908	565.923
592.96	559.324
593.012	565.36
593.064	567.518
593.116	573.174
593.168	560.954
593.22	563.412
593.272	573.425
593.324	579.276
593.376	580.804
593.428	570.636
593.479	582.639
593.531	575.9
593.583	581.202
593.635	587.744
593.687	572.209
593.739	576.447
593.791	572.765
593.843	574.097
593.895	565.512
593.947	570.806
593.999	562.71
594.051	569.951
594.103	570.592
594.155	567.382
594.207	568.647
594.259	571.951
594.311	568.01
594.363	571.828
594.415	574.9
594.467	584.772
594.519	601.415
594.571	594.368
594.623	571.178
594.675	580.27
594.727	575.273
594.779	578.475
594.831	582.43
594.883	590.605
594.935	593.413
594.986	588.053
595.038	583.128
595.09	595.662
595.142	582.592
595.194	581.813
595.246	575.938
595.298	575.43
595.35	593.849
595.402	596.936
595.454	588.637
595.506	598.395
595.558	590.144
595.61	598.576
595.662	604.281
595.714	589.98
595.766	611.288
595.818	596.942
595.87	605.646
595.922	601.841
595.974	604.807
596.026	597.734
596.077	618.296
596.129	622.61
596.181	616.825
596.233	626.825
596.285	615.917
596.337	626.929
596.389	628.782
596.441	627.169
596.493	639.4
596.545	643.541
596.597	641.705
596.649	658.571
596.701	647.434
596.753	665.578
596.805	659.788
596.857	646.684
596.909	643.5
596.96	642.96
597.012	645.138
597.064	627.096
597.116	626.336
597.168	624.458
597.22	628.672
597.272	618.155
597.324	622.58
597.376	623.557
597.428	616.768
597.48	624.943
597.532	621.426
597.584	626.856
597.636	630.489
597.688	620.87
597.739	618.199
597.791	628.995
597.843	637.161
597.895	632.405
597.947	639.231
597.999	632.202
598.051	634.01
598.103	624.353
598.155	630.29
598.207	628.659
598.259	631.428
598.311	630.402
598.363	629.792
598.414	625.884
598.466	628.703
598.518	621.939
598.57	615.799
598.622	628.171
598.674	618.361
598.726	615.668
598.778	624.17
598.83	633.595
598.882	627.315
598.934	623.29
598.986	610.665
599.037	630.061
599.089	629.618
599.141	614.45
599.193	607.457
599.245	606.517
599.297	630.062
599.349	623.286
599.401	616.666
599.453	623.068
599.505	605.582
599.557	616.718
599.609	627.986
599.66	628.552
599.712	615.543
599.764	619.42
599.816	626.699
599.868	624.863
599.92	618.473
599.972	628.311
600.024	618.567
600.076	617.508
600.128	623.63
600.18	616.833
600.231	625.245
600.283	624.015
600.335	630.878
600.387	626.315
600.439	617.268
600.491	609.954
600.543	621.379
600.595	628.502
600.647	628.007
600.699	619.461
600.75	617.556
600.802	623.214
600.854	627.713
600.906	629.567
600.958	617.841
601.01	620.394
601.062	618.568
601.114	615.932
601.166	608.448
601.217	615.578
601.269	615.761
601.321	607.535
601.373	606.734
601.425	608.481
601.477	611.922
601.529	617.261
601.581	619.701
601.633	625.934
601.685	621.699
601.736	612.785
601.788	627.831
601.84	623.119
601.892	621.726
601.944	615.979
601.996	621.623
602.048	629.357
602.1	636.282
602.151	637.712
602.203	615.977
602.255	616.966
602.307	626.483
602.359	624.937
602.411	626.621
602.463	633.076
602.515	631.393
602.567	634.498
602.618	636.31
602.67	624.067
602.722	636.063
602.774	624.128
602.826	628.218
602.878	628.095
602.93	644.433
602.982	636.43
603.033	634.738
603.085	641.071
603.137	647.305
603.189	642.345
603.241	642.938
603.293	643.407
603.345	645.745
603.396	641.942
603.448	642.147
603.5	644.623
603.552	641.444
603.604	630.011
603.656	648.725
603.708	659.308
603.76	650.548
603.811	656.443
603.863	644.795
603.915	645.059
603.967	641.753
604.019	651.489
604.071	649.162
604.123	660.151
604.174	655.185
604.226	649.27
604.278	648.824
604.33	657.089
604.382	664.511
604.434	664.436
604.486	658.971
604.538	642.176
604.589	653.209
604.641	659.575
604.693	647.673
604.745	652.085
604.797	675.621
604.849	675.341
604.901	658.207
604.952	649.544
605.004	658.675
605.056	648.226
605.108	644.452
605.16	661.004
605.212	654.484
605.263	652.866
605.315	659.916
605.367	654.79
605.419	643.31
605.471	650.724
605.523	656.963
605.575	652.01
605.626	656.273
605.678	654.087
605.73	662.907
605.782	653.62
605.834	653.794
605.886	650.487
605.938	654.313
605.989	673.567
606.041	661.754
606.093	650.994
606.145	651.228
606.197	654.746
606.249	652.944
606.3	662.999
606.352	649.001
606.404	654.091
606.456	647.401
606.508	648.127
606.56	658.046
606.611	663.004
606.663	657.422
606.715	672.767
606.767	661.653
606.819	658.231
606.871	653.847
606.922	650.36
606.974	658.034
607.026	656.469
607.078	639.184
607.13	646.64
607.182	645.156
607.233	644.298
607.285	652.579
607.337	654.633
607.389	651.439
607.441	653.326
607.493	648.089
607.544	645.065
607.596	648.462
607.648	663.017
607.7	656.378
607.752	650.28
607.803	646.458
607.855	660.663
607.907	654.35
607.959	659.643
608.011	658.541
608.063	663.66
608.114	664.404
608.166	662.718
608.218	666.398
608.27	666.739
608.322	654.292
608.374	655.797
608.425	661.228
608.477	652.313
608.529	659.307
608.56	660.491
608.612	652.464
608.664	659.053
608.716	657.896
608.768	659.818
608.82	665.212
608.872	676.511
608.924	665.042
608.976	663.606
609.027	677.59
609.079	670.607
609.131	673.065
609.183	665.256
609.235	655.583
609.287	666.315
609.339	677.652
609.391	671.371
609.443	670.002
609.495	685.101
609.547	684.404
609.598	684.598
609.65	695.838
609.702	688.351
609.754	693.428
609.806	684.211
609.858	670.674
609.91	687.242
609.962	684.375
610.014	689.819
610.065	702.473
610.117	693.54
610.169	688.643
610.221	691.788
610.273	693.179
610.325	690.696
610.377	691.252
610.429	694.529
610.481	696.144
610.533	683.113
610.584	682.22
610.636	681.05
610.688	690.199
610.74	674.866
610.792	705.853
610.844	686.571
610.896	699.288
610.948	695.503
611	691.398
611.052	695.756
611.103	695.49
611.155	697.189
611.207	695.766
611.259	707.48
611.311	711.638
611.363	710.542
611.415	704.448
611.467	707.553
611.518	701.516
611.57	680.604
611.622	704.135
611.674	697.889
611.726	718.583
611.778	706.369
611.83	694.324
611.882	709.778
611.934	690.096
611.985	689.033
612.037	701.683
612.089	682.062
612.141	717.189
612.193	707.555
612.245	702.98
612.297	718.499
612.349	708.875
612.4	715.216
612.452	697.85
612.504	714.726
612.556	704.284
612.608	708.903
612.66	724.466
612.712	716.538
612.764	705.472
612.815	711.292
612.867	701.953
612.919	705.4
612.971	715.163
613.023	731.417
613.075	706.917
613.127	728.751
613.179	724.212
613.23	703.322
613.282	725.666
613.334	715.624
613.386	720.684
613.438	718.824
613.49	727.688
613.542	726.776
613.594	729.575
613.645	719.066
613.697	719.946
613.749	724.842
613.801	724.452
613.853	737.738
613.905	724.835
613.957	723.135
614.008	737.578
614.06	738.043
614.112	729.342
614.164	728.941
614.216	750.749
614.268	750.796
614.32	736.942
614.371	739.514
614.423	749.17
614.475	747.931
614.527	751.02
614.579	736.939
614.631	752.909
614.683	756.331
614.734	743.85
614.786	731.594
614.838	742.981
614.89	763.581
614.942	754.003
614.994	756.12
615.045	764.548
615.097	746.424
615.149	748.171
615.201	745.962
615.253	744.072
615.305	752.88
615.357	761.498
615.408	754.856
615.46	763.494
615.512	755.861
615.564	757.854
615.616	763.819
615.668	759.7
615.719	773.838
615.771	777.5
615.823	764.767
615.875	781.768
615.927	772.135
615.979	772.559
616.031	776.342
616.082	770.969
616.134	773.745
616.186	790.063
616.238	768.489
616.29	787.299
616.342	785.848
616.393	786.609
616.445	789.165
616.497	792.945
616.549	796.726
616.601	808.767
616.653	807.524
616.704	791.18
616.756	809.22
616.808	801.402
616.86	799.16
616.912	795.682
616.964	820.748
617.015	807.062
617.067	813.249
617.119	802.499
617.171	791.826
617.223	792.679
617.274	808.218
617.326	817.388
617.378	816.279
617.43	813.528
617.482	813.982
617.534	814.173
617.585	813.8
617.637	809.653
617.689	826.763
617.741	802.491
617.793	824.161
617.845	821.511
617.896	826.225
617.948	822.047
618	823.255
618.052	808.94
618.104	796.02
618.155	822.577
618.207	821.127
618.259	818.679
618.311	846.419
618.363	825.793
618.415	823.179
618.466	832.727
618.518	824.975
618.57	823.733
618.622	816.625
618.674	821.02
618.725	835.117
618.777	845.656
618.829	823.305
618.881	826.992
618.933	846.384
618.984	828.024
619.036	833.386
619.088	840.743
619.14	841.646
619.192	832.647
619.244	843.821
619.295	823.42
619.347	818.42
619.399	816.739
619.451	822.301
619.503	837.88
619.554	849.112
619.606	845.571
619.658	823.851
619.71	827.486
619.762	829.309
619.813	841.078
619.865	854.507
619.917	854.391
619.969	842.492
620.021	847.073
620.072	850.049
620.124	849.351
620.176	838.171
620.228	842.565
620.279	849.573
620.331	832.759
620.383	851.362
620.435	836.648
620.487	848.173
620.538	836.027
620.59	828.955
620.642	852.315
620.694	841.546
620.746	841.009
620.797	845.203
620.849	842.293
620.901	822.027
620.953	835.287
621.005	845.585
621.056	858.625
621.108	841.496
621.16	851.45
621.212	854.391
621.263	853.92
621.315	843.638
621.367	849.897
621.419	855.686
621.471	840.635
621.522	836.325
621.574	857.615
621.626	855.432
621.678	853.384
621.729	850.739
621.781	859.82
621.833	844.62
621.885	846.799
621.937	851.217
621.988	856.872
622.04	842.698
622.092	842.616
622.144	847.941
622.195	851.31
622.247	852.096
622.299	838.154
622.351	860.185
622.403	857.435
622.454	844.63
622.506	851.923
622.558	858.745
622.61	860.778
622.661	844.223
622.713	821.425
622.765	836.161
622.817	848.456
622.869	850.786
622.92	862.503
622.972	865.373
623.024	845.307
623.076	842.683
623.127	845.994
623.179	856.306
623.231	854.429
623.283	856.612
623.334	833.753
623.386	844.305
623.438	856.877
623.49	867.59
623.541	857.662
623.593	857.204
623.645	872.807
623.697	857.625
623.748	851.473
623.8	845.573
623.852	842.969
623.904	840.029
623.956	855.904
624.007	861.433
624.059	853.832
624.111	858.789
624.162	837.832
624.214	867.011
624.266	866.92
624.318	855.245
624.37	846.86
624.421	863.62
624.473	866.59
624.525	865.33
624.576	862.438
624.628	838.278
624.68	843.474
624.732	860.959
624.784	861.218
624.835	850.18
624.887	867.71
624.939	864.962
624.99	861.92
625.042	874.32
625.094	854.717
625.146	863.596
625.197	861.835
625.249	873.228
625.301	862.678
625.353	859.198
625.404	875.377
625.456	882.154
625.508	880.387
625.56	873.764
625.611	855.239
625.663	872.013
625.715	867.161
625.767	874.029
625.818	869.733
625.87	866.842
625.922	848.195
625.974	869.492
626.025	861.948
626.077	880.466
626.129	869.279
626.18	873.115
626.197	875.555
626.249	867.573
626.3	884.922
626.352	860.618
626.404	885.28
626.456	866.572
626.508	886.807
626.56	867.466
626.611	869.25
626.663	862.061
626.715	876.625
626.767	889.046
626.819	893.529
626.87	873.684
626.922	885.122
626.974	866.109
627.026	892.354
627.078	896.9
627.13	885.545
627.181	887.917
627.233	870.301
627.285	881.91
627.337	866.907
627.389	879.029
627.44	881.585
627.492	872.981
627.544	894.565
627.596	886.116
627.648	884.445
627.7	876.129
627.751	888.999
627.803	873.131
627.855	878.755
627.907	864.791
627.959	864.655
628.01	887.775
628.062	897.288
628.114	890.036
628.166	886.512
628.218	880.048
628.27	900.787
628.321	894.28
628.373	881.712
628.425	889.51
628.477	895.054
628.529	908.728
628.58	894.201
628.632	895.5
628.684	899.602
628.736	890.201
628.788	880.039
628.839	888.374
628.891	890.987
628.943	879.091
628.995	896.204
629.047	888.179
629.098	893.811
629.15	903.438
629.202	898.646
629.254	908.568
629.306	900.214
629.357	917.002
629.409	919.622
629.461	909.993
629.513	887.987
629.565	919.547
629.616	906.758
629.668	905.477
629.72	888.265
629.772	908.447
629.824	911.215
629.875	904.377
629.927	904.752
629.979	928.707
630.031	914.235
630.083	912.713
630.134	904.94
630.186	912.46
630.238	911.74
630.29	898.161
630.342	902.645
630.393	908.056
630.445	911.608
630.497	928.728
630.549	927.608
630.6	919.378
630.652	902.915
630.704	929.111
630.756	940.446
630.808	923.223
630.859	905.572
630.911	931.37
630.963	935.308
631.015	926.57
631.067	921.839
631.118	926.226
631.17	931.62
631.222	933.061
631.274	931.637
631.325	928.336
631.377	928.385
631.429	941.227
631.481	938.195
631.533	949.779
631.584	944.024
631.636	930.923
631.688	924.539
631.74	935.983
631.791	943.862
631.843	951.578
631.895	936.665
631.947	927.134
631.999	945.419
632.05	951.472
632.102	950.365
632.154	941.823
632.206	960.231
632.257	951.682
632.309	942.222
632.361	944.812
632.413	939.54
632.464	933.615
632.516	933.552
632.568	949.735
632.62	972.162
632.672	956.551
632.723	945.879
632.775	961.607
632.827	954.089
632.879	947.497
632.93	966.449
632.982	956.342
633.034	953.4
633.086	943.885
633.137	958.796
633.189	965.804
633.241	978.068
633.293	958.943
633.344	966.424
633.396	965.928
633.448	974.727
633.5	979.169
633.551	976.506
633.603	970.302
633.655	972.646
633.707	976.375
633.758	979.099
633.81	967.641
633.862	995.639
633.914	970.937
633.965	984.287
634.017	966.597
634.069	974.552
634.121	968.213
634.172	984.912
634.224	974.426
634.276	979.095
634.328	998.992
634.379	986.884
634.431	989.427
634.483	994.137
634.535	998.922
634.586	985.996
634.638	993.532
634.69	986.325
634.742	1011.03
634.793	1013.28
634.845	1011.77
634.897	1019.08
634.949	1023.17
635	1019.68
635.052	1008.78
635.104	1013.76
635.156	1024.48
635.207	1014.52
635.259	1023.98
635.311	1024.66
635.363	1027.34
635.414	1048.25
635.466	1039.81
635.518	1053.4
635.57	1042.86
635.621	1048.67
635.673	1049.97
635.725	1056.79
635.776	1052.39
635.828	1051.18
635.88	1048.55
635.932	1066.67
635.983	1063.58
636.035	1073.7
636.087	1074.07
636.139	1076.78
636.19	1071.13
636.242	1102.48
636.294	1099.37
636.345	1087.78
636.397	1101.52
636.449	1121.29
636.501	1118.55
636.552	1115.09
636.604	1124.05
636.656	1140.62
636.708	1136.81
636.759	1136.09
636.811	1146.03
636.863	1141.84
636.914	1159.25
636.966	1182.5
637.018	1152.61
637.07	1166.28
637.121	1178.23
637.173	1185.52
637.225	1191.96
637.276	1208.27
637.328	1217.98
637.38	1215.91
637.432	1214.48
637.483	1230.14
637.535	1244.99
637.587	1233.93
637.638	1253.37
637.69	1259.37
637.742	1255.49
637.794	1253.88
637.845	1227.79
637.897	1296.41
637.949	1266.91
638	1271.84
638.052	1270.37
638.104	1271.64
638.156	1277.93
638.207	1282.06
638.259	1280.66
638.311	1284
638.362	1249
638.414	1256.68
638.466	1266.53
638.517	1266.33
638.569	1269.03
638.621	1273.26
638.673	1275.52
638.724	1247.86
638.776	1256.5
638.828	1249.49
638.879	1240.26
638.931	1257.64
638.983	1245.32
639.034	1247.16
639.086	1227.58
639.138	1228.87
639.19	1225.72
639.241	1230.77
639.293	1225.09
639.345	1228.08
639.396	1215.45
639.448	1221.28
639.5	1200.65
639.551	1207.87
639.603	1205.44
639.655	1161.86
639.706	1191.65
639.758	1191.11
639.81	1187.08
639.862	1173.06
639.913	1156.68
639.965	1169.73
640.017	1172.78
640.068	1172.04
640.12	1186.48
640.172	1184.78
640.223	1162.59
640.275	1170.72
640.327	1186.87
640.378	1176.86
640.43	1155.92
640.482	1127.88
640.533	1152.36
640.585	1141.59
640.637	1162.37
640.688	1132.9
640.74	1137.06
640.792	1166.05
640.844	1158.17
640.895	1136.5
640.947	1145.34
640.999	1125.06
641.05	1137.47
641.102	1134.72
641.154	1147.11
641.205	1136.51
641.257	1135.08
641.309	1147.4
641.36	1158.13
641.412	1161.35
641.464	1138.5
641.515	1127.75
641.567	1137.79
641.619	1126.16
641.67	1124.2
641.722	1130.7
641.774	1115.54
641.825	1133.27
641.877	1131.77
641.929	1129.83
641.98	1119.22
642.032	1134.2
642.084	1121.69
642.135	1129.67
642.187	1142.8
642.239	1131.98
642.29	1102.04
642.342	1111.69
642.394	1127.1
642.445	1128.62
642.497	1112.58
642.549	1123.61
642.6	1145.51
642.652	1109.95
642.704	1131.3
642.755	1104.01
642.807	1100.95
642.859	1125.87
642.91	1120.56
642.962	1136
643.013	1129.03
643.065	1117.7
643.117	1116
643.168	1120.99
643.22	1140.67
643.272	1126.03
643.323	1128.48
643.375	1117.7
643.427	1143.53
643.478	1133.34
643.53	1134.93
643.582	1114.19
643.633	1125.89
643.685	1164.11
643.737	1144.12
643.788	1151.77
643.84	1132.48
643.891	1134.8
643.898	1134.82
643.949	1113.51
644.001	1151.07
644.053	1152.81
644.105	1147.9
644.156	1136.14
644.208	1156.48
644.26	1133.99
644.312	1130.8
644.363	1125.85
644.415	1137.54
644.467	1122.54
644.519	1151.06
644.57	1144.83
644.622	1142.48
644.674	1131.21
644.726	1152.22
644.777	1147.96
644.829	1146.89
644.881	1128.33
644.932	1147.44
644.984	1140.43
645.036	1139.96
645.088	1147.12
645.139	1160.52
645.191	1144.04
645.243	1157.46
645.295	1146.16
645.346	1148.77
645.398	1147.39
645.45	1151.99
645.502	1172.31
645.553	1143.63
645.605	1151.53
645.657	1175.3
645.708	1158.37
645.76	1139.36
645.812	1137.1
645.864	1146.16
645.915	1167.57
645.967	1162.16
646.019	1154.67
646.071	1165.58
646.122	1168.77
646.174	1157.71
646.226	1164.76
646.277	1154.09
646.329	1171.49
646.381	1164.15
646.433	1159.92
646.484	1171.29
646.536	1156.02
646.588	1164.71
646.639	1144.81
646.691	1155.18
646.743	1154.85
646.795	1164.38
646.846	1154.31
646.898	1184.54
646.95	1171.96
647.001	1147.85
647.053	1150.36
647.105	1180.24
647.157	1168.69
647.208	1166.33
647.26	1180.8
647.312	1159.83
647.363	1158.76
647.415	1151.47
647.467	1169.98
647.519	1181.13
647.57	1159.72
647.622	1175.96
647.674	1157.68
647.725	1179.35
647.777	1150.97
647.829	1192.47
647.881	1202.09
647.932	1190.05
647.984	1155.3
648.036	1171.58
648.087	1177.86
648.139	1193.95
648.191	1178.12
648.242	1177.67
648.294	1200.57
648.346	1190.76
648.398	1196.85
648.449	1179.86
648.501	1198.67
648.553	1198.5
648.604	1208
648.656	1183.33
648.708	1206.4
648.759	1185.38
648.811	1176.54
648.863	1193.63
648.914	1203.62
648.966	1185.48
649.018	1193.51
649.07	1198.33
649.121	1188.41
649.173	1198.96
649.225	1207.35
649.276	1212.67
649.328	1204.19
649.38	1217.6
649.431	1195.92
649.483	1197.51
649.535	1172.57
649.586	1203.46
649.638	1206.66
649.69	1211.11
649.742	1208.86
649.793	1220.6
649.845	1215.37
649.897	1193.07
649.948	1209.97
650	1196.94
650.052	1220.88
650.103	1210.03
650.155	1225.04
650.207	1236.11
650.258	1215.83
650.31	1222.93
650.362	1232.32
650.413	1209.9
650.465	1215.39
650.517	1223.84
650.568	1256.2
650.62	1241.3
650.672	1224.16
650.723	1217.99
650.775	1231.42
650.827	1247.25
650.878	1219.4
650.93	1249.59
650.982	1247.46
651.034	1238.39
651.085	1227.17
651.137	1244.68
651.189	1247.47
651.24	1245.77
651.292	1227.01
651.344	1251.41
651.395	1235.93
651.447	1239.01
651.499	1236.62
651.55	1244.35
651.602	1237.02
651.654	1252.95
651.705	1244.46
651.757	1234.8
651.809	1262.09
651.86	1267.85
651.912	1242.55
651.964	1222.13
652.015	1251.94
652.067	1258.69
652.118	1221.01
652.17	1264.25
652.222	1254.58
652.273	1261.6
652.325	1273.29
652.377	1291.14
652.428	1256.04
652.48	1275.91
652.532	1265.16
652.583	1267.18
652.635	1274.86
652.687	1270.59
652.738	1280.99
652.79	1282.01
652.842	1282.99
652.893	1262.34
652.945	1267.97
652.997	1295.07
653.048	1289.6
653.1	1268.12
653.152	1263.5
653.203	1292.1
653.255	1301.78
653.307	1288.91
653.358	1282.24
653.41	1297.94
653.461	1266.31
653.513	1284.65
653.565	1275.53
653.616	1290.74
653.668	1306.86
653.72	1309.8
653.771	1276.44
653.823	1268.7
653.875	1307.6
653.926	1291.42
653.978	1294.23
654.029	1281.74
654.081	1313.51
654.133	1297.2
654.184	1320.22
654.236	1311.54
654.288	1293.14
654.339	1321.68
654.391	1309.14
654.443	1315.63
654.494	1309.84
654.546	1306.87
654.597	1311.08
654.649	1309.84
654.701	1307.8
654.752	1327.01
654.804	1325.7
654.856	1331.19
654.907	1331.18
654.959	1329.25
655.01	1353.91
655.062	1342.67
655.114	1342.65
655.165	1339.84
655.217	1350.13
655.269	1324.59
655.32	1345.7
655.372	1338.48
655.424	1332.17
655.475	1348.37
655.527	1355.98
655.578	1352.39
655.63	1363.55
655.682	1368.22
655.733	1376.79
655.785	1362.75
655.836	1367.59
655.888	1364
655.94	1378.16
655.991	1390.66
656.043	1369.08
656.095	1371.99
656.146	1390.02
656.198	1363.26
656.249	1370.87
656.301	1381.58
656.353	1388.8
656.404	1394.3
656.456	1400.76
656.508	1393.53
656.559	1385.51
656.611	1391.01
656.662	1390.65
656.714	1408.5
656.766	1416.93
656.817	1419.64
656.869	1387.63
656.92	1399.31
656.972	1405.74
657.024	1414.52
657.075	1402.21
657.127	1420.72
657.178	1424.42
657.23	1402.45
657.282	1436.65
657.333	1427.44
657.385	1428.41
657.436	1427.73
657.488	1419.96
657.54	1422.97
657.591	1435.05
657.643	1431.79
657.694	1432.99
657.746	1441.04
657.798	1442.43
657.849	1411.35
657.901	1415.57
657.952	1420.1
658.004	1434.19
658.056	1438.8
658.107	1447.29
658.159	1435.67
658.21	1441.94
658.262	1403.43
658.314	1440.65
658.365	1439.05
658.417	1443.36
658.468	1450.07
658.52	1446.54
658.571	1437.28
658.623	1444.47
658.675	1439.34
658.726	1446.2
658.778	1454.09
658.829	1462.53
658.881	1453.04
658.933	1458.57
658.984	1466.06
659.036	1449.62
659.087	1450.23
659.139	1439.49
659.19	1470.57
659.242	1449.09
659.294	1438.91
659.345	1456.98
659.397	1463.29
659.448	1473.09
659.5	1460.73
659.552	1481.34
659.603	1470.09
659.655	1459.58
659.706	1451.04
659.758	1467.25
659.809	1464.8
659.861	1465.59
659.913	1468.65
659.964	1450.06
660.016	1437.84
660.067	1445.09
660.119	1468.25
660.17	1466.5
660.222	1457.13
660.274	1447.99
660.325	1463.16
660.377	1442.38
660.428	1444.85
660.48	1441.77
660.531	1460.45
660.583	1464.7
660.635	1458.81
660.686	1442.17
660.738	1452.26
660.789	1455.08
660.841	1443.22
660.892	1459.35
660.944	1450.96
660.995	1449.78
661.047	1456.67
661.099	1455.06
661.15	1454.41
661.202	1446.33
661.253	1427.91
661.305	1462.05
661.356	1450.93
661.408	1463.16
661.46	1470.67
661.511	1457.53
661.532	1449.99
661.583	1431.69
661.635	1432.81
661.687	1460.88
661.738	1469.21
661.79	1454.18
661.842	1448.5
661.893	1451.61
661.945	1465.27
661.997	1452.05
662.048	1450.4
662.1	1436.07
662.151	1444.47
662.203	1451.25
662.255	1443.88
662.306	1458.19
662.358	1468.02
662.41	1452.17
662.461	1446.55
662.513	1440.74
662.565	1457.95
662.616	1476.36
662.668	1447.87
662.72	1428.7
662.771	1432.15
662.823	1446.5
662.875	1457.58
662.926	1446.07
662.978	1449.29
663.03	1458.27
663.081	1443.54
663.133	1460.81
663.184	1465.7
663.236	1453.78
663.288	1451.68
663.339	1459.42
663.391	1458.63
663.443	1468
663.494	1469.97
663.546	1467.28
663.598	1457.53
663.649	1473.44
663.701	1476.02
663.752	1462.67
663.804	1442.94
663.856	1466.85
663.907	1468.75
663.959	1444.76
664.011	1455.11
664.062	1462.15
664.114	1453.91
664.166	1458.99
664.217	1454.32
664.269	1454.71
664.32	1455.06
664.372	1486.52
664.424	1443.87
664.475	1442.64
664.527	1476.55
664.579	1487.75
664.63	1464.78
664.682	1461.79
664.733	1470.08
664.785	1449.69
664.837	1444.31
664.888	1457.31
664.94	1455.73
664.992	1423.77
665.043	1448.83
665.095	1450.59
665.146	1439.97
665.198	1454.16
665.25	1454.93
665.301	1447.35
665.353	1469.4
665.405	1449.61
665.456	1441.4
665.508	1460.33
665.559	1459.7
665.611	1440.41
665.663	1458.89
665.714	1455.59
665.766	1451.34
665.817	1466.21
665.869	1437
665.921	1447.67
665.972	1422.22
666.024	1430.15
666.076	1444.76
666.127	1457.5
666.179	1439.39
666.23	1432.78
666.282	1446.07
666.334	1455.37
666.385	1443.35
666.437	1411.65
666.488	1447.15
666.54	1442.66
666.592	1466.23
666.643	1436.49
666.695	1433.91
666.746	1428.76
666.798	1455.3
666.85	1448.65
666.901	1440.59
666.953	1468.52
667.004	1454.01
667.056	1434.18
667.108	1443.4
667.159	1424.58
667.211	1428.17
667.262	1448.46
667.314	1442.98
667.366	1440.97
667.417	1426.49
667.469	1455.94
667.52	1430.3
667.572	1427.29
667.624	1436.95
667.675	1446.73
667.727	1432.79
667.778	1445.77
667.83	1452.13
667.882	1453.22
667.933	1451.98
667.985	1435.9
668.036	1443.63
668.088	1446.26
668.14	1464.02
668.191	1445.19
668.243	1447.08
668.294	1432.76
668.346	1437.73
668.397	1405.42
668.449	1441.28
668.501	1438.14
668.552	1424.73
668.604	1429.31
668.655	1436.19
668.707	1428.11
668.759	1443.82
668.81	1450.98
668.862	1427.49
668.913	1427.26
668.965	1437.93
669.016	1455.81
669.068	1431.72
669.12	1454.07
669.171	1442.43
669.223	1432.77
669.274	1432.58
669.326	1429.54
669.377	1422.63
669.429	1436.74
669.481	1428.65
669.532	1429.96
669.584	1412.31
669.635	1435.2
669.687	1435.65
669.738	1406.6
669.79	1433.56
669.842	1426.92
669.893	1441.02
669.945	1421.25
669.996	1418.63
670.048	1413.21
670.099	1442.12
670.151	1453.26
670.203	1428.51
670.254	1444.13
670.306	1443.58
670.357	1453.15
670.409	1436.95
670.46	1458.23
670.512	1430.35
670.564	1415.48
670.615	1437.23
670.667	1406.07
670.718	1454.33
670.77	1433.13
670.821	1435.87
670.873	1418.19
670.924	1408.95
670.976	1436.32
671.028	1425.14
671.079	1442
671.131	1440.84
671.182	1432
671.234	1452.84
671.285	1440.88
671.337	1440.39
671.388	1435.49
671.44	1410.89
671.492	1419.45
671.543	1422.4
671.595	1442.73
671.646	1435.15
671.698	1432.17
671.749	1397.67
671.801	1430.78
671.852	1414.02
671.904	1427.53
671.956	1436.54
672.007	1419.81
672.059	1423.37
672.11	1427.14
672.162	1415.77
672.213	1438.56
672.265	1424.51
672.316	1436.65
672.368	1439.47
672.419	1440.28
672.471	1437.08
672.522	1432.73
672.574	1441.12
672.626	1418.41
672.677	1446.67
672.729	1448.25
672.78	1423.12
672.832	1423.06
672.883	1429.72
672.935	1445.78
672.986	1448.5
673.038	1446.6
673.089	1441.48
673.141	1428.42
673.192	1459.98
673.244	1462.48
673.296	1451.64
673.347	1422.72
673.399	1451.34
673.45	1448.5
673.502	1453.88
673.553	1436.41
673.605	1465.46
673.656	1453.57
673.708	1451.81
673.759	1442.91
673.811	1446.88
673.862	1446.65
673.914	1460.18
673.965	1453.06
674.017	1448.34
674.068	1441.69
674.12	1447
674.171	1470.09
674.223	1453.56
674.275	1464.64
674.326	1456.32
674.378	1441.8
674.429	1459.3
674.481	1459.53
674.532	1466.49
674.584	1450.38
674.635	1459.34
674.687	1480.45
674.738	1470.81
674.79	1455.33
674.841	1455.3
674.893	1455.08
674.944	1467.06
674.996	1474.55
675.047	1459.26
675.099	1470.86
675.15	1462.59
675.202	1461.71
675.253	1493.04
675.305	1488.99
675.356	1476.44
675.408	1474.62
675.459	1488.21
675.511	1467.94
675.562	1466.13
675.614	1477.08
675.665	1485.59
675.717	1494.43
675.768	1483.36
675.82	1488.74
675.871	1495.08
675.923	1486.17
675.974	1481.48
676.026	1485.4
676.077	1504
676.129	1507.58
676.18	1494.8
676.232	1492.62
676.283	1496.75
676.335	1499.21
676.386	1472.9
676.438	1504.5
676.489	1500.57
676.541	1495.04
676.592	1476.53
676.644	1491.1
676.695	1494.54
676.747	1486.06
676.798	1487.52
676.85	1486.4
676.901	1510.6
676.953	1519.93
677.004	1515.69
677.056	1505.13
677.107	1498.2
677.159	1508.03
677.21	1477.85
677.262	1485.17
677.313	1483.82
677.365	1479.14
677.416	1471.35
677.468	1473
677.519	1494.38
677.571	1510.23
677.622	1501.94
677.674	1497.54
677.725	1489.35
677.777	1501.12
677.828	1486.9
677.88	1477.69
677.931	1497.63
677.982	1477.65
678.034	1499.64
678.085	1497.75
678.137	1482.9
678.188	1515.3
678.24	1494.03
678.291	1478.33
678.343	1480.74
678.394	1464.51
678.446	1492.74
678.497	1501.84
678.549	1505.41
678.6	1476.81
678.652	1458.26
678.703	1471.32
678.755	1496.83
678.806	1501.03
678.857	1515.54
678.909	1504.89
678.96	1492.13
679.012	1470.39
679.063	1478.96
679.083	1479.54
679.135	1476.61
679.186	1505.27
679.238	1490.67
679.289	1472.7
679.341	1480.24
679.392	1482.13
679.444	1488.01
679.496	1502.82
679.547	1500.75
679.599	1479.14
679.65	1475.63
679.702	1481.22
679.753	1486.58
679.805	1491.82
679.857	1496.65
679.908	1486.29
679.96	1489.45
680.011	1489.86
680.063	1489.35
680.114	1463.75
680.166	1500.51
680.217	1462.27
680.269	1481.62
680.321	1495.1
680.372	1486.85
680.424	1507.27
680.475	1486.79
680.527	1489.38
680.578	1483.96
680.63	1492.84
680.682	1506.62
680.733	1527.72
680.785	1511.8
680.836	1483.48
680.888	1509.07
680.939	1493.2
680.991	1523.25
681.042	1503.49
681.094	1520.2
681.146	1500.19
681.197	1511.38
681.249	1535.73
681.3	1512.28
681.352	1492.18
681.403	1487.89
681.455	1487.48
681.506	1519.72
681.558	1489.41
681.609	1502.08
681.661	1505.6
681.712	1514.54
681.764	1478.81
681.816	1514.12
681.867	1513.94
681.919	1514.21
681.97	1513.48
682.022	1508.88
682.073	1517.2
682.125	1514.89
682.176	1511.36
682.228	1528.01
682.279	1515.13
682.331	1531.79
682.383	1514.01
682.434	1504.36
682.486	1522.89
682.537	1532.85
682.589	1531.67
682.64	1507.93
682.692	1521.51
682.743	1534.38
682.795	1514.62
682.846	1539.17
682.898	1522.16
682.949	1520.13
683.001	1516.35
683.052	1524.57
683.104	1534.45
683.156	1525.22
683.207	1520.19
683.259	1529.59
683.31	1520.23
683.362	1533.26
683.413	1542.84
683.465	1536.74
683.516	1517.81
683.568	1511.63
683.619	1534.42
683.671	1525.6
683.722	1513.41
683.774	1525.86
683.825	1497.74
683.877	1523.83
683.928	1522.59
683.98	1526.69
684.031	1530.91
684.083	1539.55
684.134	1511.55
684.186	1525.42
684.237	1504.4
684.289	1524.98
684.341	1494.83
684.392	1501.71
684.444	1512
684.495	1511.8
684.547	1519.54
684.598	1513.98
684.65	1484.28
684.701	1495.78
684.753	1475.84
684.804	1502.61
684.856	1503.64
684.907	1510.9
684.959	1506.63
685.01	1499.75
685.062	1499.52
685.113	1507.28
685.165	1496.29
685.216	1475.26
685.268	1486.79
685.319	1502.71
685.371	1509.64
685.422	1503.37
685.474	1502.1
685.525	1487.12
685.577	1511.7
685.628	1526.31
685.68	1499.01
685.731	1508.67
685.783	1504.12
685.834	1490.05
685.886	1475.96
685.937	1495.26
685.989	1511.42
686.04	1470.16
686.092	1476.54
686.143	1470.28
686.195	1479.35
686.246	1483.75
686.298	1483.1
686.349	1481.2
686.401	1499.22
686.452	1474.19
686.504	1486.44
686.555	1495.18
686.607	1475.71
686.658	1517.27
686.71	1478.16
686.761	1490.87
686.813	1483.08
686.864	1464.68
686.916	1512.48
686.967	1486.41
687.018	1483.54
687.07	1469.9
687.121	1474.35
687.173	1469.67
687.224	1491.1
687.276	1476.78
687.327	1502.56
687.379	1469.11
687.43	1473.67
687.482	1459.94
687.533	1452.41
687.585	1461.45
687.636	1453.72
687.688	1453.19
687.739	1472.71
687.791	1467.41
687.842	1447.74
687.894	1499.43
687.945	1462.26
687.997	1475.43
688.048	1465.19
688.1	1444.88
688.151	1475.98
688.203	1472.27
688.254	1454.09
688.305	1474.44
688.357	1482.9
688.408	1477.96
688.46	1456.99
688.511	1471.75
688.563	1460.26
688.614	1455.78
688.666	1494.25
688.717	1485.82
688.769	1465.73
688.82	1450.02
688.872	1453.53
688.923	1467.92
688.974	1448.46
689.026	1495.21
689.077	1457.82
689.129	1450.18
689.18	1459.07
689.232	1458.02
689.283	1476.52
689.335	1456.8
689.386	1476.05
689.438	1456.22
689.489	1440.98
689.541	1471.88
689.592	1462.14
689.643	1467.83
689.695	1457.63
689.746	1470.51
689.798	1442.44
689.849	1447.91
689.901	1442.65
689.952	1447.55
690.004	1461.95
690.055	1440.59
690.107	1439.16
690.158	1446.38
690.209	1443.06
690.261	1453.45
690.312	1450.15
690.364	1453.81
690.415	1444.08
690.467	1459.77
690.518	1432.31
690.57	1432.18
690.621	1423.93
690.672	1457.83
690.724	1447.3
690.775	1445.92
690.827	1449.73
690.878	1426.65
690.93	1448.41
690.981	1434.84
691.033	1449.02
691.084	1435.91
691.135	1441.11
691.187	1439.8
691.238	1425.2
691.29	1426.52
691.341	1423.26
691.393	1431.89
691.444	1437.14
691.495	1428.26
691.547	1410.86
691.598	1433.01
691.65	1438.37
691.701	1437.64
691.753	1433.21
691.804	1436.5
691.856	1415.22
691.907	1423.81
691.958	1433.05
692.01	1418.35
692.061	1419.01
692.113	1408.24
692.164	1413.27
692.216	1418.7
692.267	1421.71
692.318	1420.79
692.37	1435.28
692.421	1414.01
692.473	1407.87
692.524	1427.61
692.576	1405.12
692.627	1397.84
692.678	1410.73
692.73	1417.59
692.781	1413.73
692.833	1402
692.884	1403.84
692.935	1401.69
692.987	1404.42
693.038	1395.76
693.09	1400.28
693.141	1383.91
693.193	1414.65
693.244	1400.74
693.295	1404.06
693.347	1424.05
693.398	1427.85
693.45	1400.96
693.501	1395.11
693.552	1416.49
693.604	1409
693.655	1396.72
693.707	1391.12
693.758	1379.13
693.809	1383.69
693.861	1383.83
693.912	1384.91
693.964	1400.24
694.015	1394.62
694.066	1402.73
694.118	1403.66
694.169	1393.11
694.221	1373.08
694.272	1379.49
694.323	1376.83
694.375	1383.08
694.426	1397.74
694.478	1408.8
694.529	1414.88
694.581	1407.23
694.632	1371.84
694.683	1381.13
694.735	1385.6
694.786	1378.07
694.837	1367.85
694.889	1356.45
694.94	1374.1
694.992	1381.13
695.043	1370.39
695.094	1380.93
695.146	1392.04
695.197	1391.09
695.249	1387.96
695.3	1359.37
695.351	1377.27
695.403	1380.83
695.454	1380.66
695.506	1394.75
695.557	1395.46
695.608	1373.01
695.66	1359.32
695.711	1376.96
695.763	1381.59
695.814	1374.89
695.865	1385.2
695.917	1389.25
695.968	1387.81
696.019	1375.43
696.071	1365.05
696.122	1352.38
696.174	1366.8
696.225	1390.94
696.276	1398.57
696.328	1368.81
696.379	1366.79
696.43	1377.03
696.482	1366.42
696.533	1355.07
696.585	1369.84
696.636	1374.99
696.687	1373.24
696.707	1358.96
696.759	1349.18
696.81	1358.34
696.862	1332.87
696.913	1336.91
696.965	1359.85
697.016	1365.92
697.068	1352.59
697.119	1338.21
697.171	1341.2
697.222	1345.54
697.274	1379.76
697.325	1333.52
697.377	1344.2
697.428	1337.88
697.479	1335.77
697.531	1345.31
697.582	1343.09
697.634	1327.78
697.685	1337.68
697.737	1339.06
697.788	1365.35
697.84	1330.39
697.891	1345.51
697.943	1335.12
697.994	1321.86
698.046	1330.48
698.097	1350.48
698.149	1320.88
698.2	1337.24
698.252	1322.29
698.303	1327.36
698.354	1332.26
698.406	1328.63
698.457	1324.76
698.509	1323.54
698.56	1318.31
698.612	1330.36
698.663	1309.07
698.715	1326.47
698.766	1315.36
698.818	1332.3
698.869	1321.34
698.921	1317.19
698.972	1322.73
699.023	1323.57
699.075	1311.09
699.126	1316.13
699.178	1294.99
699.229	1328.26
699.281	1310.79
699.332	1306.12
699.384	1308.6
699.435	1314.76
699.487	1291.48
699.538	1300.53
699.589	1314.65
699.641	1309.54
699.692	1321.33
699.744	1314
699.795	1293.14
699.847	1290.4
699.898	1296.42
699.95	1292.16
700.001	1309.3
700.052	1308.29
700.104	1314.84
700.155	1294.64
700.207	1278.91
700.258	1305.88
700.31	1301.48
700.361	1282.9
700.413	1299.21
700.464	1288.47
700.515	1288.22
700.567	1296.98
700.618	1278.94
700.67	1293.65
700.721	1307.86
700.773	1323.65
700.824	1293.78
700.875	1270.17
700.927	1287.17
700.978	1287.76
701.03	1281.07
701.081	1294.78
701.133	1304.77
701.184	1293.97
701.235	1301.56
701.287	1308.45
701.338	1292.35
701.39	1305
701.441	1308.24
701.493	1292.93
701.544	1275.98
701.596	1280.38
701.647	1287.71
701.698	1270.11
701.75	1290.09
701.801	1304.35
701.853	1284.29
701.904	1281.5
701.956	1299.86
702.007	1303.85
702.058	1283.25
702.11	1290.32
702.161	1295.31
702.213	1305.59
702.264	1292.34
702.315	1274.98
702.367	1286.42
702.418	1301.97
702.47	1293.3
702.521	1263.52
702.573	1282.91
702.624	1282.07
702.675	1283.76
702.727	1279.83
702.778	1288.16
702.83	1287.06
702.881	1291.84
702.932	1293.98
702.984	1298.76
703.035	1304.05
703.087	1274.42
703.138	1262.83
703.19	1294.01
703.241	1286.46
703.292	1269.2
703.344	1292.54
703.395	1294.3
703.447	1280.73
703.498	1281.91
703.549	1280.67
703.601	1285.11
703.652	1290.5
703.704	1291.24
703.755	1266.7
703.806	1271.47
703.858	1304.01
703.909	1288.08
703.961	1284.15
704.012	1290.5
704.063	1284.54
704.115	1284.39
704.166	1293.42
704.218	1293.47
704.269	1260.6
704.32	1269.8
704.372	1274.61
704.423	1271.78
704.475	1278.8
704.526	1267.42
704.577	1280.68
704.629	1279.36
704.68	1282.46
704.732	1288.01
704.783	1278.51
704.834	1268.04
704.886	1273.11
704.937	1262.38
704.988	1265.62
705.04	1248.18
705.091	1254.93
705.143	1267.74
705.194	1270.14
705.245	1258.09
705.297	1246.06
705.348	1260.23
705.4	1272.5
705.451	1261.98
705.502	1265.96
705.554	1255.52
705.605	1249.86
705.656	1256.99
705.708	1251.72
705.759	1267.4
705.811	1266.73
705.862	1253.5
705.913	1255.46
705.965	1233.61
706.016	1229.61
706.068	1241.16
706.119	1247.1
706.17	1251.72
706.222	1239.86
706.273	1230.33
706.324	1223.55
706.376	1230.84
706.427	1225.36
706.479	1253.49
706.53	1236.15
706.581	1224.75
706.633	1231.4
706.684	1225.24
706.735	1217.25
706.787	1214.23
706.838	1227.17
706.889	1212.56
706.941	1223.64
706.992	1216.46
707.044	1216.13
707.095	1226.52
707.146	1204.43
707.198	1214.3
707.249	1229.62
707.3	1226.34
707.352	1222.23
707.403	1207.3
707.454	1213.64
707.506	1204.77
707.557	1215.05
707.609	1229.83
707.66	1223.87
707.711	1223.98
707.763	1218.44
707.814	1232.69
707.865	1209.21
707.917	1218.03
707.968	1189.54
708.019	1217.11
708.071	1217.36
708.122	1201.46
708.173	1206.65
708.225	1207.62
708.276	1196.6
708.328	1217.78
708.379	1195.28
708.43	1188.69
708.482	1200.3
708.533	1202.12
708.584	1205.35
708.636	1208.33
708.687	1192.33
708.738	1196.19
708.79	1180.96
708.841	1192.67
708.892	1203.62
708.944	1214.8
708.995	1186.89
709.046	1197.23
709.098	1193
709.149	1186.18
709.2	1189.04
709.252	1195.56
709.303	1188.53
709.354	1180.22
709.406	1174.67
709.457	1175.59
709.508	1172.33
709.56	1175.22
709.611	1181.67
709.662	1184.38
709.714	1195.52
709.765	1173.73
709.816	1186.81
709.868	1174.6
709.919	1195.76
709.97	1160.27
710.022	1174.95
710.073	1196.18
710.124	1197.26
710.176	1193.58
710.227	1195.22
710.278	1173.92
710.33	1184.7
710.381	1184.76
710.432	1166.03
710.484	1186.29
710.535	1187.35
710.586	1176.76
710.638	1167.22
710.689	1180.43
710.74	1172.41
710.792	1184.51
710.843	1177.43
710.894	1176.97
710.946	1161.74
710.997	1168.45
711.048	1165.49
711.1	1164.85
711.151	1175.13
711.202	1175.86
711.254	1161.47
711.305	1144.42
711.356	1176.48
711.407	1169.72
711.459	1173.12
711.51	1175.61
711.561	1163.89
711.613	1173.41
711.664	1184.29
711.715	1165.79
711.767	1148.7
711.818	1179.38
711.869	1168.25
711.921	1164.87
711.972	1152.76
712.023	1146.64
712.075	1149.77
712.126	1177.08
712.177	1153.91
712.228	1127.37
712.28	1163.33
712.331	1129.64
712.382	1148.72
712.434	1151.02
712.485	1140.8
712.536	1141.84
712.588	1126.29
712.639	1135.1
712.69	1135.49
712.741	1150.29
712.793	1143.44
712.844	1157.57
712.895	1111.56
712.947	1130.7
712.998	1138.26
713.049	1147.19
713.101	1124.25
713.152	1118.79
713.203	1112.58
713.254	1124.11
713.306	1127.23
713.357	1125.12
713.408	1109.85
713.46	1121.83
713.511	1117.33
713.562	1117.42
713.613	1115.8
713.665	1136.65
713.716	1127.02
713.767	1135.79
713.819	1109.21
713.87	1089.77
713.921	1105.19
713.972	1107.96
714.024	1113.32
714.075	1125.95
714.126	1110.84
714.178	1089.54
714.18	1089.2
714.231	1097.76
714.283	1085
714.334	1104.35
714.385	1113.23
714.437	1093.98
714.488	1104.08
714.539	1097.33
714.591	1098.83
714.642	1093.47
714.694	1067.16
714.745	1075.18
714.796	1093.8
714.848	1078.5
714.899	1104.68
714.951	1098.19
715.002	1099.53
715.053	1095.21
715.105	1100.74
715.156	1094.59
715.207	1106.91
715.259	1088.34
715.31	1090.37
715.362	1076.88
715.413	1067.69
715.464	1082.01
715.516	1087.27
715.567	1075.96
715.618	1077.65
715.67	1070.22
715.721	1087.02
715.773	1082.16
715.824	1074.9
715.875	1084.21
715.927	1068.08
715.978	1072.53
716.029	1062.04
716.081	1057.57
716.132	1070.4
716.184	1072.76
716.235	1084.44
716.286	1073.75
716.338	1062.38
716.389	1061.42
716.44	1076.79
716.492	1067.68
716.543	1069.97
716.594	1062.47
716.646	1077.07
716.697	1082.56
716.749	1072.91
716.8	1076.18
716.851	1049.12
716.903	1042.25
716.954	1051.47
717.005	1062.58
717.057	1066.42
717.108	1071.89
717.159	1063.75
717.211	1054.22
717.262	1052.81
717.314	1042.9
717.365	1059.84
717.416	1073.79
717.468	1074.08
717.519	1051.44
717.57	1033.25
717.622	1053.84
717.673	1048.7
717.724	1045.25
717.776	1054.25
717.827	1056.37
717.878	1067.64
717.93	1044.29
717.981	1029.85
718.032	1035.7
718.084	1037.59
718.135	1045.08
718.187	1032.45
718.238	1047.89
718.289	1043.56
718.341	1048.41
718.392	1044.75
718.443	1030.68
718.495	1030.47
718.546	1054.47
718.597	1051.28
718.649	1052.39
718.7	1040.44
718.751	1038.39
718.803	1021.58
718.854	1036.84
718.905	1052.16
718.957	1034.33
719.008	1018.85
719.059	1039.27
719.111	1047.26
719.162	1017.26
719.213	1023.45
719.265	1044.14
719.316	1039.21
719.367	1040.03
719.419	1019.95
719.47	1015.63
719.521	1019.86
719.573	1029.44
719.624	1031.44
719.675	1030.27
719.727	1030.58
719.778	1038.42
719.829	1022
719.881	1015.04
719.932	1013.15
719.983	1040.41
720.035	1029.99
720.086	1008.28
720.137	1002.13
720.189	1015.22
720.24	1014.7
720.291	1002.77
720.343	1007.82
720.394	1028.95
720.445	1020.58
720.496	1004.17
720.548	1009.23
720.599	1012.75
720.65	1000.76
720.702	996.957
720.753	997.026
720.804	1022.7
720.856	998.636
720.907	996.625
720.958	1008.21
721.01	998.927
721.061	1007.45
721.112	1010.95
721.164	1007.05
721.215	992.015
721.266	997.787
721.318	1017.57
721.369	1008.41
721.42	996.988
721.471	1001.59
721.523	1006.06
721.574	999.099
721.625	991.215
721.677	1014.84
721.728	986.639
721.779	981.404
721.831	990.882
721.882	991.572
721.933	990.212
721.984	993.977
722.036	991.304
722.087	989.943
722.138	981.582
722.19	979.108
722.241	989.193
722.292	983.055
722.344	974.423
722.395	980.788
722.446	981.383
722.497	981.322
722.549	975.139
722.6	958.76
722.651	970.095
722.703	968.27
722.754	963.68
722.805	995.18
722.857	969.419
722.908	967.944
722.959	975.214
723.01	978.342
723.062	980.187
723.113	959.354
723.164	965.722
723.216	946.511
723.267	957.214
723.318	974.14
723.369	985.899
723.421	973.207
723.472	968.977
723.523	957.341
723.575	982.464
723.626	966.716
723.677	967.024
723.728	971.523
723.78	958.077
723.831	946.495
723.882	955.921
723.934	953.707
723.985	966.463
724.036	979.413
724.087	977.318
724.139	962.383
724.19	975.465
724.241	948.979
724.292	950.408
724.344	948.289
724.395	957.698
724.446	964.836
724.498	954.616
724.549	933.533
724.6	959.354
724.651	954.519
724.703	958.312
724.754	946.613
724.805	943.394
724.856	953.186
724.908	936.274
724.959	940.511
725.01	965.307
725.062	953.254
725.113	959.399
725.164	950.849
725.215	948.955
725.267	959.055
725.318	939.084
725.369	957.909
725.42	975.41
725.472	944.916
725.523	947.828
725.574	930.925
725.625	958.482
725.677	947.58
725.728	954.039
725.779	970.917
725.83	971.393
725.882	961.356
725.933	959.11
725.984	964.368
726.036	969.938
726.087	947.523
726.138	954.118
726.189	937.318
726.241	939.448
726.292	933.864
726.343	942.21
726.394	966.08
726.445	948.056
726.497	961.032
726.548	938.846
726.599	945.698
726.651	957.786
726.702	938.757
726.753	935.719
726.804	942.227
726.855	945.897
726.907	947.589
726.958	930.856
727.009	948.555
727.06	933.539
727.112	929.615
727.163	942.472
727.214	923.252
727.265	928.805
727.317	927.78
727.368	916.006
727.419	939.839
727.47	929.791
727.522	918.14
727.573	940.75
727.624	940.987
727.675	927.078
727.727	932.615
727.778	940.557
727.829	931.695
727.88	922.019
727.932	936.702
727.983	946.179
728.034	930.493
728.085	925.108
728.136	933.689
728.188	923.342
728.239	927.595
728.29	930.401
728.341	925.149
728.393	936.192
728.444	928.703
728.495	910.513
728.546	916.497
728.597	934.306
728.649	933.55
728.7	926.312
728.751	927.92
728.802	921.112
728.854	902.853
728.905	914.999
728.956	916.27
729.007	909.993
729.058	916.599
729.11	895.133
729.161	914.964
729.212	897.083
729.263	914.036
729.315	912.423
729.366	901.033
729.417	904.762
729.468	902.823
729.519	895.126
729.571	912.28
729.622	916.327
729.673	917.936
729.724	908.764
729.775	887.469
729.827	929.505
729.878	897.936
729.929	884.66
729.98	892.076
730.031	911.017
730.083	911.189
730.134	895.428
730.185	887.529
730.236	887.089
730.288	888.567
730.339	893.007
730.39	867.482
730.441	888.439
730.492	895.99
730.544	880.345
730.595	892.131
730.646	908.527
730.697	889.652
730.748	873.453
730.8	888.953
730.851	892.45
730.902	891.176
730.953	897.29
731.004	898.166
731.056	883.908
731.107	910.721
731.158	892.287
731.209	893.533
731.26	884.571
731.312	888.806
731.363	913.594
731.414	875.338
731.465	898.558
731.516	893.886
731.567	877.253
731.619	901.958
731.622	903.974
731.673	887.03
731.725	891.668
731.776	886.452
731.827	883.986
731.878	883.37
731.93	886.86
731.981	903.634
732.032	912.942
732.084	888.025
732.135	884.999
732.186	882.295
732.237	894.003
732.289	896.991
732.34	880.915
732.391	918.547
732.443	899.271
732.494	903.767
732.545	895.426
732.597	898.772
732.648	917.189
732.699	904.322
732.75	889.963
732.802	905.814
732.853	893.315
732.904	903.849
732.956	899.632
733.007	925.461
733.058	910.408
733.109	897.162
733.161	902.007
733.212	903.069
733.263	901.032
733.315	904.889
733.366	903.718
733.417	903.489
733.468	906.807
733.52	916.506
733.571	925.287
733.622	919.647
733.673	918.871
733.725	922.34
733.776	913.665
733.827	908.742
733.879	913.788
733.93	899.496
733.981	915.395
734.032	915.628
734.084	926.412
734.135	929.532
734.186	916.905
734.237	926.737
734.289	958.021
734.34	935.673
734.391	941.043
734.443	942.677
734.494	949.836
734.545	946.909
734.596	935.097
734.648	965.963
734.699	956.304
734.75	967.637
734.801	952.58
734.853	955.487
734.904	972.684
734.955	979.549
735.006	966.653
735.058	981.537
735.109	974.181
735.16	996.732
735.211	996.054
735.263	1014.76
735.314	989.57
735.365	1002.34
735.417	1020.34
735.468	1010.73
735.519	1023.92
735.57	1028.39
735.622	1028.66
735.673	1044
735.724	1040.29
735.775	1035.89
735.827	1052.37
735.878	1059.98
735.929	1061.1
735.98	1059.13
736.032	1083.14
736.083	1081.9
736.134	1100.91
736.185	1096.06
736.237	1109.71
736.288	1102.76
736.339	1109.62
736.39	1126.76
736.442	1113.03
736.493	1145.56
736.544	1149.29
736.595	1166.27
736.646	1170.82
736.698	1176.32
736.749	1180.73
736.8	1201.27
736.851	1178.62
736.903	1199.86
736.954	1219.44
737.005	1225.54
737.056	1226.05
737.108	1258.06
737.159	1261.77
737.21	1282.79
737.261	1284.65
737.313	1277.51
737.364	1279.25
737.415	1298.19
737.466	1296.8
737.518	1317.33
737.569	1329.15
737.62	1342.13
737.671	1330.45
737.722	1327.32
737.774	1348.07
737.825	1349.82
737.876	1377.22
737.927	1394.93
737.979	1377.49
738.03	1373.71
738.081	1386.4
738.132	1399.42
738.183	1399.98
738.235	1401
738.286	1393.89
738.337	1389.33
738.388	1377.22
738.44	1404.11
738.491	1396.23
738.542	1403.98
738.593	1391.66
738.644	1395.43
738.696	1389.35
738.747	1371.54
738.798	1363.16
738.849	1367.41
738.901	1343.73
738.952	1327.06
739.003	1327.48
739.054	1345.26
739.105	1330.86
739.157	1324.82
739.208	1310.76
739.259	1315.56
739.31	1302.86
739.361	1288.57
739.413	1274.32
739.464	1263.6
739.515	1255.38
739.566	1260.26
739.617	1248.36
739.669	1240.35
739.72	1224.24
739.771	1203.35
739.822	1200.33
739.874	1191.85
739.925	1192.87
739.976	1184.21
740.027	1160.82
740.078	1169.8
740.13	1143.44
740.181	1149.78
740.232	1145.82
740.283	1138.89
740.334	1131.19
740.385	1118.53
740.437	1127.29
740.488	1104.29
740.539	1086.79
740.59	1091.7
740.641	1084.23
740.693	1076.09
740.744	1067.82
740.795	1071.67
740.846	1060.01
740.897	1030.72
740.949	1036.58
741	1040.71
741.051	1034.79
741.102	1021.9
741.153	1018.86
741.205	1002.2
741.256	994.84
741.307	1001.82
741.358	994.438
741.409	998.908
741.461	985.289
741.512	983.383
741.563	971.412
741.614	978.63
741.665	975.065
741.716	961.343
741.768	956.507
741.819	959.747
741.87	945.031
741.921	934.918
741.972	934.373
742.024	922.864
742.075	924.508
742.126	917.716
742.177	931.314
742.228	905.468
742.279	902.112
742.331	899.83
742.382	900.43
742.433	900.37
742.484	898.613
742.535	892.811
742.586	887.789
742.638	869.421
742.689	875.494
742.74	879.122
742.791	876.952
742.842	873.512
742.893	872.213
742.945	853.292
742.996	859.771
743.047	864.519
743.098	860.906
743.149	852.667
743.201	857.127
743.252	866.237
743.303	850.925
743.354	838.871
743.405	842.581
743.456	845.397
743.507	840.72
743.559	828.346
743.61	837.651
743.661	851.487
743.712	841.004
743.763	826.327
743.814	825.628
743.866	824.222
743.917	819.622
743.968	811.129
744.019	820.325
744.07	821.283
744.121	821.556
744.172	820.322
744.224	820.335
744.275	812.456
744.326	803.321
744.377	812.042
744.428	820.862
744.479	807.836
744.531	792.87
744.582	797.065
744.633	810.851
744.684	795.809
744.735	790.615
744.786	788.337
744.837	791.257
744.889	788.829
744.94	773.219
744.991	789.762
745.042	799.185
745.093	786.519
745.144	774.943
745.195	776.654
745.247	784.102
745.298	777.214
745.349	768.885
745.4	769.181
745.451	777.808
745.502	779.734
745.553	771.44
745.605	793.671
745.656	785.56
745.707	767.74
745.758	766.13
745.809	764.125
745.86	768.238
745.911	767.697
745.962	770.792
746.014	767.479
746.065	760.298
746.116	749.172
746.167	753.985
746.218	748.572
746.269	749.253
746.32	742.893
746.372	754.53
746.423	747.235
746.474	740.727
746.525	733.653
746.576	734.365
746.627	747.18
746.678	749.607
746.729	750.315
746.78	743.939
746.832	739.01
746.883	745.573
746.934	737.711
746.985	742.456
747.036	729.163
747.087	731.757
747.138	740.434
747.189	737.785
747.241	728.62
747.292	725.288
747.343	730.324
747.394	741.171
747.445	743.289
747.496	738.546
747.547	737.402
747.598	729.331
747.649	732.612
747.701	738.868
747.752	732.12
747.803	724.245
747.854	725.606
747.905	734.787
747.956	730.443
748.007	716.859
748.058	714.222
748.109	719.61
748.161	725.8
748.212	739.059
748.263	733.856
748.314	726.344
748.365	712.081
748.416	711.516
748.467	726.25
748.518	716.707
748.569	712.241
748.62	714.864
748.672	730.145
748.723	710.254
748.774	701.999
748.825	707.594
748.876	714.058
748.927	717.071
748.978	722.993
749.029	708.892
749.08	711.055
749.131	706.518
749.173	710.358
749.224	696.021
749.275	689.355
749.326	707.812
749.378	712.663
749.429	704.198
749.48	704.21
749.531	690.567
749.582	688.413
749.634	707.377
749.685	717.863
749.736	685.218
749.787	700.068
749.838	695.994
749.89	697.181
749.941	694.384
749.992	700.595
750.043	688.053
750.094	715.395
750.146	667.889
750.197	704.361
750.248	704.596
750.299	687.009
750.35	703.883
750.401	689.751
750.453	667.297
750.504	677.725
750.555	673.471
750.606	698.825
750.657	690.659
750.709	677.82
750.76	674.066
750.811	671.89
750.862	678.978
750.913	673.951
750.964	673.477
751.016	687.018
751.067	688.177
751.118	673.918
751.169	672.626
751.22	698.079
751.272	664.308
751.323	697.796
751.374	659.269
751.425	682.916
751.476	674.226
751.528	687.258
751.579	683.963
751.63	672.873
751.681	670.302
751.732	677.516
751.783	679.874
751.835	665.259
751.886	684.362
751.937	667.507
751.988	653.884
752.039	663.97
752.09	665.545
752.142	664.097
752.193	675.526
752.244	684.981
752.295	647.982
752.346	658.16
752.397	671.582
752.449	659.069
752.5	658.598
752.551	661.874
752.602	688.453
752.653	659.877
752.704	658.799
752.756	664.86
752.807	657.871
752.858	645.215
752.909	664.572
752.96	656.52
753.011	666.516
753.063	647.744
753.114	648.21
753.165	668.49
753.216	648.365
753.267	654.175
753.318	668.878
753.37	656.151
753.421	642.639
753.472	624.897
753.523	647.322
753.574	657.96
753.625	628.645
753.676	628.381
753.728	649.12
753.779	631.238
753.83	647.027
753.881	622.243
753.932	620.341
753.983	644.903
754.034	654.193
754.086	642.741
754.137	654.805
754.188	649.414
754.239	633.324
754.29	628.091
754.341	633.171
754.393	618.594
754.444	634.408
754.495	642.327
754.546	628.116
754.597	636.479
754.648	639.471
754.699	612.243
754.75	611.207
754.802	623.264
754.853	617.225
754.904	621.916
754.955	636.065
755.006	625.486
755.057	620.534
755.108	622.115
755.16	626.514
755.211	613.028
755.262	623.813
755.313	622.047
755.364	624.445
755.415	615.223
755.466	628.105
755.518	638.569
755.569	631.46
755.62	622.921
755.671	635.761
755.722	619.558
755.773	601.884
755.824	596.05
755.875	618.363
755.927	623.098
755.978	619.37
756.029	612.274
756.08	600.726
756.131	617.278
756.182	621.747
756.233	615.218
756.284	605.89
756.336	606.033
756.387	613.232
756.438	606.411
756.489	588.253
756.54	623.127
756.591	602.731
756.642	616.846
756.693	594.487
756.745	592.73
756.796	607.025
756.847	580.912
756.898	594.748
756.949	607.106
757	602.637
757.051	609.085
757.102	601.517
757.153	598.736
757.205	604.966
757.256	606.241
757.307	576.509
757.358	586.812
757.409	600.943
757.46	609.199
757.511	581.828
757.562	603.81
757.613	605.417
757.664	593.936
757.716	584.423
757.767	585.354
757.818	587.7
757.869	600.737
757.92	590.023
757.971	594.303
758.022	586.609
758.073	589.647
758.124	574.392
758.175	586.18
758.227	587.179
758.278	591.011
758.329	564.493
758.38	589.266
758.431	595.716
758.482	598.73
758.533	568.392
758.584	582.869
758.635	578.982
758.686	578.634
758.738	574.932
758.789	579.063
758.84	585.693
758.891	575.262
758.942	576.351
758.993	593.871
759.044	588.34
759.095	585.211
759.146	576.732
759.197	570.747
759.248	583.777
759.3	573.366
759.351	569.742
759.402	583.357
759.453	579.329
759.504	574.349
759.555	569.168
759.606	574.384
759.657	586.399
759.708	571.189
759.759	582.097
759.81	568.991
759.861	572.835
759.913	565.651
759.964	569.331
760.015	573.695
760.066	569.397
760.117	557.385
760.168	567.027
760.219	570.334
760.27	566.913
760.321	569.024
760.372	558.577
760.423	564.274
760.474	572.718
760.525	554.363
760.576	546.354
760.628	562.913
760.679	563.414
760.73	550.145
760.781	556.48
760.832	561.375
760.883	564.675
760.934	547.6
760.985	544.097
761.036	555.447
761.087	552.983
761.138	553.55
761.189	546.074
761.24	552.769
761.291	551.165
761.342	546.808
761.393	558.183
761.445	555.223
761.496	544.096
761.547	530.852
761.598	547.638
761.649	541.546
761.7	545.178
761.751	544.525
761.802	545.951
761.853	542.692
761.904	546.032
761.955	536.137
762.006	545.75
762.057	542.862
762.108	549.658
762.159	541.752
762.21	535.457
762.261	538.515
762.313	544.127
762.364	537.5
762.415	536.421
762.466	548.173
762.517	536.981
762.568	532.208
762.619	532.88
762.67	534.047
762.721	532.605
762.772	550.277
762.823	544.798
762.874	532.917
762.925	535.972
762.976	529.986
763.027	524.667
763.078	532.924
763.129	530.834
763.18	532.992
763.231	533.922
763.282	535.139
763.333	532.449
763.384	531.612
763.435	534.523
763.486	545.356
763.537	534.385
763.589	538.021
763.64	535.205
763.691	533.011
763.742	531
763.793	526.074
763.844	512.143
763.895	519.638
763.946	525.661
763.997	529.575
764.048	536.844
764.099	534.932
764.15	529.964
764.201	528.633
764.252	525.818
764.303	518.295
764.354	520.029
764.405	513.825
764.456	515.261
764.507	512.664
764.558	510.419
764.609	520.417
764.66	525.369
764.711	518.552
764.762	521.086
764.813	519.224
764.864	510.394
764.915	518.652
764.966	518.917
765.017	513.8
765.068	516.089
765.119	520.881
765.17	511.08
765.221	503.243
765.272	515.907
765.323	519.395
765.374	507.424
765.425	507.571
765.476	505.325
765.527	502.224
765.578	504.716
765.629	503.417
765.68	505.615
765.731	504.973
765.782	499.244
765.833	504.926
765.884	510.162
765.935	503.412
765.986	506.427
766.037	514.283
766.088	516.404
766.139	503.44
766.19	501.032
766.241	513.287
766.292	504.299
766.343	498.045
766.394	504.864
766.445	500.2
766.496	496.684
766.547	502.681
766.598	508.583
766.649	503.96
766.677	502.835
766.729	496.087
766.78	483.738
766.831	504.527
766.882	500.544
766.933	510.26
766.984	513.19
767.035	490.369
767.086	501.557
767.137	492.669
767.188	507.337
767.24	496.724
767.291	487.933
767.342	489.912
767.393	479.974
767.444	506.034
767.495	498.721
767.546	495.831
767.597	477.915
767.648	472.832
767.7	488.712
767.751	483.35
767.802	486.686
767.853	489.944
767.904	502.977
767.955	482.395
768.006	486.998
768.057	484.898
768.108	489.754
768.159	482.261
768.21	473.422
768.262	476.713
768.313	482.621
768.364	489.434
768.415	464.115
768.466	468.351
768.517	479.407
768.568	471.989
768.619	485.474
768.67	468.961
768.721	456.264
768.772	475.077
768.823	488.124
768.875	476.723
768.926	464.156
768.977	477.805
769.028	446.438
769.079	465.136
769.13	479.307
769.181	471.601
769.232	469.803
769.283	469.404
769.334	461.954
769.385	459.951
769.436	458.178
769.488	454.477
769.539	460.059
769.59	444.786
769.641	466.504
769.692	469.152
769.743	457.5
769.794	461.305
769.845	454.173
769.896	448.626
769.947	462.373
769.998	454.632
770.049	464.642
770.1	460.523
770.151	448.804
770.203	462.016
770.254	453.358
770.305	456.601
770.356	457.154
770.407	457.438
770.458	451.19
770.509	451.228
770.56	456.908
770.611	456.669
770.662	445.863
770.713	439.237
770.764	434.819
770.815	449.538
770.866	438.151
770.917	456.878
770.968	438.176
771.02	434.44
771.071	457.776
771.122	452.053
771.173	431.643
771.224	440.254
771.275	423.312
771.326	447.975
771.377	435.154
771.428	435.481
771.479	431.188
771.53	430.287
771.581	450.11
771.632	438.391
771.683	424.743
771.734	437.042
771.785	441.289
771.836	437.846
771.887	432.464
771.938	436.617
771.99	440.4
772.041	434.23
772.092	427.455
772.143	442.355
772.194	433.605
772.245	417.825
772.296	425.771
772.347	433.954
772.398	431.675
772.449	410.301
772.5	417.966
772.551	439.759
772.602	427.642
772.653	423.513
772.704	426.571
772.755	425.71
772.806	425.878
772.857	428.215
772.908	426.628
772.959	420.845
773.01	424.809
773.061	426.712
773.112	424.285
773.163	428.629
773.214	420.469
773.265	414.906
773.316	418.605
773.367	413.362
773.419	416.233
773.47	412.727
773.521	411.128
773.572	412.761
773.623	417.742
773.674	402.879
773.725	410.077
773.776	416.879
773.827	417.797
773.878	416.588
773.929	420.847
773.98	417.591
774.031	420.396
774.082	415.087
774.133	404.881
774.184	410.993
774.235	408.156
774.286	407.712
774.337	404.504
774.388	405.602
774.439	418.518
774.49	402.943
774.541	404.246
774.592	403.205
774.643	406.115
774.694	403.316
774.745	404.448
774.796	412.435
774.847	402.087
774.898	401.477
774.949	405.066
775	405.095
775.051	403.435
775.102	399.287
775.153	400.743
775.204	401.307
775.255	399.306
775.306	397.924
775.357	403.965
775.408	411.643
775.459	399.303
775.51	392.613
775.561	392.456
775.612	395.344
775.663	391.629
775.714	391.124
775.765	390.396
775.816	385.297
775.867	385.009
775.918	378.317
775.969	382.416
776.02	383.808
776.071	376.532
776.122	379.597
776.173	380.363
776.224	375.41
776.275	379.004
776.326	389.572
776.377	385.825
776.428	378.828
776.479	386.054
776.53	388.714
776.581	382.884
776.632	378.835
776.683	373.443
776.734	369.142
776.785	372.719
776.836	375.269
776.887	382.384
776.938	391.276
776.989	392.633
777.04	377.681
777.091	373.333
777.142	378.822
777.193	374.05
777.244	379.914
777.295	370.292
777.346	370.421
777.397	378.889
777.448	383.382
777.499	374.708
777.55	374.909
777.601	384.526
777.652	385.061
777.703	372.088
777.754	375.513
777.805	383.8
777.856	371.561
777.907	371.541
777.958	373.591
778.009	372.618
778.06	376.574
778.111	373.084
778.161	361.775
778.212	369.788
778.263	371.357
778.314	365.035
778.365	358.036
778.416	362.682
778.467	366.981
778.518	371.258
778.569	374.05
778.62	352.095
778.671	358.941
778.722	369.993
778.773	366.53
778.824	373.431
778.875	368.287
778.926	358.573
778.977	355.197
779.028	366.799
779.079	370.321
779.13	365.732
779.181	362.478
779.232	358.319
779.283	364.786
779.334	363.983
779.385	360.041
779.436	358.502
779.487	358.531
779.537	361.456
779.588	361.651
779.639	363.247
779.69	362.361
779.741	350.166
779.792	359.289
779.843	360.704
779.894	359.603
779.945	355.377
779.996	356.065
780.047	360.215
780.098	354.547
780.149	345.935
780.2	349.187
780.251	351.858
780.302	348.28
780.353	351.576
780.404	354.886
780.455	354.988
780.505	344.204
780.556	341.272
780.607	347.649
780.658	347.851
780.709	351.37
780.76	351.334
780.811	348.395
780.862	344.546
780.913	343.114
780.964	349.258
781.015	346.609
781.066	347.593
781.117	349.539
781.168	343.059
781.219	337.394
781.27	346.943
781.32	339.479
781.371	334.292
781.422	339.819
781.473	346.301
781.524	332.903
781.575	329.401
781.626	336.879
781.677	337.701
781.728	336.865
781.779	327.278
781.83	334.789
781.881	343.751
781.932	335.261
781.983	341.353
782.033	333.88
782.084	337.625
782.135	337.855
782.186	334.19
782.237	347.924
782.288	342.725
782.339	330.797
782.39	336.966
782.441	336.802
782.492	335.25
782.543	332.962
782.594	324.546
782.644	334.558
782.695	338.943
782.746	333.345
782.797	324.922
782.848	318.508
782.899	324.921
782.95	328.269
783.001	335.938
783.052	337.693
783.103	331.832
783.154	332.309
783.204	328.636
783.255	323.021
783.306	324.319
783.357	313.679
783.408	322.472
783.459	333.685
783.51	327.425
783.561	330.166
783.612	325.073
783.663	327.013
783.714	324.672
783.764	330.798
783.815	320.722
783.866	326.587
783.917	322.492
783.968	317.398
784.019	328.283
784.07	324.58
784.109	323.04
784.16	316.32
784.211	336.106
784.262	326.492
784.313	323.959
784.364	327.832
784.415	319.843
784.466	325.515
784.517	330.978
784.568	318.84
784.619	310.827
784.67	312.624
784.721	332.271
784.772	321.85
784.823	327.514
784.874	312.867
784.925	318.33
784.976	328.054
785.027	310.85
785.078	323.366
785.129	327.128
785.18	324.173
785.231	324.926
785.282	323.523
785.333	320.535
785.384	325.461
785.435	308.583
785.486	305.627
785.537	310.037
785.588	314.352
785.639	307.945
785.69	317.279
785.741	320.387
785.792	304.27
785.843	299.937
785.894	315.97
785.945	303.825
785.996	316.37
786.047	308.563
786.098	305.621
786.149	306.799
786.2	302.578
786.251	303.269
786.302	304.841
786.353	286.071
786.404	308.445
786.455	305.176
786.506	306.634
786.557	297.399
786.608	302.91
786.659	294.458
786.71	300.566
786.761	294.814
786.812	292.791
786.863	292.112
786.914	296.148
786.965	295.684
787.016	299.033
787.067	295.423
787.118	280.439
787.169	285.346
787.22	284.223
787.271	296.218
787.322	300.153
787.373	295.338
787.424	290.204
787.475	291.871
787.526	291.814
787.576	285.287
787.627	288.491
787.678	292.312
787.729	295.643
787.78	282.347
787.831	286.905
787.882	295.504
787.933	289.178
787.984	278.518
788.035	290.103
788.086	279.36
788.137	288.437
788.188	287.948
788.239	284.693
788.29	285.536
788.341	287.708
788.392	281.649
788.443	280.193
788.494	283.072
788.545	284.17
788.596	275.091
788.647	285.58
788.698	279.186
788.749	278.432
788.8	282.07
788.851	278.769
788.901	278.242
788.952	282.476
789.003	267.706
789.054	271.333
789.105	280.026
789.156	278.3
789.207	274.217
789.258	270.478
789.309	275.254
789.36	277.163
789.411	266.657
789.462	263.133
789.513	268.685
789.564	263.297
789.615	271.694
789.666	266.798
789.717	267.56
789.768	272.615
789.819	266.356
789.87	262.661
789.92	265.378
789.971	264.891
790.022	262.724
790.073	269.045
790.124	271.263
790.175	264.03
790.226	269.048
790.277	260.723
790.328	269.966
790.379	260.676
790.43	264.058
790.481	269.871
790.532	272.803
790.583	265.221
790.634	263.246
790.685	252.495
790.735	264.062
790.786	269.66
790.837	262.581
790.888	260.645
790.939	253.28
790.99	261.305
791.041	257.928
791.092	260.56
791.143	257.082
791.194	257.768
791.245	257.729
791.296	259.73
791.347	266.396
791.397	262.637
791.448	255.921
791.499	253.199
791.55	261.341
791.601	259.867
791.652	264.066
791.703	265.583
791.754	262.583
791.805	260.407
791.856	257.242
791.907	261.227
791.958	255.183
792.008	253.693
792.059	263.603
792.11	259.589
792.161	254.166
792.212	260.693
792.263	260.492
792.314	257.571
792.365	254.313
792.416	260.195
792.467	256.223
792.518	259.125
792.569	254.996
792.619	253.597
792.67	261.689
792.721	261.212
792.772	257.284
792.823	253.755
792.874	246.138
792.925	248.728
792.976	250.149
793.027	246.359
793.078	250.971
793.128	257.144
793.179	252.896
793.23	253.958
793.281	249.712
793.332	254.982
793.383	246.623
793.434	244.574
793.485	249.758
793.536	255.965
793.587	252.195
793.638	253.679
793.688	249.976
793.739	248.388
793.79	248.31
793.841	246.882
793.892	241.05
793.943	253.432
793.994	244.227
794.045	238.551
794.096	241.489
794.146	241.688
794.197	242.328
794.248	236.653
794.299	238.715
794.35	243.034
794.401	232.679
794.452	236.645
794.503	240.723
794.554	239.835
794.604	237.486
794.655	238.388
794.706	238.048
794.757	238.027
794.808	239.998
794.859	236.537
794.91	239.423
794.961	238.519
795.011	241.239
795.062	228.943
795.113	230.502
795.164	242.283
795.215	237.964
795.266	239.454
795.317	237.872
795.368	240.124
795.418	234.288
795.469	229.248
795.52	230.192
795.571	237.335
795.622	231.912
795.673	230.491
795.724	234.197
795.775	225.121
795.825	223.623
795.876	231.775
795.927	232.526
795.978	226.517
796.029	225.744
796.08	227.56
796.131	228.725
796.181	234.45
796.232	241.391
796.283	221.52
796.334	232.74
796.385	228.215
796.436	232.765
796.487	224.839
796.537	220.349
796.588	226.577
796.639	227.386
796.69	221.543
796.741	224.525
796.792	225.035
796.843	220.697
796.893	224.236
796.944	220.244
796.995	214.144
797.046	221.4
797.097	229.789
797.148	229.514
797.199	227.909
797.249	232.234
797.3	229.834
797.351	231.187
797.402	227.504
797.453	220.918
797.504	219.903
797.555	224.845
797.605	217.336
797.656	219.685
797.707	226.9
797.758	226.532
797.809	219.981
797.86	225.664
797.91	226.769
797.961	234.141
798.012	227.115
798.063	212.592
798.114	218.81
798.165	231.174
798.216	224.513
798.266	214.756
798.317	215.591
798.368	222.468
798.419	223.135
798.47	223.357
798.521	224.509
798.571	222.384
798.622	217.455
798.673	218.767
798.724	220.29
798.775	220.974
798.826	218.748
798.876	213.016
798.927	207.21
798.978	215.601
799.029	220.706
799.08	222.533
799.13	217.579
799.181	214.067
799.232	211.999
799.283	208.825
799.334	214.672
799.385	215.797
799.435	209.007
799.486	214.085
799.537	203.501
799.588	210.766
799.639	205.194
799.69	203.057
799.74	210.034
799.791	211.357
799.842	209.236
799.893	211.181
799.944	209.15
799.994	201.361
800.045	201.812
800.096	204.762
800.147	212.733
800.198	211.899
800.248	205.997
800.299	202.778
800.35	205.666
800.401	206.469
800.452	208.372
800.503	200.544
800.553	195.787
800.604	202.451
800.655	208.487
800.706	206.494
800.757	205.964
800.807	208.248
800.858	205.378
800.909	199.032
800.96	199.747
801.011	205.667
801.061	206.355
801.112	188.551
801.163	195.687
801.214	198.032
801.265	196.911
801.315	195.445
801.366	195.565
801.417	196.719
801.457	198.514
801.508	205.503
801.558	194.733
801.609	199.967
801.66	190.294
801.711	194.089
801.762	190.82
801.813	201.529
801.864	198.812
801.915	194.807
801.966	191.24
802.017	197.702
802.068	192.103
802.118	194.977
802.169	192.474
802.22	193.863
802.271	190.877
802.322	193.191
802.373	189.942
802.424	193.685
802.475	192.846
802.526	194.706
802.577	196.949
802.627	198.609
802.678	189.989
802.729	191.056
802.78	184.09
802.831	177.861
802.882	188.735
802.933	187.485
802.984	195.898
803.035	194.887
803.086	185.077
803.136	182.066
803.187	175.269
803.238	187.233
803.289	189.622
803.34	188.184
803.391	185.896
803.442	192.136
803.493	194.156
803.544	181.18
803.594	193.389
803.645	186.48
803.696	186.881
803.747	174.805
803.798	189.107
803.849	184.533
803.9	186.035
803.951	185.964
804.002	181.189
804.052	187.467
804.103	182.308
804.154	186.079
804.205	173.467
804.256	183.092
804.307	188.167
804.358	182.408
804.409	174.233
804.459	181.078
804.51	177.563
804.561	172.325
804.612	185.782
804.663	186.632
804.714	181.04
804.765	169.393
804.816	177.543
804.866	177.462
804.917	178.632
804.968	177.153
805.019	170.559
805.07	175.227
805.121	178.738
805.172	177.017
805.223	177.428
805.273	177.22
805.324	175.051
805.375	175.174
805.426	174.488
805.477	180.848
805.528	167.86
805.579	176.087
805.629	184.421
805.68	175.136
805.731	180.478
805.782	172.078
805.833	178.946
805.884	175.486
805.935	171.27
805.985	175.797
806.036	178.775
806.087	175.552
806.138	173.945
806.189	168.462
806.24	165.555
806.291	169.793
806.341	173.059
806.392	176.283
806.443	179.193
806.494	180.551
806.545	169.959
806.596	173.656
806.647	177.28
806.697	177.493
806.748	174.244
806.799	174.694
806.85	172.613
806.901	161.471
806.952	171.554
807.003	173.521
807.053	170.037
807.104	178.053
807.155	166.138
807.206	166.732
807.257	166.162
807.308	176.421
807.358	163.953
807.409	171.409
807.46	180.275
807.511	174.766
807.562	170.756
807.613	168.334
807.663	169.225
807.714	168.796
807.765	159.32
807.816	170.621
807.867	166.625
807.918	166.227
807.969	164.162
808.019	178.176
808.07	172.246
808.121	163.841
808.172	166.493
808.223	163.343
808.273	170.531
808.324	165.832
808.375	173.982
808.426	162.865
808.477	162.237
808.528	169.612
808.578	165.989
808.629	166.814
808.68	166.852
808.731	171.049
808.782	160.071
808.833	164.253
808.883	166.008
808.934	162.501
808.985	170.756
809.036	171.637
809.087	161.819
809.138	160.051
809.188	157.446
809.239	159.74
809.29	166.352
809.341	163.586
809.392	166.931
809.442	165.264
809.493	157.09
809.544	158.68
809.595	156.623
809.646	172.426
809.696	160.795
809.747	162.909
809.798	167.359
809.849	163.244
809.9	172.119
809.951	164.429
810.001	157.251
810.052	165.608
810.103	165.414
810.154	155.723
810.205	155.897
810.255	165.186
810.306	158.669
810.357	163.63
810.408	156.302
810.459	161.087
810.509	157.214
810.56	158.651
810.611	159.337
810.662	157.338
810.713	163.088
810.763	155.635
810.814	159.461
810.865	165.434
810.916	161.633
810.967	158.452
811.017	165.248
811.068	167.524
811.119	157.072
811.17	163.16
811.221	163.507
811.271	168.839
811.322	166.913
811.373	159.093
811.424	165.865
811.474	165.781
811.525	163.306
811.576	153.333
811.627	158.924
811.678	151.504
811.728	156.872
811.779	155.691
811.83	156.926
811.881	159.18
811.932	157.632
811.982	153.221
812.033	153.523
812.084	156.865
812.135	157.687
812.185	157.757
812.236	156.436
812.287	148.152
812.338	156.999
812.389	152.38
812.439	152.102
812.49	155.421
812.541	158.142
812.592	149.908
812.642	147.843
812.693	154.306
812.744	154.981
812.795	147.729
812.846	150.902
812.896	153.182
812.947	152.603
812.998	149.586
813.049	151.286
813.099	142.511
813.15	148.191
813.201	145.35
813.252	151.511
813.302	154.47
813.353	150.733
813.404	151.549
813.455	153.92
813.506	149.039
813.556	147.925
813.607	152.954
813.658	146.758
813.709	147.064
813.759	145.358
813.81	148.26
813.861	149.741
813.912	152.409
813.962	154.986
814.013	152.192
814.064	148.917
814.115	150.784
814.165	146.084
814.216	141.162
814.267	143.526
814.318	143.994
814.368	146.032
814.419	148.036
814.47	145.651
814.521	142.676
814.571	139.985
814.622	141.351
814.673	145.492
814.724	153.41
814.774	148.409
814.825	147.735
814.876	145.845
814.927	148.382
814.977	145.308
815.028	141.133
815.079	150.574
815.13	148.111
815.18	138.182
815.231	138.247
815.282	137.048
815.333	141.375
815.383	147.021
815.434	144.199
815.485	146.134
815.536	149.05
815.586	149.027
815.637	147.272
815.688	143.204
815.739	141.137
815.789	143.545
815.84	142.111
815.891	140.959
815.941	140.243
815.992	136.548
816.043	136.175
816.094	137.456
816.144	141.892
816.195	137.581
816.246	136.867
816.297	135.522
816.347	138.222
816.398	139.153
816.449	139.518
816.499	140.741
816.55	144.851
816.601	146.259
816.652	142.221
816.702	134.562
816.753	139.948
816.804	142.331
816.855	144.659
816.905	143.721
816.956	133.584
817.007	133.666
817.057	143.726
817.108	135.443
817.159	135.092
817.21	136.341
817.26	134.45
817.311	139.183
817.362	141.689
817.412	137.879
817.463	134.515
817.514	137.893
817.565	140.057
817.615	135.655
817.666	138.213
817.717	134.133
817.767	135.875
817.818	135.328
817.869	133.508
817.919	134.779
817.97	135.353
818.021	128.998
818.072	131.338
818.122	133.721
818.173	133.09
818.224	130.486
818.274	136.492
818.325	139.688
818.376	130.175
818.427	127.946
818.477	126.721
818.528	126.697
818.579	130.446
818.629	134.128
818.68	133.874
818.731	130.186
818.781	137.682
818.806	134.741
818.857	132.991
818.908	129.576
818.959	129.818
819.01	132.439
819.06	128.222
819.111	132.9
819.162	138.424
819.213	127.924
819.264	129.529
819.315	133.841
819.365	134.223
819.416	126.649
819.467	139.835
819.518	130.88
819.569	128.044
819.619	135.296
819.67	130.055
819.721	125.754
819.772	122.683
819.823	125.871
819.873	127.873
819.924	129.191
819.975	124.548
820.026	116.692
820.077	134.382
820.127	127.887
820.178	122.7
820.229	125.584
820.28	131.08
820.331	121.508
820.381	126.196
820.432	131.266
820.483	127.325
820.534	125.63
820.585	123.364
820.635	122.6
820.686	124.768
820.737	127.139
820.788	127.945
820.839	123.612
820.889	130.721
820.94	129.601
820.991	125.696
821.042	115.248
821.092	124.945
821.143	129.439
821.194	125.831
821.245	121.552
821.296	127.73
821.346	121.847
821.397	123.86
821.448	124.454
821.499	124.064
821.549	131.991
821.6	129.249
821.651	133.95
821.702	125.525
821.753	117.417
821.803	120.274
821.854	118.739
821.905	119.97
821.956	129.556
822.006	120.788
822.057	124.489
822.108	118.194
822.159	117.979
822.21	119.308
822.26	115.764
822.311	124.392
822.362	121.968
822.413	123.799
822.463	123.522
822.514	125.617
822.565	120.383
822.616	118.493
822.667	123.159
822.717	121.216
822.768	118.686
822.819	113.836
822.87	112.832
822.92	115.953
822.971	117.753
823.022	122.368
823.073	122.09
823.123	123.463
823.174	119.035
823.225	118.25
823.276	119.61
823.326	116.721
823.377	114.822
823.428	115.222
823.479	111.614
823.529	115.922
823.58	117.198
823.631	117.398
823.682	114.214
823.732	114.666
823.783	124.053
823.834	122.838
823.885	124.842
823.935	115.969
823.986	118.836
824.037	117.181
824.088	114.54
824.138	117.247
824.189	111.001
824.24	115.075
824.291	118.553
824.341	118.039
824.392	115.852
824.443	115.45
824.494	119.472
824.544	114.963
824.595	112.977
824.646	120.055
824.697	116.158
824.747	115.687
824.798	112.896
824.849	105.921
824.9	114.578
824.95	118.036
825.001	114.155
825.052	110.297
825.103	112.199
825.153	115.968
825.204	117.573
825.255	116.749
825.305	113.966
825.356	110.4
825.407	103.819
825.458	112.393
825.508	107.33
825.559	112.906
825.61	116.115
825.661	116.976
825.711	114.967
825.762	110.741
825.813	104.229
825.864	113.027
825.914	114.379
825.965	107.957
826.016	110.206
826.066	112.909
826.117	113.85
826.168	108.579
826.219	106.468
826.269	112.128
826.32	115.455
826.371	114.721
826.421	108.667
826.472	112.035
826.523	107.786
826.574	104.333
826.624	108.749
826.675	110.68
826.726	113.536
826.776	114.259
826.827	108.033
826.878	109.313
826.929	109.14
826.979	112.962
827.03	108.434
827.081	107.77
827.131	108.988
827.182	114.005
827.233	110.585
827.284	109.545
827.334	110.377
827.385	108.038
827.436	102.347
827.486	104.232
827.537	109.656
827.588	109.839
827.638	105.222
827.689	109.809
827.74	107.574
827.791	109.484
827.841	103.987
827.892	105.635
827.943	111.199
827.993	108.836
828.044	104.575
828.095	113.996
828.146	113.119
828.196	117.665
828.247	108.506
828.298	109.221
828.348	107.326
828.399	113.162
828.45	112.206
828.5	110.562
828.551	107.773
828.602	106.88
828.652	110.847
828.703	110.816
828.754	101.832
828.805	104.111
828.855	108.06
828.906	107.752
828.957	99.2944
829.007	98.8414
829.058	104.448
829.109	105.674
829.159	101.262
829.21	102.282
829.261	105.724
829.311	108.083
829.362	96.7075
829.413	100.578
829.463	102.994
829.514	104.874
829.565	104.754
829.615	105.727
829.666	104.037
829.717	104.678
829.767	100.221
829.818	104.371
829.869	103.565
829.919	106.936
829.97	106.076
830.021	92.696
830.071	98.1365
830.122	104.719
830.173	101.285
830.224	100.919
830.274	106.002
830.325	104.165
830.376	99.879
830.426	100.057
830.477	99.4559
830.528	100.875
830.578	98.3867
830.629	99.4175
830.68	103.795
830.73	104.82
830.781	101.598
830.831	99.7555
830.882	97.2912
830.933	106.027
830.983	101.423
831.034	104.165
831.085	108.15
831.135	101.968
831.186	97.081
831.237	95.5551
831.287	101.551
831.338	98.2692
831.389	95.8491
831.439	97.8807
831.49	103.758
831.541	98.4901
831.591	97.8643
831.642	94.8179
831.693	98.8102
831.743	100.134
831.794	95.6593
831.845	98.5909
831.895	110.731
831.946	99.5818
831.997	91.9057
832.047	93.1441
832.098	99.5491
832.148	98.8795
832.199	104.898
832.25	100.595
832.3	101.886
832.351	96.9407
832.402	98.8752
832.452	96.6067
832.503	103.255
832.554	98.9678
832.604	97.4417
832.655	100.92
832.706	102.3
832.756	97.2603
832.807	98.9638
832.857	93.5797
832.908	101.854
832.959	98.1925
833.009	101.918
833.06	98.351
833.111	104.697
833.161	93.8583
833.212	97.7206
833.263	101.552
833.313	99.4971
833.364	99.061
833.414	101.929
833.465	103.349
833.516	101.534
833.566	101.708
833.617	100.303
833.668	97.6888
833.718	101.339
833.769	101.032
833.819	104.222
833.87	93.3218
833.921	101.575
833.971	93.3886
834.022	100.32
834.073	96.7758
834.123	96.9292
834.174	98.0586
834.224	101.434
834.275	91.5154
834.326	98.938
834.376	98.0919
834.427	92.1045
834.477	92.0717
834.528	92.153
834.579	102.986
834.629	91.745
834.68	101.098
834.73	100.136
834.781	92.8162
834.832	94.3529
834.882	95.5831
834.933	94.6943
834.984	98.8679
835.034	94.0049
835.085	91.7769
835.135	95.3569
835.186	94.9952
835.237	94.9812
835.287	99.3932
835.338	92.6427
835.388	94.6815
835.439	89.3264
835.49	95.0115
835.54	99.4195
835.591	95.553
835.641	78.6418
835.692	88.9924
835.743	87.0989
835.793	97.7172
835.844	87.3481
835.894	95.7813
835.945	87.4983
835.996	97.6709
836.046	91.1808
836.097	102.677
836.099	102.834
836.15	92.0365
836.201	90.8067
836.251	78.2116
836.302	92.9053
836.353	91.2251
836.404	102.799
836.454	88.1825
836.505	103.887
836.556	95.1194
836.606	93.9788
836.657	91.9867
836.708	95.115
836.758	91.2003
836.809	94.7223
836.86	91.027
836.911	97.8136
836.961	96.9335
837.012	92.3234
837.063	86.6339
837.113	88.8317
837.164	92.3593
837.215	95.9226
837.265	94.8623
837.316	96.837
837.367	87.2143
837.418	90.1727
837.468	93.543
837.519	97.5081
837.57	87.9213
837.62	93.0959
837.671	84.6227
837.722	93.8146
837.772	95.5277
837.823	85.5155
837.874	93.4981
837.924	92.3821
837.975	84.6345
838.026	91.6191
838.077	90.228
838.127	89.6982
838.178	82.157
838.229	79.347
838.279	94.9839
838.33	88.7484
838.381	90.9814
838.431	88.2815
838.482	91.849
838.533	87.644
838.583	90.286
838.634	85.055
838.685	93.5088
838.735	90.0979
838.786	97.7326
838.837	85.5493
838.888	86.718
838.938	92.8582
838.989	88.9039
839.04	85.4277
839.09	90.0531
839.141	85.8259
839.192	83.0144
839.242	82.769
839.293	87.7544
839.344	91.2882
839.394	94.8829
839.445	87.5066
839.496	92.7218
839.546	94.6444
839.597	90.5578
839.648	84.9761
839.698	90.215
839.749	87.4946
839.8	88.7962
839.85	87.3852
839.901	90.2695
839.952	86.3793
840.002	91.4131
840.053	83.3888
840.104	91.9467
840.154	90.8167
840.205	87.839
840.256	84.6497
840.306	85.5648
840.357	88.1416
840.408	89.9316
840.458	86.993
840.509	82.6938
840.56	86.3716
840.61	84.9077
840.661	84.448
840.711	89.2586
840.762	84.8883
840.813	86.3212
840.863	86.4781
840.914	85.3847
840.965	86.3389
841.015	85.5859
841.066	86.9319
841.117	86.6003
841.167	85.553
841.218	86
841.269	82.204
841.319	90.2319
841.37	91.749
841.421	89.0857
841.471	85.8585
841.522	87.9155
841.573	78.8942
841.623	87
841.674	80.4592
841.724	87.7836
841.775	84.7994
841.826	84.141
841.876	91.9851
841.927	87.5555
841.978	85.263
842.028	83.4276
842.079	82.9238
842.13	82.5297
842.18	83.9132
842.231	78.9625
842.281	80.7094
842.332	85.1115
842.383	88.042
842.433	83.5356
842.484	83.3348
842.535	82.4639
842.585	85.6839
842.636	79.9015
842.687	82.4449
842.737	88.3743
842.788	88.2723
842.838	83.5534
842.889	83.6874
842.94	82.0014
842.99	87.2779
843.041	84.3919
843.092	81.4146
843.142	79.3466
843.193	87.1399
843.243	79.923
843.294	80.328
843.345	83.3271
843.395	87.9117
843.446	82.7522
843.497	81.5002
843.547	80.7698
843.598	87.6377
843.648	77.7894
843.699	82.5992
843.75	76.0113
843.8	81.2649
843.851	82.1435
843.901	81.9669
843.952	89.0355
844.003	81.429
844.053	77.6051
844.104	83.2569
844.155	85.6269
844.205	84.5642
844.256	78.6401
844.306	83.4795
844.357	85.0604
844.408	88.7092
844.458	85.0768
844.509	88.6415
844.559	85.9623
844.61	88.9991
844.661	86.3476
844.711	82.6978
844.762	81.0182
844.812	79.9852
844.863	79.2303
844.914	80.044
844.964	85.3016
845.015	76.6839
845.065	78.1667
845.116	84.2273
845.167	80.2666
845.217	78.3131
845.268	76.8052
845.318	81.8937
845.369	83.7285
845.42	80.594
845.47	77.5731
845.521	81.3417
845.571	83.0103
845.622	84.0867
845.673	78.1675
845.723	77.0887
845.774	79.4314
845.824	79.3853
845.875	79.8341
845.926	82.9712
845.976	84.1813
846.027	76.4249
846.077	73.4306
846.128	80.0136
846.178	82.4375
846.229	78.9231
846.28	78.4562
846.33	77.6517
846.381	77.2363
846.431	78.7323
846.482	80.2514
846.533	80.5764
846.583	78.1678
846.634	79.3175
846.684	80.5492
846.735	81.5419
846.785	85.8839
846.836	81.4303
846.887	76.1954
846.937	79.5187
846.988	78.9102
847.038	74.4965
847.089	76.7437
847.139	82.4918
847.19	79.2323
847.241	75.4302
847.291	82.5173
847.342	83.3571
847.392	80.0446
847.443	73.4796
847.493	79.1307
847.544	78.3826
847.595	79.5703
847.645	81.3189
847.696	81.8564
847.746	77.1191
847.797	78.8623
847.847	77.7406
847.898	80.9684
847.948	81.2981
847.999	78.3694
848.05	75.2924
848.1	77.3073
848.151	83.9443
848.201	85.8246
848.252	78.5024
848.302	75.3026
848.353	74.0994
848.404	76.5154
848.454	76.1257
848.505	73.6879
848.555	78.8879
848.606	82.8013
848.656	76.5298
848.707	76.5624
848.757	79.873
848.808	74.2066
848.859	74.6447
848.909	76.1563
848.96	84.4846
849.01	81.256
849.061	74.2488
849.111	72.9736
849.162	76.8766
849.212	72.9453
849.263	77.9963
849.313	79.6692
849.364	73.5235
849.414	78.8077
849.465	78.652
849.516	72.5885
849.566	81.741
849.617	78.2745
849.667	78.5986
849.718	76.6712
849.768	81.8596
849.819	75.3009
849.869	78.4249
849.92	74.5363
849.97	76.653
850.021	66.4869
850.071	76.1916
850.122	71.8315
850.173	76.7936
850.223	78.3835
850.274	76.8689
850.324	71.1482
850.375	73.9548
850.425	78.2198
850.476	80.3417
850.526	80.3444
850.577	79.7463
850.627	72.9174
850.678	73.878
850.728	70.7356
850.779	75.4644
850.829	77.1501
850.88	82.241
850.93	81.1607
850.981	80.0759
851.031	74.9369
851.082	75.874
851.133	73.2145
851.183	78.3958
851.234	74.7059
851.284	73.755
851.335	80.0564
851.385	76.1078
851.436	72.3555
851.486	68.1491
851.537	70.3442
851.587	73.9671
851.638	72.1432
851.688	73.8831
851.739	79.9212
851.789	72.1228
851.84	71.9117
851.89	72.5077
851.941	74.2036
851.991	77.1996
852.042	68.831
852.092	61.8315
852.143	71.2324
852.193	71.5032
852.244	70.9528
852.294	71.5038
852.345	75.6348
852.395	78.0639
852.446	75.29
852.496	68.2118
852.547	70.9911
852.597	73.9798
852.648	77.7182
852.698	71.9334
852.749	78.544
852.799	75.4721
852.85	70.4569
852.9	70.8191
852.951	73.1259
853.001	75.04
853.052	70.9797
853.102	67.7047
853.153	67.9814
853.203	69.2713
853.254	74.1711
853.304	68.8303
853.355	70.9786
853.405	72.3259
853.443	72.893
853.493	68.3284
853.544	68.3412
853.594	73.6747
853.645	72.951
853.696	64.151
853.746	69.9472
853.797	70.7834
853.847	72.2023
853.898	74.0557
853.949	67.7848
853.999	71.3235
854.05	65.0894
854.1	77.6759
854.151	74.8538
854.202	73.6772
854.252	76.1296
854.303	73.7875
854.353	67.87
854.404	66.5747
854.455	73.5384
854.505	78.3055
854.556	73.847
854.606	76.0089
854.657	64.1843
854.708	66.6124
854.758	68.7626
854.809	68.6065
854.859	65.692
854.91	72.8464
854.961	73.0084
855.011	74.4251
855.062	67.6862
855.112	66.6637
855.163	65.234
855.214	71.7854
855.264	67.9264
855.315	72.6153
855.365	68.3375
855.416	73.4865
855.466	66.5405
855.517	72.0135
855.568	71.3917
855.618	71.0101
855.669	68.425
855.719	66.7967
855.77	72.9188
855.821	75.3208
855.871	71.4803
855.922	68.7548
855.972	70.6794
856.023	69.1968
856.073	70.1258
856.124	72.0816
856.175	74.5178
856.225	72.3624
856.276	71.0018
856.326	66.1108
856.377	71.935
856.427	65.2912
856.478	70.3143
856.529	66.8218
856.579	67.825
856.63	68.7365
856.68	70.2569
856.731	70.4387
856.781	69.2453
856.832	69.4796
856.883	66.7837
856.933	68.899
856.984	72.2222
857.034	70.4643
857.085	74.3201
857.135	67.7137
857.186	69.0467
857.237	63.7403
857.287	75.264
857.338	70.019
857.388	71.2735
857.439	63.2938
857.489	66.9258
857.54	69.0635
857.59	70.3966
857.641	69.1448
857.692	65.6917
857.742	65.6559
857.793	66.1733
857.843	62.2859
857.894	66.172
857.944	65.4583
857.995	69.7704
858.045	67.4322
858.096	71.0187
858.147	66.4524
858.197	69.3879
858.248	66.4551
858.298	69.0125
858.349	63.4014
858.399	71.8167
858.45	63.8949
858.5	64.922
858.551	70.0281
858.601	72.8277
858.652	67.9523
858.703	70.5717
858.753	74.6217
858.804	70.4142
858.854	64.0571
858.905	67.0667
858.955	62.3284
859.006	69.9584
859.056	65.9641
859.107	70.0409
859.157	65.9169
859.208	68.2157
859.258	64.1606
859.309	65.9917
859.36	66.8656
859.41	68.6432
859.461	70.5256
859.511	63.4726
859.562	68.2122
859.612	64.8089
859.663	68.2178
859.713	64.1701
859.764	72.8506
859.814	72.3075
859.865	65.1322
859.915	65.9868
859.966	64.1778
860.016	68.5446
860.067	67.3126
860.117	69.592
860.168	64.5201
860.219	67.2554
860.269	66.6812
860.32	58.8086
860.37	65.1659
860.421	71.1036
860.471	66.3733
860.522	63.8311
860.572	65.5132
860.623	65.3816
860.673	66.8005
860.724	65.3988
860.774	69.9978
860.825	68.3517
860.875	64.064
860.926	62.5947
860.976	69.4456
861.027	65.2289
861.077	64.2095
861.128	65.8421
861.178	72.9294
861.229	60.9803
861.279	65.5619
861.33	63.5717
861.38	66.9239
861.431	65.4691
861.481	70.6811
861.532	64.6064
861.582	66.8334
861.633	62.5601
861.683	63.9148
861.734	66.5325
861.784	67.137
861.835	62.4926
861.885	63.6595
861.936	58.3631
861.986	70.1154
862.037	58.0397
862.087	65.9871
862.138	67.7614
862.188	64.2429
862.239	62.7521
862.289	64.695
862.34	65.7166
862.39	64.051
862.441	62.3608
862.491	59.2008
862.542	65.2046
862.592	66.943
862.643	68.8513
862.693	61.7803
862.744	59.6685
862.794	63.9514
862.845	64.15
862.895	67.8445
862.946	69.4182
862.996	63.8433
863.047	66.0086
863.097	63.8692
863.148	63.8942
863.198	67.9292
863.249	63.9447
863.299	64.7581
863.35	67.9738
863.4	64.9152
863.451	65.1192
863.501	66.4407
863.552	66.8618
863.602	61.9012
863.653	58.3839
863.703	62.716
863.754	64.1352
863.804	68.4961
863.854	68.0478
863.905	58.7865
863.955	64.5156
864.006	66.8347
864.056	70.8231
864.107	63.5041
864.157	69.9514
864.208	67.092
864.258	65.5695
864.309	61.1757
864.359	65.2256
864.41	60.2862
864.46	61.6322
864.511	59.8671
864.561	67.4044
864.612	68.2268
864.662	68.5674
864.712	60.9546
864.763	62.4574
864.813	63.0633
864.864	66.0539
864.914	62.1973
864.965	60.8457
865.015	63.7186
865.066	66.6574
865.116	60.002
865.167	62.7061
865.217	61.2422
865.268	64.8612
865.318	64.7258
865.368	64.7434
865.419	62.2146
865.469	58.2902
865.52	58.7921
865.57	61.4263
865.621	63.0665
865.671	63.9328
865.722	58.3908
865.772	61.0695
865.823	60.9843
865.873	55.071
865.923	61.0562
865.974	67.3816
866.024	63.9
866.075	66.1123
866.125	57.3493
866.176	63.7624
866.226	61.9398
866.276	62.6296
866.327	61.6275
866.377	63.7546
866.428	58.995
866.478	63.5403
866.529	64.3786
866.579	61.9221
866.63	58.7671
866.68	57.7418
866.73	62.7484
866.781	65.412
866.831	58.7649
866.882	58.672
866.932	57.9392
866.983	62.4018
867.033	60.8407
867.083	60.1108
867.134	59.5202
867.184	61.2802
867.235	63.4573
867.285	60.1341
867.336	62.3498
867.386	61.3068
867.436	64.6817
867.487	58.3806
867.537	62.168
867.588	61.7957
867.638	57.2218
867.689	59.1516
867.739	61.5276
867.789	55.2756
867.84	56.0969
867.89	58.0578
867.941	63.1635
867.991	65.2305
868.042	65.9886
868.092	63.2712
868.142	60.3191
868.193	61.453
868.243	63.7811
868.294	59.0867
868.344	68.5629
868.394	61.2444
868.445	65.8592
868.495	59.7142
868.546	64.5207
868.596	61.8143
868.647	62.1335
868.697	57.1981
868.747	63.2338
868.798	57.883
868.848	58.4573
868.899	59.7006
868.949	62.7106
868.999	63.7267
869.05	61.4938
869.1	60.8674
869.151	62.4415
869.201	57.8392
869.251	56.9145
869.302	56.1682
869.352	64.554
869.403	59.7497
869.453	62.4173
869.503	62.0458
869.554	62.8084
869.604	59.2614
869.655	58.4588
869.705	55.7867
869.755	58.5389
869.806	57.9855
869.856	61.4759
869.907	57.1032
869.957	62.7492
870.007	61.6844
870.058	61.9383
870.108	57.1959
870.159	54.2216
870.209	58.3234
870.259	64.1945
870.31	60.1254
870.36	60.5585
870.41	59.2017
870.461	56.9319
870.511	59.6055
870.562	60.2606
870.612	60.0792
870.662	54.7508
870.713	60.8832
870.731	62.7144
870.782	65.9949
870.832	65.258
870.883	58.9321
870.933	58.2453
870.984	57.6887
871.034	57.5306
871.085	57.0945
871.135	62.8759
871.186	56.0577
871.236	61.1227
871.287	54.3938
871.337	65.1754
871.388	64.3349
871.438	59.8161
871.489	57.487
871.539	63.4305
871.59	61.2032
871.64	62.0562
871.691	57.0163
871.741	58.8659
871.792	62.7215
871.842	62.1949
871.893	55.1053
871.943	61.6875
871.994	59.2716
872.044	57.2057
872.095	52.9281
872.145	61.7166
872.196	62.3619
872.246	58.0352
872.297	56.7123
872.347	62.1251
872.397	55.4985
872.448	63.7982
872.498	53.3
872.549	57.8016
872.599	56.3547
872.65	59.5844
872.7	55.4982
872.751	58.3055
872.801	58.8446
872.852	56.0093
872.902	55.1684
872.953	57.9208
873.003	59.6851
873.054	60.4376
873.104	54.0027
873.155	57.3037
873.205	59.1932
873.256	54.8658
873.306	51.2565
873.357	61.3454
873.407	57.2912
873.458	58.5971
873.508	59.6609
873.558	62.182
873.609	54.5383
873.659	55.5752
873.71	59.1865
873.76	62.1662
873.811	58.3668
873.861	55.2004
873.912	53.5462
873.962	57.1673
874.013	58.4701
874.063	57.2958
874.114	54.9059
874.164	59.2801
874.215	59.6186
874.265	52.2475
874.315	59.1079
874.366	59.2349
874.416	56.8979
874.467	45.4902
874.517	56
874.568	54.402
874.618	57.5215
874.669	49.8092
874.719	57.2877
874.77	56.9248
874.82	60.9113
874.87	53.7851
874.921	53.2357
874.971	61.6696
875.022	58.5144
875.072	57.0993
875.123	57.7176
875.173	54.3783
875.224	57.7092
875.274	48.1433
875.324	56.8004
875.375	55.7618
875.425	58.1463
875.476	55.6911
875.526	60.6556
875.577	58.7165
875.627	61.0554
875.678	57.652
875.728	58.4794
875.779	56.1475
875.829	51.2978
875.879	50.553
875.93	57.2216
875.98	56.0216
876.031	54.6432
876.081	48.4661
876.132	56.2797
876.182	57.6047
876.232	57.6342
876.283	46.6638
876.333	52.2729
876.384	48.8275
876.434	57.0548
876.485	58.1521
876.535	51.5017
876.585	58.5457
876.636	55.6437
876.686	49.8825
876.737	58.8897
876.787	53.6545
876.838	57.1611
876.888	51.5272
876.938	56.4435
876.989	54.9197
877.039	56.9083
877.09	55.1377
877.14	62.5698
877.191	59.5942
877.241	49.3943
877.291	51.876
877.342	61.5356
877.392	52.8682
877.443	51.9944
877.493	52.5843
877.544	56.8782
877.594	55.7547
877.644	55.4217
877.695	53.1362
877.745	52.2981
877.796	56.7218
877.846	50.7547
877.896	58.6866
877.947	52.9727
877.997	54.7607
878.048	56.1348
878.098	56.5182
878.148	60.0197
878.199	54.4223
878.249	54.7793
878.3	55.0893
878.35	54.7592
878.4	62.1884
878.451	56.6324
878.501	54.2111
878.552	54.5178
878.602	62.0837
878.653	53.0341
878.703	50.7859
878.753	54.6819
878.804	57.5377
878.854	51.9388
878.904	54.2588
878.955	49.466
879.005	53.986
879.056	47.5943
879.106	59.2066
879.156	49.8669
879.207	61.5411
879.257	56.1138
879.308	58.5263
879.358	58.0586
879.408	55.8866
879.459	50.995
879.509	51.953
879.56	51.2281
879.61	55.662
879.66	48.1355
879.711	52.4091
879.761	52.9962
879.812	56.4773
879.862	51.8978
879.912	51.5617
879.963	55.2099
880.013	58.636
880.063	50.0352
880.114	57.2913
880.164	48.4784
880.215	56.9868
880.265	53.2411
880.315	55.2832
880.366	53.4429
880.416	52.0884
880.467	52.701
880.517	59.4693
880.567	49.249
880.618	55.9201
880.668	50.9903
880.718	50.705
880.769	55.416
880.819	57.4973
880.87	52.3323
880.92	53.6055
880.97	56.082
881.021	53.281
881.071	52.8812
881.121	51.2271
881.172	54.6471
881.222	51.8305
881.273	50.7531
881.323	54.5234
881.373	55.2282
881.424	51.3745
881.474	53.8369
881.524	58.7387
881.575	53.143
881.625	48.9498
881.675	54.5136
881.726	47.4799
881.776	51.901
881.826	47.6475
881.877	51.5764
881.927	47.0336
881.978	52.9176
882.028	44.5667
882.078	50.994
882.129	49.7809
882.179	56.5927
882.229	47.5152
882.28	46.9716
882.33	52.3757
882.38	54.0152
882.431	49.1716
882.481	48.1223
882.531	49.5039
882.582	55.8324
882.632	46.3409
882.682	50.4356
882.733	47.9968
882.783	53.6827
882.834	51.9226
882.884	52.7708
882.934	51.2105
882.985	56.5152
883.035	52.767
883.085	52.2475
883.136	55.9477
883.186	55.283
883.236	49.1196
883.287	51.6319
883.337	50.7829
883.387	54.7555
883.438	48.9817
883.488	52.4315
883.538	50.2553
883.589	50.7219
883.639	49.2601
883.689	53.2203
883.74	48.9476
883.79	54.8094
883.84	54.876
883.891	52.4372
883.941	46.1656
883.991	47.5698
884.042	53.6346
884.092	51.9713
884.142	50.9744
884.193	56.1572
884.243	50.6937
884.293	47.9904
884.344	49.4522
884.394	51.9752
884.444	53.6858
884.495	51.5248
884.545	52.7969
884.595	51.3421
884.646	48.7046
884.696	51.5593
884.746	51.1758
884.797	48.3021
884.847	51.0084
884.897	50.4209
884.947	52.4433
884.998	51.6675
885.048	49.8997
885.098	47.7347
885.149	51.5529
885.199	52.1922
885.249	50.6574
885.3	46.7864
885.35	48.3869
885.4	49.9857
885.451	51.1403
885.501	53.899
885.551	55.3384
885.602	52.7185
885.652	53.8057
885.702	56.384
885.752	50.2166
885.803	47.5077
885.853	48.4769
885.903	48.8348
885.954	52.1063
886.004	52.8698
886.054	53.1998
886.105	52.0182
886.155	54.4273
886.205	51.4314
886.255	50.6089
886.306	48.4219
886.356	50.0259
886.406	49.9062
886.457	49.5297
886.507	50.6886
886.557	51.5324
886.608	51.5946
886.658	45.5693
886.708	46.8719
886.758	56.3878
886.809	55.5515
886.859	54.539
886.909	54.2382
886.96	53.6227
887.01	52.1497
887.06	48.9092
887.11	46.967
887.161	48.2987
887.211	50.9314
887.261	51.1978
887.312	46.1444
887.362	48.6227
887.412	46.7467
887.462	46.3626
887.513	44.9459
887.563	46.4383
887.613	48.2048
887.664	48.8188
887.714	45.8384
887.764	47.9895
887.814	49.2138
887.865	46.9949
887.915	47.3524
887.965	49.7912
887.987	53.2607
888.038	50.0037
888.088	49.3754
888.138	49.9525
888.189	49.0022
888.239	50.66
888.289	47.8035
888.34	47.6422
888.39	51.7681
888.441	54.4956
888.491	47.0515
888.542	55.5867
888.592	50.6831
888.642	48.6651
888.693	52.776
888.743	51.4329
888.793	44.2747
888.844	45.0411
888.894	47.491
888.945	50.2744
888.995	50.8548
889.045	52.8087
889.096	44.8403
889.146	49.3163
889.197	41.2777
889.247	48.1024
889.297	45.6286
889.348	55.8549
889.398	48.7862
889.448	49.1655
889.499	51.0029
889.549	51.4019
889.6	43.4144
889.65	49.0657
889.7	49.6889
889.751	51.1757
889.801	46.918
889.851	48.547
889.902	43.7713
889.952	43.0143
890.003	44.3899
890.053	47.4845
890.103	46.2316
890.154	50.0912
890.204	46.1677
890.254	50.2863
890.305	45.1518
890.355	45.1273
890.406	48.0401
890.456	51.9207
890.506	50.5177
890.557	51.4186
890.607	50.5951
890.657	50.4945
890.708	49.3514
890.758	48.8396
890.808	49.4318
890.859	52.6738
890.909	51.478
890.96	47.7509
891.01	47.0474
891.06	45.2147
891.111	46.2156
891.161	48.9174
891.211	52.6874
891.262	52.6958
891.312	47.8436
891.362	46.7573
891.413	48.0485
891.463	48.704
891.513	48.7179
891.564	44.7879
891.614	43.1828
891.665	46.3451
891.715	47.2104
891.765	45.1215
891.816	44.8359
891.866	43.133
891.916	52.5784
891.967	48.5854
892.017	46.7975
892.067	48.7725
892.118	48.8319
892.168	44.827
892.218	46.859
892.269	43.8004
892.319	50.1094
892.369	51.2124
892.42	46.1775
892.47	47.6773
892.52	48.4392
892.571	47.7848
892.621	49.2232
892.671	50.2138
892.722	54.9506
892.772	48.3804
892.822	47.0408
892.873	40.7357
892.923	46.7164
892.973	46.6229
893.024	46.2868
893.074	43.359
893.124	48.036
893.175	45.4068
893.225	52.6386
893.275	46.8588
893.326	48.2503
893.376	45.1253
893.426	48.3272
893.477	48.0389
893.527	48.2367
893.577	48.5001
893.628	46.1532
893.678	44.0965
893.728	46.5127
893.779	44.0931
893.829	44.4095
893.879	50.0183
893.93	50.2533
893.98	43.6696
894.03	45.5118
894.081	44.1278
894.131	42.7203
894.181	42.6093
894.232	46.1073
894.282	47.6311
894.332	47.8664
894.383	43.6705
894.433	45.2542
894.483	44.1568
894.533	48.0396
894.584	43.9459
894.634	44.8176
894.684	45.16
894.735	48.2889
894.785	44.7667
894.835	46.1576
894.886	47.9289
894.936	49.5995
894.986	43.6009
895.037	42.8255
895.087	46.4638
895.137	45.1702
895.188	43.569
895.238	44.7429
895.288	49.2191
895.338	48.8761
895.389	44.325
895.439	49.8304
895.489	47.7166
895.54	48.0723
895.59	49.3733
895.64	46.1391
895.69	48.0918
895.741	48.5821
895.791	46.0684
895.841	47.057
895.892	46.8142
895.942	45.8854
895.992	43.1487
896.043	44.9947
896.093	47.1215
896.143	42.6854
896.193	43.2017
896.244	44.3465
896.294	43.8364
896.344	45.2169
896.395	43.1528
896.445	45.5919
896.495	47.6917
896.545	44.5364
896.596	42.1079
896.646	45.1872
896.696	47.8687
896.747	46.3091
896.797	41.6723
896.847	41.1467
896.897	44.7923
896.948	46.2592
896.998	42.4388
897.048	45.1509
897.099	48.1598
897.149	41.582
897.199	43.8684
897.249	46.3821
897.3	46.9564
897.35	41.2413
897.4	44.3002
897.451	43.819
897.501	47.6271
897.551	45.9235
897.601	43.0614
897.652	41.3628
897.702	47.4614
897.752	43.6727
897.802	40.5694
897.853	43.9105
897.903	45.457
897.953	41.9762
898.003	44.5437
898.054	39.9856
898.104	46.5377
898.154	44.4135
898.204	46.9064
898.255	42.9839
898.305	40.8921
898.355	44.1935
898.406	44.5673
898.456	44.2526
898.506	42.8843
898.556	41.7657
898.607	43.1971
898.657	43.3997
898.707	47.8572
898.757	43.76
898.808	43.6455
898.858	42.3941
898.908	44.0388
898.958	38.992
899.009	43.732
899.059	40.0082
899.109	45.302
899.159	44.9839
899.21	40.7047
899.26	42.6075
899.31	41.9104
899.36	40.8205
899.411	42.816
899.461	45.0425
899.511	51.4935
899.561	45.2099
899.612	42.0792
899.662	42.8994
899.712	42.8727
899.762	43.2512
899.813	50.2864
899.863	44.0266
899.913	49.4823
899.963	45.3333
