#Acq. time (s)=	5
#Accumulations=	2
#Range (nm)=	520...900
#Windows=	8
#Auto scanning=	Off
#Autofocus=	Off
#AutoExposure=	Off
#Spike filter=	Multiple accum.
#Delay time (s)=	0
#Binning=	1
#Readout mode=	Signal
#DeNoise=	Off
#ICS correction=	On
#Dark correction=	Off
#Inst. Process=	Off
#Detector temperature (°C)=	-59.98
#Instrument=	LabRAM HR Evol
#Detector=	Syncerity OE
#Objective=	x50_VIS
#Grating=	600 (500nm)
#ND Filter=	10%
#Laser=	514nm_Edge
#Hole=	199.981
#Range=	Auto
#StageXY=	Marzhauser
#StageZ=	Marzhauser
#X (µm)=	-10816.9
#Y (µm)=	7181.2
#Z (µm)=	-8.4
#Full time(mm:ss)=	2:05
#Project=	
#Sample=	
#Site=	
#Title=	LT_191023_M2
#Remark=	
#Date=	27.10.2023 13:31
#Acquired=	27.10.2023 13:31:10
520.044	21.6206
520.097	28.7638
520.149	35.8769
520.201	28.642
520.254	35.7331
520.306	32.1035
520.359	32.0556
520.411	24.9031
520.464	31.9935
520.516	37.3125
520.569	33.761
520.621	30.2202
520.674	33.8003
520.726	39.1743
520.778	24.9558
520.831	26.7676
520.883	35.7259
520.936	33.9658
520.988	39.3499
521.041	26.8372
521.093	37.5754
521.146	35.7845
521.198	26.8349
521.25	26.8299
521.303	39.3397
521.355	37.5356
521.408	32.1529
521.46	26.7706
521.513	28.5243
521.565	33.8318
521.617	28.456
521.67	28.4258
521.722	31.9516
521.775	31.931
521.827	26.5965
521.88	28.3595
521.932	30.1238
521.984	35.4341
522.037	30.1195
522.089	31.9001
522.142	37.2387
522.194	28.3974
522.247	26.6516
522.299	30.2407
522.352	30.2751
522.404	35.6536
522.456	33.8999
522.509	30.3538
522.561	33.9474
522.614	32.1811
522.666	33.9895
522.719	30.428
522.771	28.6499
522.823	34.0289
522.876	30.4454
522.928	35.805
522.981	30.4121
523.033	30.3781
523.086	24.9796
523.138	32.0582
523.19	31.9941
523.243	24.835
523.295	28.3328
523.348	31.8296
523.4	31.7973
523.453	31.7748
523.505	29.9925
523.557	35.264
523.61	29.9521
523.662	35.2072
523.715	40.4536
523.767	33.3964
523.82	33.3878
523.872	31.6379
523.924	35.1782
523.977	33.4553
524.029	28.209
524.082	37.0739
524.134	33.5865
524.186	37.1673
524.239	37.2107
524.291	26.6096
524.344	33.7443
524.396	37.3396
524.449	39.1621
524.501	28.512
524.553	35.6741
524.606	33.9175
524.658	28.5792
524.711	37.5238
524.763	35.7401
524.815	32.1595
524.868	28.5721
524.92	32.1197
524.973	35.6558
525.025	33.8397
525.078	35.5871
525.13	32.0026
525.182	30.2063
525.235	31.9707
525.287	24.8615
525.34	33.7395
525.392	35.5169
525.444	30.1909
525.497	30.191
525.549	42.6192
525.602	37.2866
525.654	26.6297
525.706	31.9545
525.759	39.0624
525.811	30.1993
525.864	30.2248
525.916	30.2609
525.969	35.6531
526.021	35.7107
526.073	28.6157
526.126	28.661
526.178	30.4968
526.231	34.1304
526.283	35.971
526.335	25.2095
526.388	36.0536
526.44	32.4813
526.493	32.51
526.545	30.7257
526.597	39.7832
526.65	37.9865
526.702	32.5633
526.755	37.9868
526.807	36.1676
526.859	34.3435
526.912	34.323
526.964	36.1049
527.017	36.0802
527.069	30.6493
527.121	28.8323
527.174	34.2266
527.226	30.6171
527.279	30.6122
527.331	34.2078
527.383	39.5997
527.436	35.9879
527.488	32.3757
527.54	32.3607
527.593	35.9394
527.645	39.5163
527.698	23.3421
527.75	34.1065
527.802	35.897
527.855	35.8985
527.907	25.1349
527.96	32.3308
528.012	37.7434
528.064	32.3771
528.117	34.2064
528.169	30.635
528.222	41.4895
528.274	30.6997
528.326	34.3532
528.379	41.6421
528.431	39.891
528.484	39.9531
528.536	34.5574
528.588	34.605
528.641	40.116
528.693	29.2033
528.745	34.7067
528.798	36.5597
528.85	40.2436
528.903	34.7792
528.955	31.1363
529.007	36.645
529.06	38.4803
529.112	36.6379
529.164	40.2781
529.217	34.758
529.269	40.211
529.322	31.046
529.374	29.1969
529.426	40.1149
529.479	41.9031
529.531	40.0415
529.584	39.9957
529.636	30.8676
529.688	29.0173
529.741	34.4231
529.793	41.6387
529.845	34.3804
529.898	36.1794
529.95	34.3634
530.003	43.397
530.055	39.7694
530.107	27.1063
530.16	28.9036
530.212	39.7321
530.264	36.1165
530.317	37.9267
530.369	30.7136
530.422	39.7706
530.474	36.1843
530.526	32.5981
530.579	36.2613
530.631	36.307
530.683	41.8109
530.736	25.4886
530.788	25.5302
530.841	38.3612
530.893	34.7679
530.945	34.8247
530.998	38.5449
531.05	40.4256
531.102	42.2976
531.155	34.9617
531.207	29.4553
531.259	38.6798
531.312	38.7053
531.364	35.0486
531.417	40.6228
531.469	46.2101
531.521	38.854
531.574	35.1818
531.626	37.0551
531.678	44.4843
531.731	33.3736
531.783	33.3842
531.835	48.241
531.888	33.4154
531.94	40.8672
531.992	40.8955
532.045	39.0623
532.097	37.2227
532.15	33.5144
532.202	35.3871
532.254	35.3964
532.307	31.6804
532.359	33.5593
532.411	29.8499
532.464	39.2111
532.516	29.9044
532.568	33.6768
532.621	33.7089
532.673	43.106
532.726	43.1291
532.778	37.5139
532.83	35.6399
532.883	45.0144
532.935	45.0073
532.987	35.6256
533.04	39.372
533.092	39.3698
533.144	37.493
533.197	41.2383
533.249	44.9801
533.301	41.2237
533.354	31.8491
533.406	41.2124
533.458	44.9594
533.511	44.9632
533.563	31.8514
533.615	33.7238
533.668	39.3348
533.72	37.444
533.773	43.0325
533.825	33.6531
533.877	48.5766
533.93	39.212
533.982	35.4596
534.034	35.4414
534.087	50.3312
534.139	40.9741
534.191	37.2067
534.244	35.3
534.296	40.8198
534.348	42.6266
534.401	38.8879
534.453	37.0195
534.505	38.8663
534.558	42.5734
534.61	44.4351
534.662	44.4466
534.715	44.457
534.767	35.2033
534.819	40.774
534.872	44.5002
534.924	42.6726
534.976	37.1361
535.029	35.3111
535.081	39.0631
535.133	46.5397
535.186	39.1152
535.238	35.4011
535.29	39.132
535.343	46.5864
535.395	37.2708
535.447	41.0055
535.5	41.0212
535.552	39.1789
535.604	35.4719
535.657	46.7073
535.709	41.1309
535.761	44.8994
535.814	41.1849
535.866	43.0882
535.918	44.9996
535.971	43.1653
536.023	41.3275
536.075	43.2398
536.128	45.1399
536.18	45.1388
536.232	48.8751
536.285	39.4399
536.337	46.9
536.389	39.3537
536.442	39.3213
536.494	39.3033
536.546	39.2993
536.599	37.4325
536.651	35.5658
536.703	50.5383
536.755	37.421
536.808	41.1306
536.86	39.2169
536.912	37.3009
536.965	40.9791
537.017	39.0753
537.069	40.8997
537.122	42.7226
537.174	48.2505
537.226	42.6379
537.279	40.7351
537.331	51.7786
537.383	46.174
537.436	38.7449
537.488	42.4004
537.54	51.5898
537.593	44.2048
537.645	44.1938
537.697	42.3402
537.75	42.322
537.802	47.8131
537.854	45.939
537.906	45.9007
537.959	45.8645
538.011	34.8351
538.063	40.32
538.116	42.1484
538.168	43.9882
538.22	40.3376
538.273	40.3575
538.325	45.8847
538.377	42.2337
538.43	40.412
538.482	34.9097
538.534	51.4532
538.586	44.1068
538.639	42.2731
538.691	38.603
538.743	44.1281
538.796	44.1421
538.848	45.9984
538.9	36.8124
538.953	42.3473
539.005	49.721
539.057	38.6721
539.109	36.824
539.162	51.536
539.214	45.9936
539.266	51.4877
539.319	42.2742
539.371	47.7702
539.423	38.573
539.476	47.7482
539.528	45.9061
539.58	45.9017
539.633	51.4046
539.685	44.0551
539.737	42.2119
539.789	47.7066
539.842	42.19
539.894	38.5086
539.946	45.827
539.999	45.8095
540.051	38.4654
540.103	42.1136
540.155	49.4217
540.208	47.5787
540.26	49.4002
540.312	53.0577
540.365	47.5762
540.417	38.4411
540.469	45.7895
540.521	40.3239
540.574	49.5262
540.626	42.2173
540.678	44.0736
540.731	47.7573
540.783	47.7587
540.835	40.4088
540.888	49.5921
540.94	53.274
540.992	47.7805
541.044	40.4518
541.097	47.8372
541.149	47.8672
541.201	49.7357
541.254	47.9157
541.306	49.7781
541.358	55.3286
541.41	51.6568
541.463	53.5161
541.515	47.9883
541.567	49.837
541.62	46.1439
541.672	47.9874
541.724	46.1437
541.776	55.3846
541.829	44.3265
541.881	48.0482
541.933	44.3792
541.985	48.1012
542.038	46.2626
542.09	49.96
542.142	49.94
542.195	44.361
542.247	53.5559
542.299	53.5038
542.351	49.765
542.404	49.7188
542.456	38.6374
542.508	47.8009
542.56	36.7464
542.613	51.4177
542.665	49.5599
542.717	51.3771
542.77	49.5263
542.822	55.0114
542.874	47.6594
542.926	47.6394
542.979	54.9421
543.031	45.761
543.083	51.2249
543.135	47.5428
543.188	54.8365
543.24	54.8258
543.292	53.0004
543.344	49.3599
543.397	58.5319
543.449	42.0991
543.501	49.4572
543.554	53.1546
543.606	44.0083
543.658	51.3492
543.71	49.507
543.763	47.6558
543.815	60.4598
543.867	47.6177
543.919	47.6087
543.972	45.7787
544.024	54.946
544.076	49.4678
544.128	51.3192
544.181	56.8389
544.233	47.6883
544.285	45.8701
544.337	55.0637
544.39	58.7559
544.442	58.7767
544.494	53.2829
544.547	47.7825
544.599	49.6287
544.651	55.1492
544.703	53.315
544.755	47.8024
544.808	62.5128
544.86	47.803
544.912	58.8288
544.965	47.79
545.017	55.1297
545.069	56.9545
545.121	62.4556
545.174	60.6124
545.226	55.0979
545.278	45.9077
545.33	53.234
545.383	58.7034
545.435	60.4821
545.487	49.4308
545.539	51.2049
545.591	52.9847
545.644	54.7778
545.696	51.1105
545.748	62.0568
545.8	60.2277
545.853	56.5652
545.905	58.3619
545.957	45.5611
546.009	61.9056
546.062	58.2078
546.114	54.5217
546.166	52.6659
546.218	61.7101
546.271	56.2367
546.323	59.8354
546.375	56.1796
546.427	63.3943
546.48	65.1727
546.532	70.5757
546.584	56.0855
546.636	66.9374
546.689	63.3266
546.741	65.1517
546.793	56.1208
546.845	67.0072
546.898	56.1625
546.95	57.9956
547.002	63.4534
547.054	68.9092
547.106	65.2907
547.159	68.917
547.211	68.9069
547.263	65.2648
547.315	59.8107
547.368	68.8589
547.42	65.2289
547.472	70.6687
547.524	52.5594
547.577	74.3321
547.629	67.1051
547.681	74.3851
547.733	70.7738
547.785	68.9683
547.838	72.6016
547.89	68.9719
547.942	68.973
547.994	56.2716
548.047	74.435
548.099	74.4508
548.151	69.0189
548.203	72.6642
548.255	72.6688
548.308	69.0295
548.36	69.0132
548.412	70.8038
548.464	79.8467
548.517	74.3693
548.569	72.5259
548.621	79.7526
548.673	76.1114
548.725	74.2926
548.778	68.8582
548.83	79.7386
548.882	77.935
548.934	67.0625
548.987	72.4897
549.039	72.4611
549.091	72.4122
549.143	72.346
549.195	68.6567
549.248	74.0009
549.3	79.3468
549.352	70.2869
549.404	72.0626
549.456	88.2576
549.509	84.6372
549.561	66.6056
549.613	73.7637
549.665	84.4923
549.718	73.6411
549.77	75.3744
549.822	73.5318
549.874	84.2582
549.926	82.4501
549.979	84.2369
550.031	82.4379
550.083	87.7948
550.135	82.3832
550.187	76.9582
550.24	80.4677
550.292	94.6815
550.344	83.8836
550.396	90.9502
550.448	85.5538
550.501	87.316
550.553	78.4113
550.605	85.5631
550.657	96.2908
550.709	85.6117
550.762	87.3955
550.814	92.7209
550.866	90.8924
550.918	94.3994
550.97	92.5647
551.023	96.0811
551.075	106.723
551.127	106.696
551.179	101.333
551.231	95.9617
551.284	99.4641
551.336	106.507
551.388	102.904
551.44	104.643
551.492	120.595
551.545	106.422
551.597	117.094
551.649	127.769
551.701	129.558
551.753	127.774
551.806	149.036
551.858	168.505
551.91	173.786
551.962	195.045
552.014	205.69
552.067	234.092
552.119	303.306
552.171	388.506
552.223	613.887
552.275	1361.05
552.327	2831.02
552.38	5539.84
552.432	9688.91
552.484	15094.4
552.536	15472.1
552.588	9030.26
552.641	3773.54
552.693	1355.38
552.745	657.805
552.797	408.647
552.849	332.031
552.901	251.991
552.954	212.868
553.006	186.224
553.058	179.124
553.11	163.176
553.162	145.466
553.215	136.636
553.267	143.795
553.319	134.99
553.371	117.298
553.423	126.257
553.475	115.64
553.528	110.329
553.58	110.324
553.632	104.95
553.684	99.5586
553.736	110.155
553.788	106.54
553.841	101.175
553.893	102.94
553.945	102.957
553.997	104.769
554.049	104.811
554.102	95.9627
554.154	101.316
554.206	97.7679
554.258	104.874
554.31	99.5309
554.362	106.626
554.414	95.9479
554.467	108.362
554.519	97.6749
554.571	104.74
554.623	95.8246
554.675	94.0146
554.727	97.5334
554.78	92.1945
554.832	99.271
554.884	88.6186
554.936	108.083
554.988	102.723
555.04	93.8145
555.093	95.5243
555.145	95.4654
555.197	98.9463
555.249	113.026
555.301	95.3198
555.353	98.7957
555.406	100.49
555.458	96.881
555.51	105.582
555.562	103.711
555.614	100.089
555.666	99.9948
555.719	106.931
555.771	108.625
555.823	98.0816
555.875	92.8141
555.927	110.322
555.979	122.574
556.031	105.048
556.084	108.515
556.136	104.961
556.188	101.397
556.24	106.571
556.292	104.767
556.344	113.46
556.396	109.962
556.449	111.726
556.501	111.758
556.553	101.308
556.605	101.324
556.657	111.803
556.709	106.543
556.762	106.514
556.814	109.974
556.866	108.202
556.918	106.441
556.97	104.694
557.022	95.98
557.074	109.968
557.127	110.011
557.179	117.055
557.231	104.888
557.283	115.45
557.335	110.271
557.387	108.583
557.439	117.401
557.492	119.21
557.544	103.48
557.596	112.303
557.648	117.629
557.7	112.426
557.752	117.77
557.804	114.328
557.856	110.883
557.909	114.476
557.961	114.545
558.013	107.559
558.065	123.502
558.117	102.394
558.169	123.66
558.221	118.438
558.273	118.504
558.326	118.545
558.378	123.858
558.43	116.745
558.482	116.681
558.534	113.072
558.586	120.076
558.638	109.457
558.691	116.531
558.743	123.639
558.795	125.462
558.847	125.507
558.899	113.147
558.951	120.196
559.003	125.442
559.055	120.065
559.108	121.74
559.16	123.404
559.212	130.339
559.264	124.929
559.316	124.788
559.368	128.148
559.42	122.733
559.472	129.608
559.525	115.498
559.577	124.174
559.629	124.124
559.681	129.322
559.733	127.513
559.785	127.422
559.837	127.292
559.889	128.874
559.941	123.479
559.994	138.943
560.046	121.427
560.098	128.231
560.15	114.261
560.202	129.721
560.254	124.401
560.306	131.147
560.358	120.615
560.41	137.622
560.463	123.657
560.515	125.184
560.567	125.018
560.619	136.85
560.671	123.041
560.723	121.211
560.775	124.493
560.827	126.053
560.879	131.008
560.932	135.962
560.984	146.025
561.036	132.352
561.088	130.595
561.14	132.244
561.192	147.447
561.244	137.21
561.296	120.192
561.348	131.947
561.4	135.241
561.453	138.557
561.505	143.602
561.557	135.17
561.609	140.282
561.661	133.571
561.713	131.918
561.765	157.308
561.817	137.011
561.869	138.695
561.921	133.618
561.974	147.161
562.026	150.571
562.078	140.452
562.13	130.323
562.182	150.645
562.234	148.95
562.286	142.172
562.338	159.099
562.39	148.968
562.442	150.714
562.494	149.098
562.547	154.276
562.599	140.8
562.651	161.243
562.703	144.334
562.755	147.783
562.807	151.229
562.859	141.08
562.911	156.434
562.963	158.199
563.015	154.864
563.067	160.038
563.12	153.29
563.172	156.753
563.224	151.685
563.276	151.716
563.328	151.731
563.38	160.255
563.432	156.833
563.484	146.585
563.536	167.012
563.588	151.65
563.64	161.847
563.692	168.626
563.744	163.466
563.797	163.391
563.849	170.102
563.901	163.199
563.953	161.41
564.005	164.742
564.057	159.613
564.109	163.003
564.161	168.104
564.213	179.99
564.265	166.379
564.317	181.587
564.369	169.599
564.421	179.628
564.474	157.452
564.526	165.757
564.578	157.146
564.63	167.115
564.682	165.246
564.734	175.152
564.786	164.83
564.838	174.685
564.89	171.103
564.942	162.53
564.994	162.377
565.046	165.602
565.098	168.84
565.15	152.025
565.202	173.607
565.255	186.778
565.307	163.236
565.359	171.333
565.411	186.041
565.463	170.854
565.515	182.23
565.567	182.02
565.619	165.305
565.671	178.372
565.723	178.233
565.775	176.459
565.827	177.989
565.879	182.811
565.931	187.617
565.983	172.668
566.035	174.159
566.087	185.486
566.139	178.751
566.192	175.312
566.244	181.715
566.296	166.857
566.348	183.088
566.4	178.062
566.452	189.36
566.504	185.948
566.556	189.051
566.608	190.519
566.66	191.993
566.712	178.852
566.764	173.877
566.816	194.925
566.868	191.63
566.92	198.106
566.972	193.24
567.024	180.272
567.076	183.556
567.128	193.347
567.18	188.513
567.232	186.919
567.285	198.318
567.337	208.086
567.389	186.968
567.441	204.883
567.493	196.803
567.545	191.991
567.597	200.209
567.649	198.663
567.701	201.992
567.753	195.532
567.805	189.06
567.857	203.78
567.909	202.214
567.961	205.559
568.013	207.288
568.065	202.488
568.117	191.154
568.169	207.435
568.221	207.54
568.273	201.208
568.325	213.684
568.377	213.792
568.429	207.458
568.481	210.198
568.533	201.067
568.585	219.145
568.637	209.555
568.69	225.635
568.742	211.84
568.794	199.395
568.846	204.077
568.898	227.145
568.95	205.998
569.002	230.317
569.054	213.589
569.106	228.832
569.158	210.68
569.21	232.059
569.262	221.407
569.314	219.1
569.366	220.073
569.418	220.296
569.47	233.649
569.522	225.527
569.574	226.539
569.626	211.208
569.678	232.803
569.73	228.964
569.782	213.596
569.834	236.765
569.886	235.237
569.938	223.796
569.99	239.666
570.042	234.832
570.094	239.525
570.146	248.103
570.198	234.687
570.25	240.071
570.302	245.906
570.354	243.867
570.406	242.99
570.458	238.569
570.51	247.233
570.562	249.456
570.614	247.79
570.666	243.354
570.718	250.533
570.77	262.441
570.822	257.052
570.874	256.498
570.926	252.18
570.978	263.995
571.03	254.502
571.082	263.982
571.134	268.547
571.186	263.272
571.238	265.997
571.29	273.344
571.342	279.794
571.394	279.228
571.446	281.092
571.498	287.386
571.55	284.258
571.602	288.346
571.654	283.086
571.706	278.269
571.758	276.369
571.81	290.358
571.862	278.588
571.914	282.514
571.966	277.786
572.018	292.988
572.07	303.938
572.122	300.946
572.174	313.117
572.226	305.439
572.278	315.937
572.33	315.417
572.382	317.013
572.434	321.912
572.486	328.9
572.538	329.611
572.59	317.479
572.642	340.499
572.694	335.953
572.746	350.804
572.798	353.055
572.85	341.484
572.902	351.003
572.954	355.448
573.006	362.999
573.058	376.002
573.11	354.217
573.162	374.487
573.214	385.596
573.266	388.157
573.312	398.906
573.364	409.721
573.416	403.543
573.469	391.191
573.521	405.136
573.573	400.527
573.625	411.369
573.677	436.092
573.73	429.826
573.782	440.501
573.834	435.674
573.886	450.929
573.938	446.168
573.991	443.07
574.043	467.909
574.095	471.264
574.147	477.777
574.199	478.074
574.252	492.169
574.304	498.329
574.356	482.616
574.408	496.124
574.46	504.905
574.513	521.433
574.565	533.407
574.617	530.042
574.669	542.123
574.721	541.883
574.774	557.005
574.826	558.239
574.878	579.432
574.93	551.448
574.982	552.683
575.035	587.695
575.087	588.944
575.139	576.394
575.191	585.303
575.243	601.862
575.296	589.337
575.348	601.329
575.4	578.148
575.452	590.136
575.504	585.262
575.556	623.095
575.609	610.47
575.661	626.841
575.713	624.965
575.765	600.347
575.817	601.757
575.87	616.954
575.922	621.491
575.974	595.497
576.026	605.944
576.078	599.532
576.131	593.058
576.183	572.913
576.235	606.002
576.287	595.119
576.339	573.703
576.391	584.221
576.444	576.553
576.496	550.675
576.548	568.763
576.6	576.19
576.652	582.056
576.705	557.575
576.757	563.374
576.809	549.471
576.861	540.115
576.913	568.583
576.965	532.054
577.018	539.403
577.07	536.207
577.122	522.473
577.174	525.379
577.226	501.134
577.279	511.626
577.331	508.546
577.383	496.424
577.435	506.937
577.487	494.811
577.539	481.161
577.592	497.646
577.644	480.919
577.696	471.705
577.748	480.552
577.8	501.432
577.852	459.086
577.905	455.914
577.957	460.285
578.009	470.682
578.061	472.053
578.113	459.886
578.165	461.232
578.218	456.556
578.27	427.857
578.322	442.699
578.374	468.029
578.426	424.354
578.478	448.14
578.531	440.408
578.583	429.649
578.635	441.302
578.687	439.453
578.739	433.106
578.791	429.747
578.844	411.484
578.896	405.173
578.948	421.199
579	423.81
579.052	418.979
579.104	418.595
579.157	419.672
579.209	420.717
579.261	401.007
579.313	410.869
579.365	420.678
579.417	411.289
579.47	416.658
579.522	414.699
579.574	403.989
579.626	408.045
579.678	407.761
579.73	407.528
579.782	410.249
579.835	411.489
579.887	418.543
579.939	422.612
579.991	409.093
580.043	397.029
580.095	408.318
580.148	391.927
580.2	400.357
580.252	388.454
580.304	399.868
580.356	406.928
580.408	403.81
580.46	397.78
580.513	407.706
580.565	403.125
580.617	394.226
580.669	407.104
580.721	409.877
580.773	396.753
580.826	392.338
580.878	413.984
580.93	409.571
580.982	402.265
581.034	425.349
581.086	407.929
581.138	399.198
581.191	397.703
581.243	396.213
581.295	403.412
581.347	404.852
581.399	412.111
581.451	419.407
581.503	409.363
581.556	405.087
581.608	413.789
581.66	416.647
581.712	413.675
581.764	430.944
581.816	429.448
581.868	409.224
581.92	432.454
581.973	441.268
582.025	437.05
582.077	435.662
582.129	438.524
582.181	432.62
582.233	432.457
582.285	435.19
582.338	419.179
582.39	420.586
582.442	435.066
582.494	404.774
582.546	427.971
582.598	441.023
582.65	433.782
582.703	438.052
582.755	456.73
582.807	427.692
582.859	440.565
582.911	436.128
582.963	451.944
583.015	466.347
583.067	441.783
583.12	447.526
583.172	448.9
583.224	443.01
583.276	441.41
583.328	455.648
583.38	462.664
583.432	429.34
583.484	452.205
583.537	463.501
583.589	451.698
583.641	444.132
583.693	462.337
583.745	450.326
583.797	446.936
583.849	447.902
583.901	464.691
583.953	434.407
584.006	472.79
584.058	455.483
584.11	452.424
584.162	466.398
584.214	443.188
584.266	483.981
584.318	466.318
584.37	465.716
584.423	490.667
584.475	471.707
584.527	472.671
584.579	485.015
584.631	470.545
584.683	495.662
584.735	482.647
584.787	490.788
584.839	487.614
584.892	511.164
584.944	485.392
584.996	504.614
585.048	501.308
585.1	467.143
585.152	490.534
585.204	483.13
585.256	492.596
585.308	489.528
585.361	496.3
585.413	490.51
585.465	505.669
585.517	485.879
585.569	498.169
585.621	489.506
585.673	503.165
585.725	519.646
585.777	495.809
585.83	509.677
585.882	529.214
585.934	520.976
585.986	512.779
586.038	529.672
586.09	510.292
586.142	522.922
586.194	507.602
586.246	500.604
586.298	518.692
586.351	527.052
586.403	513.175
586.455	528.675
586.507	512.171
586.559	538.973
586.611	508.506
586.663	542.226
586.715	532.525
586.767	533.905
586.819	503.081
586.872	542.127
586.924	523.936
586.976	521.202
587.028	538.123
587.08	538.341
587.132	523.188
587.184	509.394
587.236	517.93
587.288	532
587.34	530.614
587.392	530.594
587.445	548.766
587.497	540.348
587.549	530.541
587.601	534.732
587.653	536.104
587.705	536.045
587.757	542.948
587.809	544.23
587.861	537.117
587.913	535.622
587.965	546.747
588.018	545.322
588.07	552.307
588.122	529.924
588.174	556.441
588.226	539.552
588.278	532.373
588.33	547.462
588.382	562.462
588.434	538.347
588.486	554.675
588.538	551.509
588.59	535.868
588.642	549.51
588.695	556.225
588.747	549.047
588.799	551.59
588.851	549.936
588.903	551.023
588.955	549.301
589.007	557.248
589.059	560.983
589.111	553.581
589.163	576.541
589.215	555.191
589.267	560.059
589.319	577.319
589.372	569.822
589.424	551.434
589.476	556.543
589.528	568.606
589.58	565.609
589.632	568.103
589.684	528.03
589.736	559.204
589.788	546.431
589.84	522.677
589.892	567.299
589.944	554.502
589.996	563.626
590.048	557.818
590.101	572.543
590.153	553.24
590.205	548.943
590.257	558.235
590.309	557.937
590.361	561.671
590.413	555.875
590.465	565.074
590.517	549.933
590.569	544.42
590.621	570.239
590.673	566.251
590.725	550.039
590.777	558.217
590.829	545.927
590.881	555.25
590.933	554.958
590.986	547.806
591.038	551.472
591.09	524.011
591.142	530.484
591.194	550.576
591.246	538.298
591.298	546.384
591.35	513.925
591.402	523.376
591.454	534.13
591.506	523.196
591.558	532.504
591.61	543.152
591.662	540.309
591.714	533.451
591.766	514.471
591.818	526.564
591.87	519.751
591.923	531.83
591.975	530.409
592.027	535.747
592.079	520.865
592.131	534.34
592.183	526.231
592.235	535.647
592.287	528.842
592.339	524.705
592.391	532.69
592.443	529.893
592.495	531.175
592.547	510.933
592.599	517.699
592.651	532.584
592.703	524.552
592.755	531.335
592.807	512.464
592.859	536.712
592.911	531.26
592.963	528.483
593.015	527.033
593.068	520.169
593.12	520.018
593.172	523.877
593.224	503.474
593.276	527.474
593.328	524.542
593.38	521.611
593.432	529.437
593.484	510.4
593.536	528.984
593.588	512.68
593.64	539.354
593.692	520.451
593.744	517.697
593.796	523.031
593.848	527.042
593.9	548.478
593.952	539.033
594.004	520.151
594.056	528.027
594.108	527.817
594.16	535.623
594.212	527.365
594.264	540.544
594.316	531.001
594.368	548.225
594.42	505.292
594.472	529.198
594.524	515.677
594.576	518.19
594.628	528.715
594.68	543.243
594.732	551.084
594.784	533.546
594.837	529.3
594.889	528.984
594.941	543.245
594.993	509.545
595.045	542.373
595.097	523.408
595.149	536.442
595.201	538.982
595.253	532.355
595.305	533.778
595.357	536.557
595.409	524.693
595.461	535.338
595.513	552.537
595.565	519.197
595.617	549.557
595.669	552.035
595.721	543.942
595.773	521.327
595.825	553.165
595.877	529.303
595.929	543.865
595.981	537.107
596.033	554.101
596.085	557.717
596.137	550.656
596.189	559.438
596.241	562.92
596.293	545.302
596.345	566.016
596.397	572.249
596.449	570.622
596.501	588.815
596.553	541.224
596.605	584.572
596.657	560.836
596.709	558.21
596.761	539.794
596.813	549.005
596.865	558.178
596.917	551.518
596.969	547.479
597.021	552.666
597.073	567.089
597.125	557.852
597.177	551.245
597.229	555.129
597.281	544.487
597.333	541.682
597.385	582.216
597.437	570.177
597.489	554.261
597.541	533.182
597.593	551.586
597.645	568.738
597.697	564.889
597.749	583.332
597.801	574.105
597.853	556.907
597.905	585.609
597.957	548.644
598.009	565.542
598.061	552.348
598.113	566.82
598.165	569.582
598.217	556.643
598.269	568.638
598.321	562.185
598.373	574.032
598.425	577.921
598.477	573.895
598.529	576.454
598.581	564.627
598.633	572.562
598.685	552.957
598.737	575.382
598.789	563.614
598.841	564.934
598.893	574.113
598.945	575.437
598.997	570.276
599.049	554.716
599.101	585.289
599.153	567.28
599.205	586.134
599.257	587.822
599.309	555.124
599.361	594.833
599.413	571.145
599.465	581.696
599.517	572.451
599.569	580.38
599.62	568.569
599.672	576.603
599.724	570.176
599.776	586.233
599.828	578.551
599.88	584.072
599.932	582.953
599.984	589.704
600.036	591.091
600.088	596.376
600.14	573.853
600.192	596.289
600.244	588.361
600.296	587.114
600.348	584.614
600.4	596.711
600.452	596.905
600.504	598.377
600.556	602.418
600.608	575.915
600.66	581.109
600.712	578.311
600.764	586.09
600.816	603.154
600.868	595.143
600.92	576.622
600.972	584.613
601.024	584.702
601.076	568.917
601.128	592.799
601.18	588.864
601.232	596.812
601.284	588.856
601.335	572.934
601.387	604.603
601.439	585.938
601.491	583.074
601.543	577.484
601.595	595.596
601.647	583.273
601.699	593.355
601.751	599.461
601.803	548.962
601.855	577.489
601.907	570.509
601.959	566.201
602.011	581.64
602.063	561.688
602.115	587.722
602.167	569.181
602.219	605.705
602.271	587.091
602.323	581.477
602.375	595.361
602.427	573.804
602.478	580.948
602.53	589.382
602.582	570.516
602.634	576.528
602.686	585.256
602.738	586.278
602.79	596.452
602.842	594.935
602.894	597.281
602.946	582.697
602.998	581.042
603.05	601.38
603.102	563.389
603.154	596.643
603.206	601.425
603.258	601.069
603.31	581.368
603.362	577.2
603.413	582.073
603.465	568.871
603.517	575.013
603.569	566.975
603.621	591.165
603.673	588.345
603.725	555.991
603.777	590.636
603.829	593.171
603.881	611.191
603.933	581.612
603.985	586.745
604.037	568.658
604.089	607.105
604.141	594.04
604.193	586.109
604.244	596.208
604.296	590.966
604.348	592.248
604.4	594.902
604.452	597.609
604.504	590.043
604.556	604.31
604.608	587.693
604.66	609.651
604.712	602.055
604.764	588.069
604.816	602.442
604.868	588.519
604.92	586.167
604.971	596.656
605.023	601.942
605.075	600.748
605.127	581.504
605.179	595.826
605.231	588.291
605.283	575.652
605.335	613.394
605.387	611.106
605.439	603.582
605.491	585.625
605.543	607.663
605.594	625.785
605.646	596.083
605.698	580.67
605.75	608.041
605.802	596.706
605.854	606.142
605.906	597.443
605.958	591.256
606.01	605.694
606.062	582.374
606.114	591.352
606.166	583.388
606.217	592.25
606.269	614.089
606.321	610.081
606.373	612.628
606.425	591.928
606.477	594.554
606.529	597.156
606.581	607.477
606.633	604.782
606.685	602.034
606.737	617.373
606.789	608.113
606.84	594.996
606.892	596.144
606.944	593.45
606.996	615.35
607.048	608.822
607.1	603.585
607.152	582.817
607.204	608.524
607.256	608.325
607.308	609.347
607.359	581.919
607.411	590.588
607.463	612.122
607.515	618.196
607.567	621.738
607.619	617.614
607.671	599.393
607.723	617.211
607.775	613.165
607.827	612.956
607.878	598.593
607.93	608.615
607.982	595.51
608.034	606.772
608.086	603.894
608.138	609.953
608.19	596.757
608.242	625.781
608.294	601.056
608.345	612.187
608.397	606.773
608.449	614.226
608.501	591.118
608.553	602.535
608.605	610.128
608.657	611.298
608.709	621.333
608.761	610.883
608.812	605.487
608.864	624.284
608.916	621.432
608.968	617.357
609.02	618.439
609.072	618.313
609.124	609.338
609.176	604.217
609.228	611.839
609.279	625.829
609.331	601.658
609.383	630.905
609.435	643.61
609.487	630.872
609.539	628.31
609.591	620.669
609.643	616.856
609.694	623.232
609.746	625.803
609.798	638.551
609.85	629.664
609.902	619.476
609.954	619.421
610.006	618.04
610.058	615.33
610.109	627.818
610.161	631.359
610.213	627.25
610.265	624.404
610.317	620.3
610.369	642.852
610.421	628.669
610.473	624.682
610.524	629.616
610.576	629.526
610.628	639.6
610.68	640.82
610.732	638.238
610.784	654.64
610.836	625.452
610.887	643.119
610.939	636.754
610.991	651.94
611.043	630.439
611.095	648.187
611.147	648.189
611.199	646.875
611.25	636.633
611.302	644.038
611.354	661.489
611.406	656.118
611.458	655.777
611.51	654.165
611.562	600.816
611.614	639.64
611.665	641.889
611.717	630.29
611.769	660.282
611.821	641.098
611.873	654.619
611.925	640.409
611.977	660.156
612.028	627.121
612.08	664.518
612.132	660.508
612.184	633.945
612.236	626.213
612.288	666.086
612.339	645.624
612.391	633.83
612.443	665.758
612.495	648.836
612.547	646.986
612.599	630.288
612.651	642.461
612.702	649.786
612.754	665.937
612.806	650.93
612.858	648.336
612.91	670.562
612.962	668.972
613.013	632.421
613.065	664.286
613.117	632.705
613.169	648.406
613.221	664.139
613.273	694.784
613.325	647.289
613.376	650.642
613.428	663.856
613.48	647.297
613.532	660.405
613.584	675.947
613.635	658.138
613.687	686.036
613.739	655.976
613.791	666.639
613.843	634.188
613.895	668.218
613.947	683.739
613.998	661.142
614.05	668.077
614.102	673.837
614.154	669.861
614.206	667.203
614.258	679.337
614.309	671.901
614.361	681.656
614.413	666.892
614.465	681.54
614.517	686.361
614.568	664.199
614.62	670.197
614.672	684.732
614.724	666.155
614.776	673.26
614.828	679.114
614.879	689.859
614.931	692.067
614.983	715.103
615.035	685.63
615.087	676.977
615.139	678.109
615.19	697.546
615.242	699.837
615.294	689.878
615.346	690.885
615.398	677.245
615.449	709.979
615.501	696.362
615.553	701.038
615.605	682.531
615.657	695.681
615.709	702.702
615.76	701.184
615.812	705.762
615.864	710.367
615.916	689.465
615.968	718.439
616.019	702.286
616.071	705.436
616.123	718.195
616.175	721.588
616.227	727.009
616.278	709.224
616.33	708.465
616.382	707.273
616.434	719.328
616.486	721.73
616.537	704.02
616.589	714.161
616.641	709.127
616.693	728.682
616.745	707.305
616.797	718.032
616.848	723.735
616.9	699.61
616.952	712.83
617.004	711.258
617.056	707.911
617.107	711.703
617.159	719.346
617.211	718.626
617.263	708.342
617.315	700.041
617.366	711.026
617.418	709.252
617.47	715.118
617.522	717.998
617.573	715.142
617.625	715.923
617.677	714.81
617.729	710.81
617.781	711.565
617.832	711.841
617.884	731.415
617.936	725.575
617.988	726.788
618.04	726.213
618.091	717.21
618.143	735.447
618.195	726.803
618.247	722.712
618.299	729.865
618.35	717.341
618.402	716.171
618.454	725.093
618.506	730.262
618.557	729.116
618.609	744.246
618.661	723.875
618.713	726.703
618.765	739.649
618.816	731.787
618.868	734.028
618.92	728.277
618.972	737.061
619.023	728.767
619.075	725.94
619.127	720.474
619.179	728.766
619.231	727.229
619.282	725.146
619.334	726.7
619.386	732.415
619.438	734.267
619.49	734.02
619.541	746.614
619.593	735.535
619.645	743.177
619.697	729.977
619.748	726.13
619.8	735.982
619.852	745.954
619.904	742.431
619.955	731.928
620.007	743.49
620.059	747.495
620.111	755.482
620.162	749.817
620.214	745.607
620.266	725.351
620.318	731.469
620.37	733.291
620.421	755.151
620.473	737.627
620.525	737.999
620.577	738.08
620.628	732.331
620.68	741.212
620.732	735.067
620.784	753.137
620.835	733.806
620.887	742.474
620.939	738.994
620.991	744.568
621.042	736.488
621.094	741.146
621.146	747.921
621.198	740.924
621.249	731.353
621.269	727.891
621.321	747.418
621.373	732.788
621.425	742.814
621.477	756.384
621.529	741.874
621.581	745.025
621.633	752.933
621.685	735.156
621.737	745.551
621.789	736.118
621.841	736.111
621.893	747.858
621.945	749.106
621.997	751.535
622.049	732.878
622.101	761.006
622.153	759.793
622.205	732.731
622.257	745.359
622.309	748.512
622.361	732.874
622.413	758.094
622.465	727.254
622.517	757.18
622.569	749.822
622.621	754.183
622.673	716.62
622.725	769.938
622.776	751.008
622.828	746.038
622.88	722.453
622.932	752.399
622.984	742.838
623.036	749.602
623.088	725.029
623.14	737.65
623.192	763.015
623.244	754.639
623.296	749.681
623.348	749.305
623.4	759.33
623.452	736.906
623.504	749.286
623.556	748.977
623.608	762.607
623.66	772.783
623.712	744.773
623.764	735.226
623.816	775.293
623.868	751.72
623.92	754.651
623.972	770.226
624.024	753.517
624.076	773.706
624.128	768.607
624.18	748.633
624.232	765.535
624.284	759.518
624.336	770.8
624.388	758.001
624.44	732.583
624.492	762.244
624.544	759.679
624.596	748.989
624.648	757.704
624.699	749.153
624.751	760.042
624.803	772.067
624.855	732.679
624.907	763.071
624.959	774.065
625.011	773.667
625.063	769.863
625.115	763.792
625.167	773.691
625.219	756.27
625.271	775.332
625.323	753.453
625.375	768.036
625.427	746.234
625.479	755.15
625.531	761.763
625.583	738.783
625.635	786.221
625.687	776.807
625.739	776.47
625.791	776.141
625.843	755.415
625.895	768.744
625.946	763.949
625.998	748.981
626.05	779.358
626.102	778.044
626.154	763.189
626.206	783.487
626.258	778.921
626.31	786.837
626.362	766.458
626.414	774.37
626.466	774.326
626.518	794.612
626.57	769.564
626.622	784.056
626.674	789.41
626.726	775.473
626.778	778.462
626.83	805.19
626.882	783.452
626.934	792.356
626.985	754.027
627.037	772.275
627.089	799.635
627.141	790.827
627.193	780.771
627.245	811.233
627.297	795.222
627.349	785.903
627.401	783.344
627.453	790.988
627.505	776.147
627.557	782.818
627.609	806.448
627.661	804.126
627.713	783.71
627.765	795.921
627.817	791.153
627.868	817.903
627.92	807.488
627.972	776.857
628.024	796.936
628.076	797.895
628.128	795.473
628.18	803.151
628.232	792.812
628.284	791.478
628.336	817.166
628.388	813.702
628.44	803.584
628.492	790.161
628.544	788.006
628.596	825.185
628.647	808.361
628.699	799.36
628.751	830.804
628.803	808.285
628.855	799.281
628.907	807.17
628.959	819.576
629.011	827.484
629.063	828.623
629.115	809.492
629.167	821.809
629.219	811.622
629.271	810.416
629.322	823.811
629.374	818.078
629.426	812.313
629.478	824.477
629.53	828.724
629.582	843.028
629.634	837.094
629.686	845.729
629.738	845.378
629.79	810.276
629.842	807.684
629.894	830.845
629.945	831.615
629.997	830.184
630.049	829.933
630.101	826.4
630.153	849.768
630.205	822.859
630.257	818.312
630.309	830.493
630.361	826.962
630.413	839.015
630.465	843.205
630.517	844.043
630.568	830.409
630.62	855.902
630.672	823.436
630.724	843.467
630.776	830.047
630.828	867.931
630.88	834.365
630.932	854.262
630.984	841.724
631.036	860.305
631.088	857.631
631.14	810.385
631.191	862.2
631.243	859.504
631.295	847.984
631.347	827.671
631.399	835.221
631.451	825.073
631.503	849.394
631.555	835.985
631.607	861.433
631.659	877.986
631.71	866.777
631.762	864.431
631.814	884.249
631.866	879.611
631.918	866.038
631.97	855.721
632.022	857.532
632.074	875.917
632.126	875.491
632.178	869.626
632.229	871.653
632.281	863.891
632.333	866.228
632.385	879.716
632.437	860.015
632.489	883.42
632.541	877.945
632.593	901.152
632.645	886.646
632.696	898.683
632.748	894.133
632.8	877.446
632.852	875.172
632.904	892.808
632.956	884.958
633.008	910.221
633.06	890.053
633.112	920.672
633.164	880.538
633.215	915.576
633.267	913.14
633.319	892.041
633.371	892.012
633.423	917.431
633.475	918.568
633.527	920.766
633.579	919.575
633.63	921.614
633.682	921.386
633.734	925.55
633.786	929.73
633.838	916.305
633.89	934.893
633.942	953.483
633.994	936.771
634.046	949.763
634.097	941.767
634.149	944.772
634.201	946.72
634.253	959.783
634.305	955.39
634.357	933.547
634.409	937.152
634.461	943.035
634.512	955.536
634.564	948.14
634.616	963.797
634.668	991.468
634.72	963.875
634.772	965.946
634.824	987.766
634.876	981.958
634.927	988.249
634.979	981.351
635.031	992.157
635.083	978.858
635.135	1026.24
635.187	1006.56
635.239	1006.72
635.291	1012.34
635.342	1042.1
635.394	1044.18
635.446	1025.24
635.498	1016.16
635.55	1050.02
635.602	1036.61
635.654	1032.08
635.705	1068.33
635.757	1067.21
635.809	1099.1
635.861	1066.03
635.913	1087.93
635.965	1096.57
636.017	1090.91
636.068	1118.29
636.12	1100.67
636.172	1105.16
636.224	1089.94
636.276	1129.76
636.328	1121.12
636.38	1137.62
636.431	1145.09
636.483	1153.41
636.535	1152.76
636.587	1169.61
636.639	1172.26
636.691	1154.27
636.743	1171.68
636.794	1201.43
636.846	1175.42
636.898	1178.04
636.95	1205.88
637.002	1168.78
637.054	1206.16
637.106	1222.44
637.157	1209.98
637.209	1240.22
637.261	1215.56
637.313	1224.99
637.365	1253.15
637.417	1236.48
637.469	1252.78
637.52	1207.74
637.572	1226.28
637.624	1222.88
637.676	1275.36
637.728	1270.88
637.78	1274.12
637.831	1282.91
637.883	1238.09
637.935	1271.11
637.987	1261.43
638.039	1290.11
638.091	1293.54
638.143	1288.12
638.194	1299.06
638.246	1291.22
638.298	1294.22
638.35	1288.32
638.402	1273.57
638.454	1252.23
638.505	1280.16
638.557	1305.97
638.609	1303.45
638.661	1277.01
638.713	1284.57
638.765	1292.24
638.816	1293.4
638.868	1297.86
638.92	1289.16
638.972	1282.55
639.024	1280.18
639.076	1298.43
639.127	1283.77
639.179	1293.09
639.231	1311.19
639.283	1308.67
639.335	1272.5
639.387	1274.7
639.438	1281.35
639.49	1290.21
639.542	1290.3
639.594	1278.32
639.646	1287.03
639.698	1282.63
639.749	1271.7
639.801	1261.87
639.853	1260.74
639.905	1242.06
639.957	1236.36
640.008	1235.98
640.06	1244.25
640.112	1228.54
640.164	1216.22
640.216	1237.87
640.268	1220.52
640.319	1226.28
640.371	1236.58
640.423	1204.44
640.475	1207.18
640.527	1208.74
640.578	1181.74
640.63	1212.42
640.682	1216.68
640.734	1194.58
640.786	1209.5
640.838	1189.46
640.889	1198.94
640.941	1161.6
640.993	1193.08
641.045	1163.56
641.097	1152.58
641.148	1163.36
641.2	1172.93
641.252	1169.31
641.304	1164.52
641.356	1160.83
641.408	1189.91
641.459	1175.6
641.511	1170.17
641.563	1184.45
641.615	1167.17
641.667	1153.06
641.718	1177.97
641.77	1148.28
641.822	1154.39
641.874	1150.67
641.926	1154.65
641.977	1167.47
642.029	1152.21
642.081	1153.4
642.133	1157.95
642.185	1157.08
642.236	1155.07
642.288	1166.02
642.34	1157.28
642.392	1179.99
642.444	1166.75
642.495	1157.84
642.547	1167.42
642.599	1158.55
642.651	1138.85
642.703	1155.01
642.754	1128.78
642.806	1169.83
642.858	1139.12
642.91	1138.75
642.962	1131.82
643.013	1124.89
643.065	1154.85
643.117	1156.65
643.169	1142.24
643.221	1144.09
643.272	1160
643.324	1159.62
643.376	1179.76
643.428	1140.36
643.479	1160.51
643.531	1165.59
643.583	1152.43
643.635	1162.11
643.687	1158.97
643.738	1158.06
643.79	1157.12
643.842	1142
643.894	1142.93
643.946	1164.22
643.997	1162.66
644.049	1152.37
644.101	1150.73
644.153	1155.65
644.205	1174.69
644.256	1163.64
644.308	1172.09
644.36	1170.88
644.412	1161.07
644.463	1194.41
644.515	1164.19
644.567	1152.37
644.619	1161.08
644.671	1168.74
644.722	1185.02
644.774	1169.99
644.826	1181.86
644.878	1191.54
644.929	1190.45
644.981	1192.62
645.033	1188.36
645.085	1149.57
645.136	1157.08
645.188	1170.96
645.24	1186.88
645.292	1185.53
645.344	1176.68
645.395	1185.22
645.447	1169.14
645.499	1167.22
645.551	1185.88
645.602	1184.06
645.654	1201.64
645.706	1214.89
645.758	1181.76
645.81	1191.87
645.861	1186.99
645.913	1194.09
645.965	1165.55
646.017	1176.97
646.068	1186.12
646.12	1222.16
646.172	1196.3
646.224	1200.57
646.275	1199.29
646.327	1207.66
646.379	1181.36
646.431	1198.37
646.482	1218.67
646.534	1185.02
646.586	1203.39
646.638	1217.52
646.689	1202.51
646.741	1217.75
646.793	1228.61
646.845	1205.86
646.896	1213.36
646.948	1228.42
647	1231.64
647.052	1186.28
647.104	1212.33
647.155	1211.33
647.207	1242.67
647.259	1194.91
647.31	1245.38
647.362	1221.12
647.414	1195.75
647.466	1236.32
647.518	1228.41
647.569	1232.55
647.621	1236.83
647.673	1233.65
647.724	1240.19
647.776	1248.82
647.828	1229.26
647.88	1239.8
647.931	1247.02
647.983	1240.22
648.035	1198.99
648.087	1220.43
648.138	1254.96
648.19	1223.83
648.242	1215.4
648.294	1251.18
648.345	1236.18
648.397	1262.06
648.449	1253.29
648.501	1248.72
648.552	1239.76
648.604	1262
648.656	1258.34
648.708	1244.98
648.759	1255.34
648.811	1300.17
648.863	1265.42
648.915	1250.15
648.966	1243.59
649.018	1223.1
649.07	1251.04
649.121	1242.35
649.173	1259.38
649.225	1255.86
649.277	1258.72
649.328	1269.09
649.38	1266.61
649.432	1305.04
649.484	1244.73
649.535	1270.39
649.587	1286.35
649.639	1267.86
649.69	1284.68
649.742	1288.52
649.794	1279.44
649.846	1289.7
649.897	1272.18
649.949	1288.01
650.001	1272.9
650.053	1282.52
650.104	1275.06
650.156	1274.04
650.208	1292.32
650.259	1307.39
650.311	1302.11
650.363	1263.67
650.415	1292.82
650.466	1322.07
650.518	1312.79
650.57	1305.7
650.621	1310.41
650.673	1309.7
650.725	1329.29
650.777	1334.79
650.828	1343.36
650.88	1313.15
650.932	1331.19
650.984	1317.01
651.035	1307.2
651.087	1329.69
651.139	1328.69
651.19	1304.18
651.242	1326.95
651.294	1315.34
651.345	1332.66
651.397	1339.17
651.449	1347.79
651.501	1373.64
651.552	1353.41
651.604	1324.73
651.656	1328.41
651.707	1383.76
651.759	1328.32
651.811	1340.49
651.863	1357.85
651.914	1349.2
651.966	1360.87
652.018	1380.04
652.069	1366.98
652.121	1340.05
652.173	1355.18
652.224	1371.49
652.276	1359.88
652.328	1365.52
652.38	1381.97
652.431	1360.78
652.483	1342.88
652.535	1389.66
652.586	1371.82
652.638	1372.22
652.69	1383.24
652.741	1370.32
652.793	1383.03
652.845	1407.42
652.897	1395.1
652.948	1373.16
653	1379.4
653.052	1379.39
653.103	1420.47
653.155	1393.79
653.207	1415.53
653.258	1395.09
653.31	1421.82
653.362	1411.69
653.413	1441.21
653.465	1442.64
653.517	1413.97
653.568	1430.56
653.62	1406.43
653.672	1413.59
653.724	1429.42
653.775	1434.51
653.827	1450.25
653.879	1444.4
653.93	1425.57
653.982	1436.71
654.034	1421.07
654.085	1445.2
654.137	1456.64
654.189	1440.36
654.24	1445.55
654.292	1479.55
654.344	1451.25
654.395	1409.9
654.447	1403.66
654.499	1460.37
654.55	1441.23
654.602	1451.05
654.654	1441.79
654.705	1429.42
654.757	1456.47
654.809	1447.19
654.86	1472.94
654.912	1477.35
654.964	1461.61
655.016	1477.93
655.067	1444.54
655.119	1480.39
655.17	1505.76
655.222	1475.93
655.274	1463.01
655.326	1475.44
655.377	1504.68
655.429	1488.13
655.481	1501.14
655.532	1522.55
655.584	1497.34
655.635	1506.12
655.687	1516.13
655.739	1536.96
655.79	1501.99
655.842	1502.11
655.894	1489.61
655.945	1510.88
655.997	1517.13
656.049	1528.43
656.1	1537.4
656.152	1547.33
656.204	1536.17
656.255	1544.17
656.307	1541.76
656.359	1564.8
656.41	1544.54
656.462	1533.7
656.514	1528
656.565	1578.12
656.617	1567
656.669	1549.64
656.72	1577.77
656.772	1518.6
656.824	1550.25
656.875	1578.88
656.927	1554.92
656.979	1561.63
657.03	1568.45
657.082	1579.61
657.134	1604.62
657.185	1577.95
657.237	1570.23
657.288	1556
657.34	1599.66
657.392	1614.49
657.443	1618.5
657.495	1619.21
657.547	1626.26
657.598	1635.56
657.65	1609.14
657.702	1612.53
657.753	1621.36
657.805	1581.65
657.857	1606.43
657.908	1592.07
657.96	1642.22
658.011	1631.02
658.063	1617.75
658.115	1607.75
658.166	1630.68
658.218	1639.9
658.27	1640.64
658.321	1641.31
658.373	1629.12
658.425	1650.75
658.476	1657.42
658.528	1664.04
658.579	1659
658.631	1660.39
658.683	1620.4
658.734	1653.75
658.786	1632.89
658.838	1655.56
658.889	1625.04
658.941	1681.75
658.992	1658.77
659.044	1649.77
659.096	1657.96
659.147	1637.54
659.199	1676.86
659.251	1672.47
659.302	1685.05
659.354	1661.18
659.406	1658.47
659.457	1661.99
659.509	1632.21
659.56	1695.2
659.612	1674.69
659.664	1681.78
659.715	1683.35
659.767	1675.17
659.818	1677.57
659.87	1662.9
659.922	1654.72
659.973	1677.55
660.025	1684.56
660.077	1656.61
660.128	1687.42
660.18	1682.22
660.231	1688.91
660.283	1676.51
660.335	1663.01
660.386	1685.58
660.438	1663.13
660.49	1671.28
660.541	1707.89
660.593	1688.97
660.644	1658.36
660.696	1664.03
660.748	1664.53
660.799	1670.46
660.851	1707.22
660.902	1696.1
660.954	1683.79
661.006	1684.09
661.057	1698.1
661.109	1678.16
661.16	1687.95
661.212	1685.09
661.264	1668.52
661.315	1692.2
661.367	1656.62
661.418	1684.51
661.47	1662.72
661.522	1677.98
661.573	1670.07
661.625	1625.27
661.676	1682.97
661.728	1609.79
661.78	1642.19
661.831	1642.88
661.883	1672
661.934	1660.94
661.986	1628.67
662.038	1713.24
662.089	1668.01
662.141	1651.09
662.192	1691.89
662.244	1669.53
662.296	1667.19
662.347	1682.82
662.399	1669.27
662.45	1702.1
662.502	1635.59
662.554	1678.21
662.605	1646.49
662.657	1674.4
662.708	1691.65
662.76	1645.86
662.811	1657.4
662.863	1681.26
662.915	1652.76
662.966	1632.66
663.018	1643.99
663.069	1643.04
663.121	1660.13
663.173	1647.36
663.224	1669.26
663.276	1667.39
663.327	1634.3
663.379	1668.77
663.43	1643.61
663.482	1662.93
663.534	1654.89
663.585	1664.38
663.637	1660.32
663.688	1654.28
663.74	1653.69
663.792	1630.6
663.843	1654.88
663.895	1666.6
663.946	1690.03
663.998	1671.51
664.049	1653.73
664.101	1661.23
664.153	1653.35
664.204	1653.54
664.256	1679.86
664.307	1633.46
664.359	1669.17
664.41	1665.4
664.462	1678.21
664.513	1675.94
664.565	1657.05
664.617	1678.17
664.668	1678.19
664.72	1667.91
664.771	1670.83
664.823	1670.04
664.874	1656.8
664.926	1643.66
664.978	1654.9
665.029	1653.65
665.081	1661.89
665.132	1662.44
665.184	1661.46
665.235	1677.25
665.287	1649.87
665.339	1661.3
665.39	1660.63
665.442	1658.75
665.493	1658.72
665.545	1662.91
665.596	1660.76
665.648	1647.16
665.699	1670.63
665.751	1676.25
665.802	1664.85
665.854	1656.77
665.906	1667.84
665.957	1656.68
666.009	1651.19
666.06	1666.87
666.112	1651.21
666.163	1670.22
666.215	1664.99
666.266	1682.28
666.318	1647.88
666.37	1654.11
666.421	1661.46
666.473	1667.14
666.524	1664.68
666.576	1652.81
666.627	1664.43
666.679	1661.88
666.73	1662.14
666.782	1653.95
666.833	1647.36
666.885	1653.46
666.937	1660.3
666.988	1664.78
667.04	1665.23
667.091	1660.43
667.143	1672.3
667.194	1658.33
667.246	1653.1
667.297	1649.47
667.349	1652.44
667.4	1655.14
667.452	1669.17
667.503	1658.52
667.555	1663.36
667.607	1678.35
667.658	1683.56
667.71	1678.09
667.761	1680.69
667.813	1665.56
667.864	1654.55
667.916	1656.95
667.967	1664.91
668.019	1660.13
668.07	1666.52
668.122	1673.48
668.173	1680.57
668.225	1678.86
668.276	1659.91
668.328	1635.41
668.379	1667.5
668.431	1647.02
668.482	1652.7
668.534	1673.73
668.586	1681.54
668.637	1671.51
668.689	1661.36
668.74	1675.7
668.792	1668.54
668.843	1659.86
668.895	1678
668.935	1689.78
668.987	1649.69
669.038	1631.65
669.09	1699.2
669.142	1657.29
669.194	1690.32
669.245	1691.84
669.297	1699.41
669.349	1667.2
669.401	1671.58
669.453	1662.57
669.504	1694.58
669.556	1703.92
669.608	1665.36
669.66	1693.79
669.711	1660.33
669.763	1632.88
669.815	1682.71
669.867	1678.84
669.918	1691.62
669.97	1668.75
670.022	1680.64
670.074	1650.77
670.125	1677.79
670.177	1684
670.229	1710.25
670.281	1701.76
670.332	1673.1
670.384	1693.65
670.436	1681.3
670.488	1708.67
670.539	1666.32
670.591	1659.62
670.643	1683.33
670.695	1685.96
670.747	1699.14
670.798	1696.63
670.85	1672.16
670.902	1669.88
670.953	1671.9
671.005	1670.82
671.057	1693.88
671.109	1705.3
671.161	1674.56
671.212	1703.56
671.264	1711.4
671.316	1681.35
671.367	1647.11
671.419	1679.02
671.471	1674.33
671.523	1704.4
671.575	1690.62
671.626	1670.69
671.678	1683.35
671.73	1665.64
671.781	1686.69
671.833	1665.73
671.885	1713.85
671.937	1708.42
671.988	1709.22
672.04	1677.55
672.092	1663.76
672.144	1685.7
672.195	1707.76
672.247	1704.75
672.299	1705.92
672.351	1696.52
672.402	1719.43
672.454	1735.87
672.506	1709.2
672.558	1715.96
672.609	1729.01
672.661	1689.8
672.713	1711.36
672.765	1717.26
672.816	1687.55
672.868	1694.28
672.92	1679.88
672.971	1698.66
673.023	1695.33
673.075	1699.24
673.127	1708.46
673.178	1697.09
673.23	1694.36
673.282	1708.57
673.334	1694.86
673.385	1671.81
673.437	1671.52
673.489	1702.23
673.54	1720.24
673.592	1724.62
673.644	1709.29
673.696	1721.1
673.747	1695.74
673.799	1710
673.851	1718.14
673.903	1702.41
673.954	1726
674.006	1722.49
674.058	1713.65
674.109	1737.87
674.161	1723.66
674.213	1706.29
674.265	1715.76
674.316	1743.75
674.368	1725.1
674.42	1733.31
674.471	1733.29
674.523	1758.21
674.575	1727.66
674.627	1738.7
674.678	1742.8
674.73	1720.3
674.782	1741.18
674.833	1752.7
674.885	1747.52
674.937	1766.84
674.989	1731.28
675.04	1727.57
675.092	1726.96
675.144	1715.16
675.195	1746.86
675.247	1741.74
675.299	1748.19
675.351	1738.31
675.402	1748.1
675.454	1753.79
675.506	1744
675.557	1747.62
675.609	1734.75
675.661	1774.55
675.713	1735.92
675.764	1762.38
675.816	1750.64
675.868	1757.52
675.919	1784.07
675.971	1774.47
676.023	1768.01
676.074	1767.79
676.126	1806.99
676.178	1778.85
676.23	1800.49
676.281	1753.69
676.333	1784.76
676.385	1785.78
676.436	1792.05
676.488	1765.08
676.54	1770.32
676.591	1778.63
676.643	1771.24
676.695	1790.85
676.747	1772.87
676.798	1794.48
676.85	1762.88
676.902	1810.65
676.953	1784.36
677.005	1776.95
677.057	1828.16
677.108	1768.55
677.16	1788.46
677.212	1785.32
677.263	1809.37
677.315	1804.01
677.367	1827.92
677.419	1808.73
677.47	1794.7
677.522	1811.1
677.574	1791.77
677.625	1808.19
677.677	1799.41
677.729	1774.85
677.78	1792.33
677.832	1800.29
677.884	1797.66
677.935	1843.48
677.987	1787.18
678.039	1797.35
678.091	1782.33
678.142	1832.76
678.194	1812.42
678.246	1846.75
678.297	1810.04
678.349	1785.74
678.401	1771.86
678.452	1787.6
678.504	1797.2
678.556	1817.67
678.607	1796.13
678.659	1805.34
678.711	1820.8
678.762	1814.83
678.814	1780.95
678.866	1801.7
678.917	1787.3
678.969	1818.27
679.021	1839.8
679.072	1844.61
679.124	1782.02
679.176	1786.01
679.227	1818.41
679.279	1817.92
679.331	1833.05
679.382	1799.54
679.434	1806.08
679.486	1802.16
679.537	1808.91
679.589	1802.1
679.641	1801.66
679.692	1853.8
679.744	1811.16
679.796	1828.39
679.847	1819.29
679.899	1811.27
679.951	1808.61
680.003	1821.8
680.054	1811.98
680.106	1836.81
680.157	1835.34
680.209	1820.11
680.261	1809.98
680.312	1810.22
680.364	1840.76
680.416	1820.96
680.467	1810.59
680.519	1832.68
680.571	1835.96
680.622	1820.44
680.674	1821.67
680.726	1811.46
680.777	1837.87
680.829	1817.44
680.881	1814.89
680.932	1827.08
680.984	1852.91
681.036	1818.25
681.087	1837.67
681.139	1839.12
681.191	1816.29
681.242	1795.29
681.294	1808.45
681.346	1843.47
681.397	1828.87
681.449	1833.38
681.501	1813.45
681.552	1767.96
681.604	1827.56
681.656	1821.78
681.707	1825.17
681.759	1801.26
681.81	1830
681.862	1817.99
681.914	1842.2
681.965	1845.71
682.017	1831.79
682.069	1836.84
682.12	1831.82
682.172	1823.93
682.224	1836.96
682.275	1855.25
682.327	1840.26
682.379	1847.99
682.43	1838.91
682.482	1833.75
682.533	1852.25
682.585	1840.42
682.637	1829.51
682.688	1852.81
682.74	1840.89
682.792	1828.13
682.843	1855.05
682.895	1864.62
682.947	1831.9
682.998	1799.32
683.05	1861.3
683.102	1805.88
683.153	1838.7
683.205	1855.88
683.256	1854.32
683.308	1879.88
683.36	1858.74
683.411	1871.05
683.463	1868.92
683.515	1854.35
683.566	1852.26
683.618	1881.36
683.669	1861.23
683.721	1841.86
683.773	1857.73
683.824	1815.93
683.876	1867.97
683.928	1843.78
683.979	1830.16
684.031	1799.02
684.082	1848.54
684.134	1810.54
684.186	1875.05
684.237	1851.76
684.289	1854.45
684.341	1861.14
684.392	1837.34
684.444	1858.46
684.495	1866.02
684.547	1849.66
684.599	1870.14
684.65	1843.69
684.702	1832.02
684.754	1831.94
684.805	1858.08
684.857	1819.06
684.908	1860.74
684.96	1871.81
685.012	1837.54
685.063	1843.02
685.115	1865.17
685.166	1844.11
685.218	1827.16
685.27	1841.68
685.321	1820.46
685.373	1841.32
685.424	1852.81
685.476	1818.2
685.528	1803.66
685.579	1864.83
685.631	1825.17
685.683	1840.12
685.734	1832.94
685.786	1811.01
685.837	1831.13
685.889	1848.13
685.941	1830.5
685.992	1829.75
686.044	1818.51
686.095	1847.21
686.147	1851.63
686.199	1840.16
686.25	1865.4
686.302	1796.92
686.353	1826.23
686.405	1830.28
686.457	1818.57
686.508	1834.22
686.56	1806.78
686.611	1796.2
686.663	1802.52
686.715	1828.91
686.766	1844.87
686.818	1819.85
686.869	1797.95
686.921	1807.47
686.973	1814.66
687.024	1828.93
687.076	1848.19
687.127	1803.17
687.179	1819.08
687.231	1825.63
687.282	1825.03
687.334	1818.38
687.385	1845.49
687.437	1839.14
687.489	1817.06
687.54	1827.42
687.592	1818.75
687.643	1813.07
687.695	1814.55
687.747	1794.93
687.798	1841.22
687.85	1812.08
687.901	1805.01
687.953	1817.97
688.004	1818.59
688.056	1806.89
688.108	1799.55
688.159	1784.98
688.211	1815.39
688.262	1800.79
688.314	1814.37
688.366	1811.19
688.417	1803.86
688.469	1794.51
688.52	1794.65
688.572	1799.03
688.623	1797.13
688.675	1807.73
688.727	1819.31
688.778	1814.1
688.83	1808.87
688.881	1827.71
688.933	1795.31
688.984	1815.19
689.036	1817.22
689.088	1803.44
689.139	1842.9
689.191	1801.8
689.242	1827.71
689.294	1795.28
689.346	1815.41
689.397	1817.02
689.449	1786.4
689.5	1795.63
689.552	1825.75
689.603	1776.07
689.655	1791.11
689.706	1790.22
689.758	1818.53
689.81	1831.08
689.861	1776.59
689.913	1794.52
689.964	1806.27
690.016	1808.65
690.067	1808.91
690.119	1789.19
690.171	1811.32
690.222	1791.41
690.274	1794.58
690.325	1836.64
690.377	1812.81
690.428	1771.39
690.48	1781.63
690.531	1804.69
690.583	1796.34
690.635	1799.49
690.686	1791.95
690.738	1803.12
690.789	1775.1
690.841	1806.95
690.892	1769.3
690.944	1778.14
690.996	1787.24
691.047	1770.27
691.099	1783.03
691.15	1771.6
691.202	1811.84
691.253	1787.47
691.305	1800.95
691.356	1798.42
691.408	1804.31
691.459	1813.44
691.511	1790.89
691.563	1771.53
691.614	1818.85
691.666	1798.16
691.717	1765.56
691.769	1813.31
691.82	1781.37
691.872	1808.74
691.923	1789.5
691.975	1778.84
692.026	1785.26
692.078	1752.61
692.13	1778.41
692.181	1799.05
692.233	1796.46
692.284	1805.59
692.336	1795.57
692.387	1780.14
692.439	1759.25
692.49	1776.51
692.542	1748.07
692.593	1769.67
692.645	1779.77
692.697	1773.08
692.748	1775.05
692.8	1797.32
692.851	1779.04
692.903	1792.5
692.954	1745.99
693.006	1774.86
693.057	1761.92
693.109	1749.91
693.16	1790.12
693.212	1778.24
693.263	1745.26
693.315	1750.89
693.366	1791.9
693.418	1771.21
693.47	1745.2
693.521	1745.77
693.573	1766.47
693.624	1730.42
693.676	1796.69
693.727	1781.69
693.779	1758.06
693.83	1757.88
693.882	1766.27
693.933	1756.63
693.985	1765.28
694.036	1768.79
694.088	1773.52
694.139	1759.12
694.191	1774.6
694.242	1764.32
694.294	1761.33
694.345	1742.12
694.397	1760.16
694.448	1793.06
694.5	1762.87
694.552	1758.35
694.603	1742.13
694.655	1778.35
694.706	1739.95
694.758	1758.34
694.809	1754.49
694.861	1767.88
694.912	1728.97
694.964	1745.63
695.015	1751.51
695.067	1773.32
695.118	1738.3
695.17	1780.32
695.221	1778.47
695.273	1762.77
695.324	1765.32
695.376	1745.39
695.427	1754.35
695.479	1736.45
695.53	1754.95
695.582	1788.47
695.633	1752.37
695.685	1748.57
695.736	1756.73
695.788	1761.82
695.839	1719.72
695.891	1725.96
695.942	1766.57
695.994	1738.28
696.045	1756.17
696.097	1748.18
696.148	1767.1
696.2	1719.29
696.251	1770.64
696.303	1758.47
696.354	1772.24
696.406	1752.58
696.457	1748.05
696.509	1750.02
696.56	1733.65
696.612	1721.63
696.663	1758.31
696.715	1761.48
696.766	1731.05
696.818	1755.81
696.869	1753.45
696.921	1755.4
696.972	1748.7
697.024	1748.54
697.075	1729.96
697.127	1748.31
697.178	1732.9
697.23	1767.4
697.281	1764.83
697.333	1713.26
697.384	1720.61
697.436	1753.26
697.487	1749.11
697.539	1746.23
697.59	1744.5
697.642	1730.67
697.693	1742.89
697.745	1770.22
697.796	1722.86
697.847	1744.45
697.899	1734.32
697.95	1725.45
698.002	1742.01
698.053	1748.8
698.105	1743.43
698.156	1712.53
698.208	1774.88
698.259	1763.15
698.311	1710.41
698.362	1723.61
698.414	1735.7
698.465	1717.03
698.517	1703.96
698.568	1752.67
698.62	1728.73
698.671	1714.71
698.723	1707.3
698.774	1707.61
698.826	1730
698.877	1730.38
698.928	1727.5
698.98	1737.89
699.031	1721.83
699.083	1718.99
699.134	1707.29
699.186	1731.98
699.237	1709.11
699.289	1741.39
699.34	1729.37
699.392	1755.9
699.443	1713.78
699.495	1694.75
699.546	1693.29
699.598	1702.81
699.649	1684.71
699.7	1706.4
699.752	1724.89
699.803	1702.72
699.855	1703.95
699.906	1699.88
699.958	1711.43
700.009	1708.7
700.061	1719.17
700.112	1725.03
700.164	1666.46
700.215	1741.24
700.266	1714
700.318	1703.1
700.369	1716.41
700.421	1697.85
700.472	1726.98
700.524	1709.1
700.575	1678.35
700.627	1694.11
700.678	1702.19
700.73	1721.11
700.781	1691.2
700.832	1698.44
700.884	1694.42
700.935	1689.27
700.987	1719.52
701.038	1698.34
701.09	1683
701.141	1710.81
701.193	1716.64
701.244	1714.58
701.295	1713.32
701.347	1697.43
701.398	1695.62
701.45	1712.44
701.501	1702.93
701.553	1710.11
701.604	1704.33
701.656	1684.45
701.707	1676.81
701.758	1664.84
701.81	1694.66
701.861	1717.86
701.913	1741
701.964	1705.78
702.016	1669.31
702.067	1672.25
702.119	1699.22
702.17	1681.1
702.221	1692.66
702.273	1689
702.324	1729.44
702.376	1711.92
702.427	1690.15
702.479	1690.36
702.53	1692.67
702.581	1706.9
702.633	1680.39
702.684	1716.38
702.736	1714.02
702.787	1700.88
702.839	1673.71
702.89	1696.15
702.941	1715.46
702.993	1672.18
703.044	1669.45
703.096	1674.29
703.147	1709.82
703.199	1706.87
703.25	1704.04
703.301	1680.53
703.353	1703.49
703.404	1696.94
703.456	1694.85
703.507	1725.8
703.558	1710.21
703.61	1691.06
703.661	1713.68
703.713	1717.44
703.764	1715.74
703.816	1654.51
703.867	1688.64
703.918	1717.52
703.97	1695.61
704.021	1699.2
704.073	1694.89
704.124	1704.78
704.175	1677.75
704.227	1693.82
704.278	1723.12
704.33	1709.09
704.381	1714.08
704.432	1680.31
704.484	1692.34
704.535	1703.39
704.587	1731.22
704.638	1696.61
704.69	1702.08
704.741	1656.14
704.792	1714.05
704.844	1697.14
704.895	1673.53
704.947	1687.98
704.998	1699.11
705.049	1695.68
705.101	1669.8
705.152	1719.06
705.204	1740.31
705.255	1676.22
705.306	1700.88
705.358	1686.24
705.409	1686.26
705.461	1697.58
705.512	1672.89
705.563	1713.62
705.615	1673.11
705.666	1659.57
705.718	1680.9
705.769	1652.29
705.82	1691.29
705.872	1691.65
705.923	1663.64
705.974	1641.34
706.026	1652.08
706.077	1664.25
706.129	1641.61
706.18	1682.68
706.231	1659.17
706.283	1659.41
706.334	1691.31
706.386	1650.19
706.437	1671.48
706.488	1687.05
706.54	1658.24
706.591	1680.86
706.643	1681.97
706.694	1646.63
706.745	1686.66
706.797	1686.61
706.848	1665.82
706.899	1672.31
706.951	1666.08
707.002	1674.67
707.054	1653.42
707.105	1681.4
707.156	1634.8
707.208	1682.1
707.259	1675.42
707.31	1661.78
707.362	1672.21
707.413	1666.66
707.465	1652.05
707.516	1652.49
707.567	1626.59
707.619	1667.26
707.67	1644.64
707.721	1651.6
707.773	1656.1
707.824	1659.37
707.876	1671.85
707.927	1660.35
707.978	1646.71
708.03	1649.33
708.081	1658.96
708.132	1651.43
708.184	1665.73
708.235	1678.84
708.287	1675.79
708.338	1651.97
708.389	1647.66
708.441	1650.2
708.492	1666.51
708.543	1679.27
708.595	1640.12
708.646	1642.23
708.697	1659.14
708.749	1655.23
708.8	1632.9
708.852	1625.65
708.903	1661.17
708.954	1664.83
709.006	1638.94
709.057	1659.35
709.108	1661.54
709.16	1643.03
709.211	1635.93
709.262	1627.47
709.314	1651.05
709.365	1639.73
709.416	1642.01
709.468	1614.07
709.519	1635.61
709.57	1623.66
709.622	1630.21
709.673	1663.45
709.725	1602.41
709.776	1641.97
709.827	1629.94
709.879	1645.81
709.93	1629.44
709.981	1660.38
710.033	1635.72
710.084	1643.27
710.135	1624.11
710.187	1636.2
710.238	1641.47
710.289	1602.91
710.341	1654.85
710.392	1626.87
710.443	1631.25
710.495	1659.8
710.546	1628.91
710.597	1657.06
710.649	1624.76
710.7	1621.55
710.751	1644.03
710.803	1628.31
710.854	1623.12
710.905	1605.13
710.957	1629
711.008	1635.45
711.059	1611.72
711.111	1630.1
711.162	1640.56
711.213	1618.55
711.265	1656.06
711.316	1607.82
711.367	1610.89
711.419	1659.57
711.47	1628.38
711.521	1628.97
711.573	1627.39
711.624	1623.85
711.675	1606.4
711.727	1621.91
711.778	1637.5
711.829	1620.24
711.881	1649.37
711.932	1614.33
711.983	1625.1
712.035	1645.41
712.086	1649.73
712.137	1625.65
712.189	1637.22
712.24	1632.89
712.291	1627.93
712.343	1629.3
712.394	1618.82
712.445	1627.14
712.496	1631.3
712.548	1646.99
712.599	1640.33
712.65	1632.83
712.702	1615.35
712.753	1625.71
712.804	1638.11
712.856	1607.61
712.907	1631.21
712.958	1621.73
713.01	1628.45
713.061	1651.14
713.112	1633.67
713.164	1618.97
713.215	1617.48
713.266	1618.01
713.317	1607.95
713.369	1626.09
713.42	1607.75
713.471	1624.67
713.523	1623.81
713.574	1609.89
713.625	1627.34
713.677	1598.05
713.728	1602.53
713.779	1623.17
713.831	1603.02
713.882	1601.14
713.933	1593.36
713.984	1609.14
714.036	1596.06
714.087	1600.05
714.138	1607.52
714.19	1625.23
714.241	1617.55
714.292	1606.88
714.343	1589.06
714.395	1617.4
714.446	1618.91
714.497	1603.85
714.549	1596.67
714.6	1604.85
714.651	1606.2
714.703	1596.39
714.754	1595.34
714.805	1600.84
714.856	1580.67
714.908	1579.31
714.959	1588.72
715.01	1581.77
715.062	1569.05
715.113	1570.47
715.164	1576.88
715.215	1590.44
715.267	1586.27
715.318	1595.83
715.369	1581.9
715.421	1590.01
715.472	1587.85
715.523	1581.89
715.574	1599.14
715.626	1559.6
715.677	1571.31
715.728	1570.77
715.779	1565.39
715.831	1562.39
715.882	1574.19
715.933	1567.98
715.985	1546.57
716.036	1568.98
716.087	1564.06
716.138	1569.65
716.19	1568.72
716.241	1560.35
716.292	1550.69
716.343	1555.44
716.395	1570.6
716.433	1556.52
716.485	1544
716.536	1572.01
716.588	1541.63
716.639	1561.53
716.691	1573.02
716.742	1563.76
716.794	1560.56
716.845	1565.8
716.897	1535.45
716.948	1587.01
717	1568.83
717.052	1523.81
717.103	1527.85
717.155	1528.32
717.206	1541.06
717.258	1537.82
717.309	1507.5
717.361	1532.19
717.412	1543.34
717.464	1542.26
717.515	1515.56
717.567	1554.06
717.618	1533.88
717.67	1537.14
717.721	1526.9
717.773	1544.82
717.824	1531.84
717.876	1532.19
717.927	1538.55
717.979	1509.16
718.03	1522.84
718.082	1516.95
718.133	1523.59
718.185	1509.58
718.237	1503.21
718.288	1530.34
718.34	1520.57
718.391	1547.79
718.443	1526.64
718.494	1511.33
718.546	1490.71
718.597	1518.04
718.649	1534.03
718.7	1531.44
718.752	1530.2
718.803	1505.68
718.855	1527.2
718.906	1489.54
718.958	1523.88
719.009	1531.08
719.061	1513.49
719.112	1530.61
719.164	1485.56
719.215	1527.33
719.267	1530.44
719.318	1509.77
719.37	1517.56
719.421	1509.11
719.473	1519.33
719.524	1545.86
719.576	1510.32
719.627	1536.02
719.679	1485.91
719.73	1524.44
719.782	1543.14
719.833	1493.15
719.885	1491.8
719.936	1517.87
719.988	1512.55
720.039	1505.81
720.091	1497.67
720.142	1515.71
720.194	1494.82
720.245	1509.03
720.297	1501.99
720.348	1486.3
720.4	1480.8
720.451	1476.69
720.503	1527.98
720.554	1483.7
720.606	1524.91
720.657	1487.94
720.709	1507.54
720.76	1523.3
720.812	1450.72
720.863	1491.66
720.915	1478.32
720.966	1490.18
721.018	1485.53
721.069	1507.32
721.121	1465.87
721.172	1519.21
721.224	1488
721.275	1465.84
721.327	1454.02
721.378	1451.23
721.43	1468.8
721.481	1447.01
721.532	1482.14
721.584	1475.18
721.635	1484.55
721.687	1460.83
721.738	1471.47
721.79	1439.07
721.841	1488.28
721.893	1465.23
721.944	1453.76
721.996	1437.2
722.047	1440.95
722.099	1445.8
722.15	1490.01
722.202	1471.38
722.253	1474.26
722.305	1484.69
722.356	1465.69
722.408	1474.9
722.459	1472.73
722.511	1451.49
722.562	1453.38
722.614	1460.4
722.665	1481.45
722.716	1429.32
722.768	1471.94
722.819	1444.02
722.871	1454.62
722.922	1460.26
722.974	1435.27
723.025	1456.65
723.077	1453.68
723.128	1446.76
723.18	1465.39
723.231	1465.8
723.283	1423.53
723.334	1448.08
723.386	1432.68
723.437	1450.8
723.488	1448.37
723.54	1483.27
723.591	1408.61
723.643	1443.23
723.694	1422.39
723.746	1445.29
723.797	1446.41
723.849	1443.91
723.9	1426.24
723.952	1412.7
724.003	1430.25
724.055	1431.14
724.106	1420.39
724.157	1432.78
724.209	1420.59
724.26	1432.9
724.312	1433.59
724.363	1434.3
724.415	1416.87
724.466	1435.59
724.518	1439.95
724.569	1419.54
724.621	1466.38
724.672	1435.44
724.723	1403.22
724.775	1389.21
724.826	1432.33
724.878	1404.25
724.929	1386.58
724.981	1418.26
725.032	1442.22
725.084	1405.22
725.135	1438.41
725.187	1385.9
725.238	1420.51
725.289	1418.71
725.341	1409.05
725.392	1426.67
725.444	1418.15
725.495	1429.13
725.547	1416.58
725.598	1426.16
725.65	1393.92
725.701	1382.48
725.752	1403.61
725.804	1422.1
725.855	1396.19
725.907	1414.77
725.958	1437.41
726.01	1406.63
726.061	1416.53
726.112	1412.16
726.164	1436.67
726.215	1419.28
726.267	1391.34
726.318	1393.47
726.37	1395.51
726.421	1405.35
726.473	1378.33
726.524	1377.53
726.575	1406.99
726.627	1391.84
726.678	1396.58
726.73	1400.22
726.781	1355.29
726.833	1368.46
726.884	1344.71
726.935	1397.53
726.987	1406.64
727.038	1362.66
727.09	1402.06
727.141	1403.11
727.193	1412.27
727.244	1381.75
727.295	1360.6
727.347	1366.06
727.398	1387.44
727.45	1381.98
727.501	1365.59
727.552	1385.01
727.604	1404.23
727.655	1339.11
727.707	1379.46
727.758	1385.04
727.81	1365.28
727.861	1363.06
727.912	1386.52
727.964	1362.12
728.015	1358.12
728.067	1378.53
728.118	1356.11
728.17	1360.48
728.221	1388.9
728.272	1345.61
728.324	1378.87
728.375	1384.95
728.427	1343.69
728.478	1351.07
728.529	1369.41
728.581	1394.68
728.632	1357.85
728.684	1329.18
728.735	1375.11
728.786	1361.47
728.838	1360.13
728.889	1347.99
728.941	1339.94
728.992	1361.81
729.044	1378.08
729.095	1377.7
729.146	1356.48
729.198	1344.49
729.249	1360.99
729.301	1356.95
729.352	1359.88
729.403	1353.52
729.455	1322.88
729.506	1341.82
729.558	1347.32
729.609	1292.53
729.66	1343.31
729.712	1354.07
729.763	1341.16
729.815	1338.92
729.866	1321.32
729.917	1324.29
729.969	1352.12
730.02	1330.6
730.072	1328.64
730.123	1336.59
730.174	1339.23
730.226	1325.35
730.277	1332.11
730.329	1340.09
730.38	1340.89
730.431	1305.42
730.483	1343.21
730.534	1344.88
730.586	1335.5
730.637	1322.1
730.688	1351.9
730.74	1338.88
730.791	1321.8
730.842	1346.45
730.894	1340.39
730.945	1318.8
730.997	1324.8
731.048	1334.78
731.099	1329.31
731.151	1293.2
731.202	1324.09
731.254	1304.96
731.305	1302.72
731.356	1321.52
731.408	1295.73
731.459	1317.42
731.51	1315.35
731.562	1352.4
731.613	1299.91
731.665	1286.52
731.716	1316.46
731.767	1330.91
731.819	1325.62
731.87	1335.61
731.922	1310.45
731.973	1283.82
732.024	1334.27
732.076	1321.69
732.127	1320.42
732.178	1306.65
732.23	1288.81
732.281	1297.75
732.333	1288.54
732.384	1324.32
732.435	1303.95
732.487	1290.53
732.538	1312.19
732.589	1304.2
732.641	1314.4
732.692	1327.34
732.744	1282.53
732.795	1296.84
732.846	1288.69
732.898	1293.29
732.949	1300.78
733	1299.86
733.052	1308.82
733.103	1281.05
733.154	1306.8
733.206	1311.29
733.257	1307.23
733.309	1291.81
733.36	1301.78
733.411	1286.33
733.463	1282.18
733.514	1286.51
733.565	1265.42
733.617	1278.22
733.668	1296.66
733.719	1293.91
733.771	1315.2
733.822	1294.15
733.873	1287.28
733.925	1270.58
733.976	1272.33
734.028	1284.04
734.079	1275.98
734.13	1287.68
734.182	1286.54
734.233	1266.89
734.284	1262.7
734.336	1272.6
734.387	1289.59
734.438	1257.1
734.49	1291.28
734.541	1277.46
734.592	1290.66
734.644	1251.48
734.695	1280.33
734.747	1296.39
734.798	1265.6
734.849	1288.68
734.901	1291.86
734.952	1295.03
735.003	1279.71
735.055	1282.82
735.106	1270.25
735.157	1260.46
735.209	1280.44
735.26	1270.51
735.311	1283.25
735.363	1278.86
735.414	1290.05
735.465	1262.84
735.517	1232.81
735.568	1239.76
735.619	1273.77
735.671	1262.44
735.722	1288.15
735.773	1291.25
735.825	1248.97
735.876	1259.31
735.927	1239.81
735.979	1245.84
736.03	1277.35
736.081	1274.53
736.133	1251.59
736.184	1254.05
736.235	1246.43
736.287	1261.48
736.338	1276.57
736.389	1242.07
736.441	1264.5
736.492	1278.54
736.543	1257.23
736.595	1294.2
736.646	1248.96
736.697	1287.55
736.749	1248.13
736.8	1266.96
736.851	1275.86
736.903	1266.23
736.954	1253.65
737.005	1249.49
737.057	1262.32
737.108	1273.7
737.159	1248.13
737.211	1258.16
737.262	1225.57
737.313	1239.91
737.365	1281.23
737.416	1274.09
737.467	1235.54
737.518	1275.03
737.57	1295.9
737.621	1261.3
737.672	1270.76
737.724	1288.83
737.775	1260.24
737.826	1267.3
737.878	1268.84
737.929	1259.11
737.98	1273.51
738.032	1242.39
738.083	1260.83
738.134	1263.52
738.186	1254.76
738.237	1240.28
738.288	1268.39
738.339	1225.61
738.391	1246.75
738.442	1221.16
738.493	1263.68
738.545	1270.75
738.596	1272.12
738.647	1245.08
738.699	1261.94
738.75	1231.96
738.801	1252.99
738.853	1227.24
738.904	1241.2
738.955	1225.46
739.006	1214.04
739.058	1239.5
739.109	1231.01
739.16	1205.52
739.212	1229.6
739.263	1240.91
739.314	1202.61
739.366	1252.11
739.417	1199.61
739.468	1237.74
739.519	1231.95
739.571	1228.98
739.622	1224.6
739.673	1211.77
739.725	1227.35
739.776	1250.14
739.827	1222.1
739.878	1226.74
739.93	1211.59
739.981	1224.77
740.032	1220.84
740.084	1213.94
740.135	1218.23
740.186	1220.95
740.237	1182.45
740.289	1220.43
740.34	1215.84
740.391	1228.23
740.443	1181.17
740.494	1188.02
740.545	1193.58
740.596	1185.16
740.648	1199.6
740.699	1177.39
740.75	1199.22
740.802	1218.26
740.853	1183.32
740.904	1200.73
740.956	1186.74
741.007	1212.33
741.058	1173.95
741.109	1200.84
741.161	1190.86
741.212	1146.89
741.263	1173.98
741.314	1169.91
741.366	1190.02
741.417	1164.72
741.468	1199.09
741.52	1192.26
741.571	1172.63
741.622	1155.83
741.673	1171.75
741.725	1169.19
741.776	1162.36
741.827	1176.85
741.878	1198.42
741.93	1170.1
741.981	1178.71
742.032	1163.05
742.083	1164.47
742.135	1177.31
742.186	1160.35
742.237	1162.01
742.289	1168.05
742.34	1178.44
742.391	1153.19
742.442	1184.89
742.494	1158.03
742.545	1136.74
742.596	1152.45
742.647	1141.03
742.699	1159.59
742.75	1151.11
742.801	1152.71
742.852	1097.29
742.904	1121.82
742.955	1174.91
743.006	1152.34
743.057	1149.73
743.109	1151.4
743.16	1164.53
743.211	1137.69
743.263	1152.32
743.314	1174.14
743.365	1154.49
743.416	1140.54
743.468	1145.17
743.519	1142.61
743.57	1141.47
743.621	1143.16
743.672	1143.39
743.724	1116.35
743.775	1115.05
743.826	1129.5
743.878	1119.6
743.929	1092.55
743.98	1108.58
744.031	1101.72
744.083	1142.23
744.134	1138.21
744.185	1121.15
744.236	1111.11
744.287	1082.27
744.339	1149.52
744.39	1146.47
744.441	1130.64
744.492	1123.6
744.544	1102.42
744.595	1124.47
744.646	1130.82
744.697	1119.86
744.749	1121.69
744.8	1140.61
744.851	1137.78
744.902	1120.42
744.954	1090.04
745.005	1125.78
745.056	1118.41
745.107	1124.06
745.159	1118.34
745.21	1111.32
745.261	1104.44
745.312	1110.62
745.363	1106.79
745.415	1092.85
745.466	1130.67
745.517	1112.16
745.568	1092.05
745.62	1119.37
745.671	1126.46
745.722	1107.65
745.773	1099
745.824	1083.25
745.876	1102.15
745.927	1103.78
745.978	1093.85
746.029	1080.96
746.081	1098.26
746.132	1096.73
746.183	1080.74
746.234	1119.49
746.285	1083.34
746.337	1110.61
746.388	1091.84
746.439	1061.63
746.49	1110.72
746.542	1090.73
746.593	1088.09
746.644	1078.27
746.695	1091.49
746.746	1084.46
746.798	1084.55
746.849	1080.18
746.9	1118.96
746.951	1094.2
747.003	1066.53
747.054	1070.63
747.105	1082.05
747.156	1096.52
747.207	1083.8
747.259	1079.85
747.31	1068.7
747.361	1076.21
747.412	1046
747.463	1051.58
747.515	1078.55
747.566	1093.8
747.617	1090.29
747.668	1072.5
747.719	1077.96
747.771	1070.7
747.822	1075.15
747.873	1071.05
747.924	1052.54
747.975	1065.63
748.027	1049.81
748.078	1074.23
748.129	1068.37
748.18	1074.04
748.231	1032.25
748.283	1061.05
748.334	1084.12
748.385	1040.95
748.436	1061.12
748.487	1065.41
748.539	1074.03
748.59	1046.68
748.641	1061.17
748.692	1059.94
748.743	1047.34
748.795	1037.76
748.846	1060.01
748.897	1028.94
748.948	1071.48
748.999	1015.73
749.05	1050.86
749.102	1046.8
749.153	1036.77
749.204	1046.84
749.255	1046.66
749.306	1047.88
749.358	1060.65
749.409	1053.25
749.46	1034.39
749.511	1035.88
749.562	1030.26
749.614	1023.26
749.665	1001.82
749.716	1036.74
749.767	1036.89
749.818	1029.73
749.869	1055.79
749.921	1042.79
749.972	1045.74
750.023	1028.48
750.074	1047.45
750.125	1034.64
750.177	1023.31
750.228	1017.81
750.279	1039.85
750.33	1021.38
750.381	1030.45
750.432	1048.21
750.484	1012.27
750.535	1024.09
750.586	1009.72
750.637	1035.9
750.688	1025.79
750.739	1030.23
750.791	1023.14
750.842	992.927
750.893	1004.89
750.944	1025.65
750.995	1027.56
751.046	1014.92
751.098	1018.22
751.149	1024.37
751.2	1027.56
751.251	1010.33
751.302	991.629
751.353	1010.81
751.404	1011.09
751.456	992.482
751.507	992.844
751.558	994.685
751.609	1005.29
751.66	1017.39
751.711	1012.01
751.763	1022.76
751.814	998.533
751.865	1008.01
751.916	983.884
751.967	975.85
752.018	998.554
752.07	1022.68
752.121	998.306
752.172	1000.29
752.223	996.376
752.274	993.952
752.325	1013.63
752.376	993.611
752.428	1033.94
752.479	991.726
752.53	1000.97
752.581	968.828
752.632	977.881
752.683	1009.02
752.734	997.377
752.786	978.382
752.837	974.178
752.888	1021.68
752.939	986.514
752.99	980.879
753.041	1018.09
753.092	1002.13
753.144	1008.34
753.195	992.404
753.246	976.463
753.297	1013.78
753.348	996.294
753.399	995.028
753.45	974.435
753.502	1015.97
753.553	964.155
753.604	968.585
753.655	974.489
753.706	983.378
753.757	976.029
753.808	982.097
753.859	967.537
753.911	939.752
753.962	956.544
754.013	976.404
754.064	988.897
754.115	983.556
754.166	954.362
754.217	966.705
754.269	976.011
754.32	980.807
754.371	979.623
754.422	954.596
754.473	983.169
754.524	965.547
754.575	935.964
754.626	968.951
754.678	921.426
754.729	939.508
754.78	975.535
754.831	960.908
754.882	959.771
754.933	940.773
754.984	959.15
755.035	955.138
755.086	936.154
755.138	963.476
755.189	930.884
755.24	949.094
755.291	976.228
755.342	944.917
755.393	937.537
755.444	948.134
755.495	955.777
755.547	952.999
755.598	947.303
755.649	943.189
755.7	928.639
755.751	933.629
755.802	932.618
755.853	952.602
755.904	960.509
755.955	945.777
756.006	926.437
756.058	928.069
756.109	956.712
756.16	950.704
756.211	974.743
756.262	943.107
756.313	902.461
756.364	955.118
756.415	938.668
756.466	923.824
756.518	940.68
756.569	909.44
756.62	942.97
756.671	943.347
756.722	934.614
756.773	936.352
756.824	916.917
756.875	918.563
756.926	942.843
756.977	915.86
757.029	914.557
757.08	931.396
757.131	957.322
757.182	936.451
757.233	929.172
757.284	930.968
757.335	956.964
757.386	927.027
757.437	925.808
757.488	921.542
757.539	920.276
757.59	928.072
757.642	914.665
757.693	919.446
757.744	928.813
757.795	913.983
757.846	912.831
757.897	946.59
757.948	913.592
757.999	951.88
758.05	908.122
758.101	909.844
758.152	900.881
758.203	893.417
758.255	920.919
758.306	940.875
758.357	889.435
758.408	901.882
758.459	921.957
758.51	928.281
758.561	895.754
758.612	910.533
758.663	910.252
758.714	910.121
758.765	915.285
758.816	912.653
758.867	906.151
758.919	918.723
758.97	893.264
759.021	898.973
759.072	901.166
759.123	915.216
759.174	913.032
759.225	907.912
759.276	890.557
759.327	908.283
759.378	899.762
759.429	903.467
759.48	899.071
759.531	916.2
759.582	890.052
759.633	913.292
759.685	886.819
759.736	876.496
759.787	886.218
759.838	899.001
759.889	893.81
759.94	893.051
759.991	891.535
760.042	897.115
760.093	889.482
760.144	890.65
760.195	894.801
760.246	876.465
760.297	876.366
760.348	873.449
760.399	875.817
760.45	892.18
760.501	870.8
760.552	893.638
760.603	891.202
760.655	890.634
760.706	875.378
760.757	881.954
760.808	892.679
760.859	886.627
760.91	867.147
760.961	882.592
761.012	875.119
761.063	866.026
761.114	883.794
761.165	879.835
761.216	856.773
761.267	876.729
761.318	863.388
761.369	837.071
761.42	859.804
761.471	868.694
761.522	875.153
761.573	879.279
761.624	865.782
761.675	845.462
761.726	876.821
761.777	890.148
761.828	857.363
761.88	883.159
761.931	869.717
761.982	856.925
762.033	852.942
762.084	852.879
762.135	859.112
762.186	846.937
762.237	851.754
762.288	839.618
762.339	853.245
762.39	852.995
762.441	853.013
762.492	865.752
762.543	871.733
762.594	857.715
762.645	860.292
762.696	856.463
762.747	835.398
762.798	850.569
762.849	844.076
762.9	842.372
762.951	844.429
763.002	855.338
763.053	860.586
763.104	845.221
763.155	847.773
763.206	854.723
763.257	835.325
763.308	833.948
763.359	853.66
763.41	843.925
763.461	844.007
763.512	852.194
763.563	842.95
763.614	847.797
763.665	852.624
763.678	853.247
763.729	819.93
763.78	822.95
763.832	845.139
763.883	823.547
763.934	830.429
763.986	856.157
764.037	835.896
764.088	837.388
764.139	833.935
764.191	827.327
764.242	828.808
764.293	810.121
764.345	820.086
764.396	825.452
764.447	841.794
764.498	837.362
764.55	831.058
764.601	797.714
764.652	814.914
764.704	810.172
764.755	810.43
764.806	820.401
764.857	813.074
764.909	792.982
764.96	847.054
765.011	826.433
765.062	799.275
765.114	832.205
765.165	832.023
765.216	795.714
765.268	791.315
765.319	783.959
765.37	824.229
765.421	839.129
765.473	804.677
765.524	830.32
765.575	824.044
765.626	793.897
765.678	798.718
765.729	789.347
765.78	797.559
765.831	797.912
765.883	811.005
765.934	809.746
765.985	811.575
766.036	821.255
766.088	795.841
766.139	805.421
766.19	803.904
766.242	818.408
766.293	796.405
766.344	801.571
766.395	800.403
766.447	784.848
766.498	789.939
766.549	786.945
766.6	796.641
766.652	785.564
766.703	801.688
766.754	797.166
766.805	795.966
766.857	786.864
766.908	777.78
766.959	805.468
767.01	802.639
767.062	804.488
767.113	804.622
767.164	782.245
767.215	783.892
767.267	799.995
767.318	803.332
767.369	811.558
767.42	765.322
767.472	784.942
767.523	799.841
767.574	777.858
767.625	775.178
767.677	788.585
767.728	792.303
767.779	791.113
767.83	775.32
767.882	802.961
767.933	790.235
767.984	793.614
768.035	774.434
768.087	792.428
768.138	794.376
768.189	772.179
768.24	764.557
768.292	747.234
768.343	744.423
768.394	760.975
768.445	766.127
768.497	767.982
768.548	768.192
768.599	776.529
768.65	793.04
768.701	780.445
768.753	779.281
768.804	776.547
768.855	788.459
768.906	745.055
768.958	795.958
769.009	734.483
769.06	786.946
769.111	762.808
769.163	758.205
769.214	781.334
769.265	770.226
769.316	767.279
769.367	749.624
769.419	776.043
769.47	769.758
769.521	755.26
769.572	783.249
769.624	737.649
769.675	732.94
769.726	749.526
769.777	767.779
769.828	764.769
769.88	760.13
769.931	742.395
769.982	770.59
770.033	767.7
770.085	748.462
770.136	747.323
770.187	731.413
770.238	740.129
770.289	755.371
770.341	745.838
770.392	751.032
770.443	718.281
770.494	744.826
770.546	745.044
770.597	750.267
770.648	740.708
770.699	744.393
770.75	741.504
770.802	738.622
770.853	732.43
770.904	747.73
770.955	738.203
771.006	736.915
771.058	719.017
771.109	740.839
771.16	752.692
771.211	751.269
771.263	728.285
771.314	736.841
771.365	723.85
771.416	724.162
771.467	742.762
771.519	731.452
771.57	711.802
771.621	753.675
771.672	738.977
771.723	692.628
771.775	707.882
771.826	729.837
771.877	736.843
771.928	697.196
771.979	724.3
772.031	741.453
772.082	688.475
772.133	730.765
772.184	712.898
772.235	700.057
772.287	725.77
772.338	721.339
772.389	716.878
772.44	708.987
772.491	724.522
772.543	701.274
772.594	716.595
772.645	713.347
772.696	737.01
772.747	725.386
772.799	723.944
772.85	719.233
772.901	733.14
772.952	704.947
773.003	691.908
773.055	673.751
773.106	711.274
773.157	696.377
773.208	715.235
773.259	710.391
773.31	715.674
773.362	715.865
773.413	697.42
773.464	709.428
773.515	667.243
773.566	711.443
773.618	696.404
773.669	693.29
773.72	712.301
773.771	678.796
773.822	704.712
773.873	686.466
773.925	712.347
773.976	702.464
774.027	699.326
774.078	697.869
774.129	687.915
774.18	649.025
774.232	686.817
774.283	707.592
774.334	687.421
774.385	675.733
774.436	681.091
774.488	695.009
774.539	686.78
774.59	675.191
774.641	699.563
774.692	677.78
774.743	657.668
774.795	670.047
774.846	675.521
774.897	679.229
774.948	676.043
774.999	665.984
775.05	695.438
775.102	673.436
775.153	677.261
775.204	712.116
775.255	686.82
775.306	678.72
775.357	670.579
775.409	664.091
775.46	692.041
775.511	680.24
775.562	683.935
775.613	682.438
775.664	696.508
775.716	681.218
775.767	671.12
775.818	674.861
775.869	657.825
775.92	694.455
775.971	684.338
776.023	686.359
776.074	645.061
776.125	671.399
776.176	647.422
776.227	680.707
776.278	668.829
776.329	684.73
776.381	688.475
776.432	660.936
776.483	668.208
776.534	659.845
776.585	675.868
776.636	676.199
776.688	657.301
776.739	638.325
776.79	664.634
776.841	669.976
776.892	668.332
776.943	673.694
776.994	680.855
777.046	665.379
777.097	672.657
777.148	674.731
777.199	650.581
777.25	659.637
777.301	663.425
777.352	647.931
777.404	667.456
777.455	643.2
777.506	625.97
777.557	671.925
777.608	644.244
777.659	646.409
777.71	632.745
777.762	657.71
777.813	638.646
777.864	659.973
777.915	667.172
777.966	653.225
778.017	683.324
778.068	660.652
778.12	657.43
778.171	645.46
778.222	656.453
778.273	648.031
778.324	660.753
778.375	638.065
778.426	664.794
778.477	647.275
778.529	649.188
778.58	638.732
778.631	633.619
778.682	644.486
778.733	625.297
778.784	618.536
778.835	657.905
778.886	613.943
778.938	614.32
778.989	632.45
779.04	645.234
779.091	617.081
779.142	629.769
779.193	628.182
779.244	637.249
779.295	664.124
779.347	623.357
779.398	644.951
779.449	636.294
779.5	638.347
779.551	627.918
779.602	637.102
779.653	626.641
779.704	630.449
779.755	641.401
779.807	604.111
779.858	643.692
779.909	631.461
779.96	626.421
780.011	641.13
780.062	621.87
780.113	636.708
780.164	631.853
780.216	635.958
780.267	627.431
780.318	627.798
780.369	620.87
780.42	621.055
780.471	631.997
780.522	639.341
780.573	634.12
780.624	619.948
780.675	623.859
780.727	627.828
780.778	617.389
780.829	612.36
780.88	598.274
780.931	629.361
780.982	622.458
781.033	626.394
781.084	610.402
781.135	598.022
781.187	601.957
781.238	611.351
781.289	622.576
781.34	621.084
781.391	608.653
781.442	630.7
781.493	581.811
781.544	611.062
781.595	625.753
781.646	589.498
781.698	620.559
781.749	607.952
781.8	602.633
781.851	582.767
781.902	586.612
781.953	588.696
782.004	610.907
782.055	583.931
782.106	602.596
782.157	581.069
782.208	596.029
782.26	605.437
782.311	583.67
782.362	600.272
782.413	593.067
782.464	600.523
782.515	587.875
782.566	597.24
782.617	586.475
782.668	608.71
782.719	574.097
782.77	588.994
782.821	569.028
782.872	607.822
782.924	606.251
782.975	601.018
783.026	582.91
783.077	586.852
783.128	583.42
783.179	579.975
783.23	591.271
783.281	574.962
783.332	578.961
783.383	610.685
783.434	570.488
783.485	594.917
783.536	563.91
783.588	556.886
783.639	596.092
783.69	594.541
783.741	572.551
783.792	594.979
783.843	574.735
783.894	567.435
783.945	560.128
783.996	563.97
784.047	582.71
784.098	582.97
784.149	574.02
784.2	576.278
784.252	591.603
784.303	554.828
784.354	581.33
784.405	574.277
784.456	589.573
784.507	567.53
784.558	586.542
784.609	599.954
784.66	581.559
784.711	555.613
784.762	581.982
784.813	576.478
784.864	567.182
784.915	559.743
784.966	572.919
785.017	565.548
785.068	563.85
785.12	547.207
785.171	573.701
785.222	570.22
785.273	577.996
785.324	548.223
785.375	574.767
785.426	559.988
785.477	548.947
785.528	552.93
785.579	566.309
785.63	526.987
785.681	555.412
785.732	561.262
785.783	567.133
785.834	535.334
785.885	560.116
785.936	562.32
785.987	562.683
786.038	555.531
786.089	546.509
786.141	556.405
786.192	573.862
786.243	581.794
786.294	549.817
786.345	565.119
786.396	565.16
786.447	540.495
786.498	531.002
786.549	548.105
786.6	536.832
786.651	561.685
786.702	567.648
786.753	550.874
786.804	556.916
786.855	564.867
786.906	544.262
786.957	544.54
787.008	554.296
787.059	554.486
787.11	577.516
787.161	531.914
787.212	533.977
787.263	545.618
787.314	564.956
787.365	544.264
787.416	557.983
787.467	556.44
787.518	552.973
787.57	524.579
787.621	522.924
787.672	551.876
787.723	525.211
787.774	540.68
787.825	523.542
787.876	548.601
787.927	546.83
787.978	554.682
788.029	551.043
788.08	528.212
788.131	530.349
788.182	536.328
788.233	519.225
788.284	529.027
788.335	517.656
788.386	560.172
788.437	541.099
788.488	506.618
788.539	541.508
788.59	526.324
788.641	513.071
788.692	540.332
788.743	513.543
788.794	509.882
788.845	539.034
788.896	541.131
788.947	529.699
788.998	516.353
789.049	501.105
789.1	538.156
789.151	521.055
789.202	544.658
789.253	515.922
789.304	518.175
789.355	518.442
789.406	497.282
789.457	520.735
789.508	548.026
789.559	483.937
789.61	528.677
789.661	511.257
789.712	525.016
789.763	529.161
789.814	513.944
789.865	529.947
789.916	505.043
789.967	521.043
790.018	523.319
790.069	531.376
790.12	517.889
790.171	539.583
790.222	528.096
790.273	534.284
790.324	513.122
790.375	503.698
790.426	496.175
790.477	516.021
790.528	508.297
790.579	512.268
790.63	514.252
790.681	488.792
790.732	506.598
790.783	518.622
790.834	505.192
790.885	529.172
790.936	513.827
790.987	510.26
791.038	484.958
791.089	520.719
791.14	515.016
791.191	487.537
791.242	501.458
791.293	497.584
791.344	511.479
791.395	491.831
791.446	493.962
791.497	519.888
791.548	494.484
791.599	506.694
791.65	507.029
791.701	483.524
791.752	501.557
791.803	489.81
791.854	489.955
791.905	502.042
791.956	498.323
792.007	494.675
792.058	503.016
792.109	495.486
792.16	485.951
792.211	508.258
792.262	496.633
792.313	492.912
792.363	495.115
792.414	507.252
792.465	469.419
792.516	491.488
792.567	499.582
792.618	475.725
792.669	479.892
792.72	504.119
792.771	480.382
792.822	508.715
792.873	480.972
792.924	491.279
792.975	491.545
793.026	493.81
793.077	500.111
793.128	482.34
793.179	464.591
793.23	511.265
793.281	495.584
793.332	481.884
793.383	482.257
793.434	488.645
793.485	499.036
793.536	493.224
793.587	483.326
793.638	469.344
793.689	516.04
793.74	465.589
793.79	479.911
793.841	490.218
793.892	462.065
793.943	490.69
793.994	480.816
794.045	472.949
794.096	491.445
794.147	461.162
794.198	477.574
794.249	473.667
794.3	471.811
794.351	492.363
794.402	468.171
794.453	480.606
794.504	505.247
794.555	487.07
794.606	458.665
794.657	468.997
794.708	465.102
794.758	455.147
794.809	479.963
794.86	472.144
794.911	452.022
794.962	474.787
795.013	479.055
795.064	477.101
795.115	473.061
795.166	462.904
795.217	481.516
795.268	465.418
795.319	474.037
795.37	474.528
795.421	464.741
795.472	469.276
795.523	475.765
795.573	467.717
795.624	473.999
795.675	474.063
795.726	463.837
795.777	472.219
795.828	466.228
795.879	480.911
795.93	472.894
795.981	471.031
796.032	450.51
796.083	440.262
796.134	463.064
796.185	442.469
796.236	473.621
796.286	461.42
796.337	459.632
796.388	474.472
796.439	452.033
796.49	466.903
796.541	471.38
796.592	450.884
796.643	438.641
796.694	470.027
796.745	455.639
796.796	462.033
796.847	455.928
796.897	470.637
796.948	462.443
796.999	445.922
797.05	471.095
797.101	458.771
797.152	450.628
797.203	452.929
797.254	469.866
797.305	436.686
797.356	441.109
797.407	466.455
797.458	441.593
797.508	450.186
797.559	462.945
797.61	463.105
797.661	456.947
797.712	446.582
797.763	429.933
797.814	442.685
797.865	455.509
797.916	453.713
797.967	479.305
798.018	471.316
798.068	438.049
798.119	432.099
798.17	447.182
798.221	447.442
798.272	434.965
798.323	437.214
798.374	447.89
798.425	433.223
798.476	443.957
798.526	442.075
798.577	465.662
798.628	430.035
798.679	438.901
798.73	449.896
798.781	429
798.832	433.5
798.883	437.922
798.934	410.388
798.984	433.859
799.035	431.831
799.086	421.34
799.137	400.255
799.188	445.231
799.239	447.648
799.29	450.048
799.341	446.003
799.392	433.361
799.443	427.075
799.493	435.721
799.544	442.247
799.595	446.669
799.646	425.472
799.697	436.361
799.748	419.437
799.799	413.174
799.85	419.706
799.9	443.317
799.951	419.767
800.002	439.031
800.053	409.054
800.104	424.1
800.155	422.079
800.206	430.84
800.257	431.076
800.307	431.33
800.358	433.721
800.409	425.352
800.46	408.362
800.511	425.762
800.562	434.59
800.613	421.921
800.664	430.785
800.714	433.179
800.765	398.886
800.816	433.544
800.867	418.568
800.918	412.204
800.969	431.757
801.02	418.963
801.07	399.712
801.121	402.083
801.172	413.114
801.223	424.149
801.274	422.191
801.325	409.394
801.376	405.257
801.427	420.644
801.477	388.332
801.528	418.934
801.579	425.663
801.63	434.536
801.681	412.944
801.732	415.218
801.783	421.824
801.833	380.593
801.884	400.275
801.935	420
801.986	380.984
802.037	387.676
802.088	409.606
802.139	387.931
802.189	405.458
802.24	412.091
802.291	396.936
802.342	381.795
802.393	399.394
802.444	384.254
802.495	408.399
802.545	412.877
802.596	426.088
802.647	393.419
802.698	406.676
802.749	404.673
802.8	391.761
802.85	381.044
802.901	396.611
802.952	403.416
803.003	403.633
803.054	414.814
803.105	426.001
803.155	428.404
803.206	393.431
803.257	395.785
803.308	400.308
803.359	389.405
803.41	391.684
803.46	404.975
803.511	385.278
803.562	425.074
803.613	396.641
803.664	363.799
803.715	397.114
803.765	401.766
803.816	371.068
803.867	395.565
803.918	406.807
803.969	398.145
804.02	387.258
804.07	387.426
804.121	383.156
804.172	405.457
804.223	363.484
804.274	387.986
804.325	379.236
804.375	390.452
804.426	386.152
804.477	390.737
804.528	388.66
804.579	386.568
804.63	373.339
804.68	402.31
804.731	384.587
804.782	384.642
804.833	391.383
804.884	398.157
804.934	407.192
804.985	387.322
805.036	376.348
805.087	403.221
805.138	381.055
805.188	392.276
805.239	390.101
805.29	390.151
805.341	390.215
805.392	372.464
805.443	403.813
805.493	386.03
805.544	386.081
805.595	386.225
805.646	392.496
805.697	396.227
805.747	394.051
805.798	391.251
805.849	386.028
805.9	380.18
805.951	361.645
806.001	379.393
806.052	382.332
806.103	397.684
806.154	395.49
806.205	375.863
806.255	372.913
806.306	348.941
806.357	375.636
806.408	374.043
806.459	393.288
806.509	371.474
806.56	382.121
806.611	364.693
806.662	374.146
806.713	378.685
806.763	377.391
806.814	383.561
806.865	386.168
806.916	366.051
806.967	367.254
807.017	377.409
807.068	359.116
807.119	362.439
807.17	363.647
807.22	380.369
807.271	368.547
807.322	384.326
807.373	365.863
807.424	377.521
807.474	377.939
807.525	377.574
807.576	356.113
807.627	367.386
807.678	356.805
807.728	370.629
807.779	370.516
807.83	365.103
807.881	361.425
807.931	387.307
807.982	361.933
808.033	365.95
808.084	361.294
808.135	363.242
808.185	360.766
808.236	361.826
808.287	367.707
808.338	359.903
808.388	370.639
808.439	360.034
808.49	365.651
808.541	353.17
808.591	360.665
808.642	363.416
808.693	340.226
808.744	344.38
808.795	357.141
808.845	356.794
808.896	354.529
808.947	344.296
808.998	383.039
809.048	339.946
809.099	356.199
809.15	355.337
809.201	345.944
809.251	363.65
809.302	357.044
809.353	346.453
809.404	352.051
809.454	347.547
809.505	367.878
809.556	360.014
809.607	356.571
809.658	350.629
809.708	356.358
809.759	346.634
809.81	355.187
809.861	350.433
809.911	340.013
809.962	380.736
810.013	346.896
810.064	346.4
810.114	365.318
810.165	343.784
810.216	347.24
810.267	341.962
810.317	343.236
810.368	346.775
810.419	345.08
810.469	336.762
810.52	350.375
810.571	356.412
810.622	332.13
810.627	329.168
810.678	347.928
810.729	341.176
810.78	322.786
810.831	325.261
810.882	350.955
810.933	337.12
810.984	353.493
811.035	330.315
811.086	355.977
811.137	337.426
811.188	344.472
811.239	349.205
811.29	337.663
811.341	347.107
811.392	344.929
811.443	352.088
811.494	349.919
811.545	347.735
811.596	347.869
811.648	322.307
811.699	352.808
811.75	348.29
811.801	339.108
811.852	322.908
811.903	332.438
811.954	344.296
812.005	311.61
812.056	339.797
812.107	337.485
812.158	337.487
812.209	311.699
812.26	342.17
812.311	342.209
812.362	332.925
812.413	335.424
812.464	340.325
812.515	342.913
812.566	347.845
812.617	310.398
812.668	329.304
812.719	334.023
812.77	341.034
812.821	333.912
812.872	324.464
812.923	317.426
812.974	345.743
813.025	312.98
813.076	346.162
813.127	339.346
813.178	330.138
813.229	325.591
813.28	325.706
813.331	323.417
813.382	323.47
813.433	349.505
813.484	330.696
813.535	335.533
813.586	312.029
813.637	312.164
813.688	338.324
813.739	319.537
813.79	314.949
813.841	336.439
813.892	322.422
813.943	334.51
813.994	327.635
814.045	327.864
814.096	323.292
814.147	328.154
814.198	321.039
814.249	344.752
814.3	335.119
814.351	361.117
814.402	315.886
814.453	322.996
814.504	325.461
814.555	316.148
814.606	325.932
814.657	335.776
814.708	333.715
814.759	343.536
814.81	322.268
814.861	327.176
814.912	312.916
814.963	303.391
815.014	327.294
815.065	327.315
815.116	320.19
815.167	315.48
815.217	303.624
815.268	327.652
815.319	327.778
815.37	294.386
815.421	327.987
815.472	328.057
815.523	337.683
815.574	316.155
815.625	316.165
815.676	306.575
815.727	299.356
815.778	323.236
815.829	318.353
815.88	308.677
815.931	325.337
815.982	308.555
816.033	310.985
816.084	327.863
816.135	325.687
816.186	311.583
816.237	309.468
816.288	297.726
816.339	317.147
816.39	312.477
816.441	317.342
816.492	334.163
816.543	317.295
816.594	312.452
816.645	314.86
816.696	302.908
816.747	298.232
816.798	310.45
816.849	301.04
816.9	325.356
816.951	303.858
817.001	306.425
817.052	308.953
817.103	306.617
817.154	309.081
817.205	311.527
817.256	306.721
817.307	306.753
817.358	289.904
817.409	294.844
817.46	280.505
817.511	295.246
817.562	300.363
817.613	324.892
817.664	296.039
817.715	327.77
817.766	296.286
817.817	298.717
817.868	296.245
817.919	320.475
817.97	293.751
818.021	308.351
818.071	306.006
818.122	303.693
818.173	286.806
818.224	296.646
818.275	301.613
818.326	304.137
818.377	299.357
818.428	284.84
818.479	319.032
818.53	282.611
818.581	307.105
818.632	321.879
818.683	295.201
818.734	307.559
818.785	293.07
818.836	285.896
818.887	286.042
818.938	305.745
818.988	298.531
819.039	308.43
819.09	308.526
819.141	266.975
819.192	293.994
819.243	306.323
819.294	303.954
819.345	281.975
819.396	309.05
819.447	296.908
819.498	279.873
819.549	299.699
819.6	326.959
819.651	307.541
819.702	302.879
819.753	303.134
819.803	291.042
819.854	308.524
819.905	293.887
819.956	301.435
820.007	286.703
820.058	269.453
820.109	276.888
820.16	289.242
820.211	311.47
820.262	276.852
820.313	274.399
820.364	289.299
820.415	286.947
820.465	299.49
820.516	274.924
820.567	287.499
820.618	305.02
820.669	300.182
820.72	280.407
820.771	300.308
820.822	292.912
820.873	302.921
820.924	280.69
820.975	290.786
821.026	285.996
821.076	291.151
821.127	301.263
821.178	283.941
821.229	271.548
821.28	276.562
821.331	286.549
821.382	284.085
821.433	271.671
821.484	276.724
821.535	276.809
821.586	294.365
821.637	279.492
821.687	267.1
821.738	272.176
821.789	282.252
821.84	299.837
821.891	267.456
821.942	272.57
821.993	280.197
822.044	272.814
822.095	290.453
822.146	278.028
822.196	290.626
822.247	273.138
822.298	275.684
822.349	273.225
822.4	268.286
822.451	280.949
822.502	266.071
822.553	288.9
822.604	279.111
822.655	276.852
822.706	287.152
822.756	282.291
822.807	259.716
822.858	285.005
822.909	277.486
822.96	277.528
823.011	280.098
823.062	287.72
823.113	282.709
823.164	277.66
823.214	280.147
823.265	269.993
823.316	277.502
823.367	262.328
823.418	264.847
823.469	264.884
823.52	275.046
823.571	272.607
823.622	272.685
823.672	275.265
823.723	277.818
823.774	280.344
823.825	280.329
823.876	285.361
823.927	265.148
823.978	275.254
824.029	262.649
824.08	270.265
824.13	265.266
824.181	257.75
824.232	278.04
824.283	262.948
824.334	268.082
824.385	283.342
824.436	275.842
824.487	253.154
824.537	253.247
824.588	271.07
824.639	266.086
824.69	263.614
824.741	266.188
824.792	263.674
824.843	253.548
824.893	261.179
824.944	268.831
824.995	273.969
825.046	258.824
825.097	269.055
825.148	264.05
825.199	271.728
825.25	259.084
825.3	248.98
825.351	256.677
825.402	254.233
825.453	261.982
825.504	257.026
825.555	267.338
825.606	254.713
825.657	254.788
825.707	282.857
825.758	262.477
825.809	254.815
825.86	259.884
825.911	247.125
825.962	254.763
826.013	254.777
826.063	254.805
826.114	259.933
826.165	247.211
826.216	252.309
826.267	257.383
826.318	249.699
826.369	254.748
826.419	244.516
826.47	249.578
826.521	259.746
826.572	269.923
826.623	221.539
826.674	269.926
826.725	224.101
826.775	254.688
826.826	252.186
826.877	252.25
826.928	265.073
826.979	270.263
827.03	252.5
827.08	270.436
827.131	255.198
827.182	257.817
827.233	250.228
827.284	268.185
827.335	219.73
827.386	242.806
827.436	258.208
827.487	253.125
827.538	271.005
827.589	263.27
827.64	242.732
827.691	229.87
827.741	247.685
827.792	252.79
827.843	250.315
827.894	250.476
827.945	248.146
827.996	238.164
828.046	246.105
828.097	246.331
828.148	249.063
828.199	251.724
828.25	233.761
828.301	228.586
828.351	264.465
828.402	236.155
828.453	230.989
828.504	231.003
828.555	256.737
828.606	241.435
828.656	254.41
828.707	244.263
828.758	246.955
828.809	241.905
828.86	257.419
828.911	236.868
828.961	244.618
829.012	244.632
829.063	254.94
829.114	254.947
829.165	254.956
829.216	242.091
829.266	224.079
829.317	247.285
829.368	237.014
829.419	247.363
829.47	242.26
829.52	242.313
829.571	244.943
829.622	244.991
829.673	239.877
829.724	247.662
829.774	232.237
829.825	265.866
829.876	245.319
829.927	235.109
829.978	224.897
830.029	250.878
830.079	222.525
830.13	243.302
830.181	222.644
830.232	245.981
830.283	240.837
830.333	246.056
830.384	235.74
830.435	240.963
830.486	230.626
830.537	253.954
830.587	233.205
830.638	238.353
830.689	235.726
830.74	230.52
830.791	230.52
830.841	243.504
830.892	243.571
830.943	217.744
830.994	238.591
831.045	246.485
831.095	233.606
831.146	231.079
831.197	233.717
831.248	236.33
831.299	218.155
831.349	218.162
831.4	225.978
831.451	228.621
831.502	226.088
831.553	218.362
831.603	223.625
831.654	226.271
831.705	228.893
831.756	218.49
831.807	239.291
831.857	247.091
831.908	231.498
831.959	249.74
832.01	239.381
832.061	229.022
832.111	249.889
832.162	221.286
832.213	234.326
832.264	239.556
832.315	229.174
832.365	247.462
832.416	237.123
832.467	247.649
832.518	234.72
832.568	232.208
832.619	229.674
832.67	237.556
832.721	232.362
832.772	221.928
832.822	232.375
832.873	237.603
832.924	216.732
832.975	227.213
833.025	227.267
833.076	224.724
833.127	211.733
833.178	219.654
833.229	217.113
833.279	235.491
833.33	206.756
833.381	227.732
833.432	233
833.482	238.268
833.533	230.445
833.584	217.387
833.635	225.284
833.685	214.843
833.736	233.22
833.787	230.633
833.838	212.32
833.889	222.846
833.939	217.652
833.99	233.446
834.041	230.884
834.092	220.438
834.142	223.091
834.193	225.72
834.244	217.831
834.295	230.932
834.345	209.93
834.396	233.569
834.447	215.253
834.498	207.461
834.548	231.205
834.599	223.426
834.65	220.878
834.701	215.67
834.751	236.739
834.802	252.534
834.853	228.867
834.904	207.835
834.954	228.901
835.005	223.658
835.056	207.878
835.107	213.131
835.157	234.152
835.208	223.593
835.259	226.195
835.31	215.669
835.36	234.104
835.411	221
835.462	215.798
835.513	226.382
835.563	221.153
835.614	218.528
835.665	207.983
835.716	197.435
835.766	197.43
835.817	210.617
835.868	223.849
835.919	208.143
835.969	221.439
836.02	229.475
836.071	211.111
836.122	232.301
836.172	213.864
836.223	227.08
836.274	198.028
836.325	227.048
836.375	213.809
836.426	232.231
836.477	226.886
836.528	229.447
836.578	210.914
836.629	205.582
836.68	197.637
836.73	221.336
836.781	200.263
836.832	224.005
836.883	197.686
836.933	218.817
836.984	213.592
837.035	208.368
837.086	213.696
837.136	216.383
837.187	213.774
837.238	219.052
837.288	195.266
837.339	221.583
837.39	216.226
837.441	216.161
837.491	221.411
837.542	218.814
837.593	210.998
837.643	195.292
837.694	219.179
837.745	213.998
837.796	211.401
837.846	198.175
837.897	213.967
837.948	219.164
837.999	203.244
838.049	208.465
838.1	197.883
838.151	203.154
838.201	192.604
838.252	203.156
838.303	221.602
838.354	187.268
838.404	197.762
838.455	192.428
838.506	202.916
838.556	187.068
838.607	202.858
838.658	194.955
838.708	200.236
838.759	194.984
838.81	192.367
838.861	187.111
838.911	189.762
838.962	210.867
839.013	200.348
839.063	203.014
839.114	208.323
839.165	187.265
839.216	200.501
839.266	205.834
839.317	208.532
839.368	211.227
839.418	198.061
839.469	205.998
839.52	200.705
839.57	190.114
839.621	198.002
839.672	205.898
839.722	197.977
839.773	200.643
839.824	187.489
839.875	208.681
839.925	203.467
839.976	185.03
840.027	185.083
840.077	222.156
840.128	198.398
840.179	206.372
840.229	195.816
840.28	203.77
840.331	190.539
840.381	203.76
840.432	177.283
840.483	206.375
840.534	206.371
840.584	177.278
840.635	198.473
840.686	206.456
840.736	211.804
840.787	190.677
840.838	198.677
840.888	182.831
840.939	204.082
840.99	196.18
841.04	190.927
841.091	198.935
841.142	196.333
841.192	183.113
841.243	201.734
841.294	193.808
841.344	207.115
841.395	183.242
841.446	185.922
841.496	183.292
841.547	215.208
841.598	183.367
841.648	196.709
841.699	191.451
841.75	199.492
841.8	178.264
841.851	204.914
841.902	191.625
841.952	178.308
842.003	196.896
842.054	186.192
842.104	210.047
842.155	183.386
842.206	201.925
842.256	175.318
842.307	191.242
842.358	188.594
842.408	188.619
842.459	196.621
842.51	191.338
842.56	172.757
842.611	183.406
842.662	204.683
842.712	204.692
842.763	188.747
842.814	186.09
842.864	183.428
842.915	183.419
842.966	162.144
843.016	188.72
843.067	172.78
843.118	191.417
843.168	183.489
843.219	175.568
843.269	191.591
843.32	188.982
843.371	181.03
843.421	189.038
843.472	194.38
843.523	202.398
843.573	167.819
843.624	181.204
843.675	199.947
843.725	186.7
843.776	184.1
843.827	189.478
843.877	178.813
843.928	184.137
843.979	184.108
844.029	192.079
844.08	192.05
844.13	168.025
844.181	194.686
844.232	186.685
844.282	178.694
844.333	176.051
844.384	189.428
844.434	186.811
844.485	189.538
844.536	165.56
844.586	181.626
844.637	178.985
844.687	195.035
844.738	187.031
844.789	197.728
844.839	192.396
844.89	165.687
844.941	163.03
844.991	197.793
845.042	184.445
845.092	163.075
845.143	189.829
845.194	187.179
845.244	189.88
845.295	181.883
845.346	181.906
845.396	200.651
845.447	168.558
845.497	173.922
845.548	176.62
845.599	192.716
845.649	190.096
845.7	168.737
845.75	166.118
845.801	198.329
845.852	187.643
845.902	176.934
845.953	201.063
846.004	176.934
846.054	179.623
846.105	168.92
846.155	187.724
846.206	182.397
846.257	179.745
846.307	171.714
846.358	171.721
846.409	177.092
846.459	169.056
846.51	171.77
846.56	185.244
846.611	179.939
846.661	171.943
846.712	155.862
846.763	193.502
846.813	177.361
846.864	190.754
846.915	179.955
846.965	193.334
847.016	179.881
847.066	169.14
847.117	166.474
847.168	174.562
847.218	169.224
847.269	177.308
847.319	177.319
847.37	169.258
847.421	179.999
847.471	166.566
847.522	185.384
847.572	177.351
847.623	182.767
847.674	163.996
847.724	190.931
847.775	164.077
847.825	174.867
847.876	147.984
847.926	172.217
847.977	172.233
848.028	158.794
848.078	156.124
848.129	172.309
848.179	185.816
848.23	169.706
848.281	158.977
848.331	180.579
848.382	180.612
848.432	175.241
848.483	167.164
848.534	183.357
848.584	169.903
848.635	145.672
848.685	172.716
848.736	180.894
848.786	183.672
848.837	175.627
848.888	178.367
848.938	181.091
848.989	170.296
849.039	167.62
849.09	156.848
849.14	189.371
849.191	181.33
849.242	151.613
849.292	176.017
849.343	173.317
849.393	173.302
849.444	165.161
849.494	165.162
849.545	162.483
849.596	170.669
849.646	165.332
849.697	173.553
849.747	181.77
849.798	168.256
849.848	181.849
849.899	168.276
849.95	160.118
850	160.1
850.051	168.228
850.101	162.799
850.152	179.086
850.202	160.103
850.253	160.116
850.303	168.271
850.354	154.713
850.405	152.013
850.455	162.893
850.506	173.783
850.556	168.388
850.607	165.711
850.657	165.75
850.708	152.198
850.758	179.413
850.809	152.256
850.86	179.47
850.91	165.89
850.961	155.019
851.011	165.893
851.062	168.597
851.112	168.578
851.163	163.128
851.213	160.415
851.264	165.887
851.314	176.834
851.365	160.6
851.416	174.323
851.466	168.986
851.517	166.356
851.567	163.702
851.618	152.835
851.668	171.97
851.719	171.986
851.769	158.343
851.82	150.159
851.87	144.706
851.921	161.104
851.971	155.667
852.022	169.359
852.073	158.476
852.123	163.99
852.174	161.302
852.224	147.664
852.275	161.354
852.325	147.804
852.376	121.06
852.426	153.268
852.477	169.152
852.527	163.71
852.578	158.191
852.628	155.772
852.679	164
852.729	163.8
852.78	173.191
852.831	150.376
852.881	161.279
852.932	153.787
852.982	153.813
853.033	166.619
853.083	157.903
853.134	166.822
853.184	147.891
853.235	159.586
853.285	163.048
853.336	164.233
853.386	141.754
853.437	161.128
853.487	158.286
853.538	148.368
853.588	150.146
853.639	158.898
853.689	164.333
853.74	158.819
853.79	145.231
853.841	150.284
853.891	162.772
853.942	156.801
853.992	156.634
854.043	158.738
854.093	153.714
854.144	156.638
854.194	158.84
854.245	158.003
854.295	159.234
854.346	141.978
854.396	140.38
854.447	145.129
854.497	153.571
854.548	146.341
854.598	147.886
854.649	167.374
854.699	149.491
854.75	139.353
854.8	158.469
854.851	146.7
854.901	144.914
854.952	152.979
855.002	155.472
855.053	151.511
855.103	151.206
855.154	142.162
855.204	152.727
855.255	161.434
855.305	155.122
855.356	150.066
855.406	153.008
855.457	150.783
855.507	149.529
855.558	149.011
855.608	152.758
855.659	148.583
855.709	138.455
855.76	146.409
855.81	147.557
855.861	154.879
855.911	148.697
855.962	142.254
856.012	149.681
856.063	154.246
856.113	139.879
856.164	137.579
856.214	145.741
856.265	155.76
856.315	147.093
856.366	151.482
856.416	158.257
856.467	153.869
856.517	138.94
856.568	141.224
856.618	150.07
856.668	149.819
856.719	143.768
856.769	133.307
856.82	139.176
856.87	148.772
856.921	129.836
856.971	133.605
857.022	154.515
857.072	150.829
857.123	145.489
857.173	142.889
857.224	140.879
857.274	140.693
857.325	142.073
857.352	133.041
857.403	157.999
857.453	141.375
857.504	146.927
857.555	144.16
857.606	138.618
857.656	144.161
857.707	152.471
857.758	152.461
857.809	141.363
857.859	135.815
857.91	138.593
857.961	133.066
858.012	144.188
858.063	166.418
858.113	138.724
858.164	147.086
858.215	152.661
858.266	147.114
858.316	133.222
858.367	144.295
858.418	135.936
858.469	152.545
858.519	135.877
858.57	144.178
858.621	152.486
858.672	149.706
858.722	130.292
858.773	149.683
858.824	141.35
858.875	155.192
858.925	130.245
858.976	133.023
859.027	138.586
859.078	130.295
859.128	141.409
859.179	163.604
859.23	130.323
859.281	138.622
859.331	141.367
859.382	149.66
859.433	146.882
859.483	130.262
859.534	144.142
859.585	152.485
859.636	146.957
859.686	141.415
859.737	141.406
859.788	141.394
859.839	146.933
859.889	124.763
859.94	144.197
859.991	147.01
860.042	127.629
860.092	135.98
860.143	130.44
860.194	133.206
860.245	135.956
860.295	135.926
860.346	144.223
860.397	149.761
860.447	138.682
860.498	135.944
860.549	149.871
860.6	127.719
860.65	138.872
860.701	127.79
860.752	113.906
860.802	136.119
860.853	141.648
860.904	133.287
860.955	161.029
861.005	136.033
861.056	138.815
861.107	130.505
861.158	130.531
861.208	158.34
861.259	122.257
861.31	130.623
861.36	138.992
861.411	147.363
861.462	136.268
861.513	133.507
861.563	136.301
861.614	136.305
861.665	130.736
861.715	136.287
861.766	147.391
861.817	150.143
861.868	122.308
861.918	144.501
861.969	127.781
862.02	136.063
862.07	127.687
862.121	133.201
862.172	130.404
862.223	130.398
862.273	135.957
862.324	144.303
862.375	138.777
862.425	122.142
862.476	124.926
862.527	141.576
862.577	147.103
862.628	127.639
862.679	138.695
862.73	141.428
862.78	133.086
862.831	124.769
862.882	130.346
862.932	127.632
862.983	141.593
863.034	138.911
863.084	133.437
863.135	136.277
863.186	136.302
863.237	127.946
863.287	133.466
863.338	125.066
863.389	130.558
863.439	124.946
863.49	130.458
863.541	124.889
863.591	127.67
863.642	136.026
863.693	133.296
863.744	136.13
863.794	141.745
863.845	133.454
863.896	139.047
863.946	133.497
863.997	133.495
864.048	125.143
864.098	125.139
864.149	116.805
864.2	133.517
864.25	114.08
864.301	144.732
864.352	141.984
864.402	125.295
864.453	116.938
864.504	133.624
864.555	114.115
864.605	105.746
864.656	130.774
864.707	139.108
864.757	133.531
864.808	122.387
864.859	122.363
864.909	136.232
864.96	130.639
865.011	130.621
865.061	130.625
865.112	133.43
865.163	127.909
865.213	130.732
865.264	141.894
865.315	125.217
865.365	139.128
865.416	114.073
865.467	127.969
865.517	136.307
865.568	127.969
865.619	122.43
865.669	122.467
865.72	128.079
865.771	122.552
865.821	122.588
865.872	133.763
865.923	122.637
865.973	114.294
866.024	122.676
866.075	131.064
866.125	139.454
866.176	119.947
866.227	122.747
866.277	125.538
866.328	125.532
866.379	128.311
866.429	145.037
866.48	131.087
866.531	128.301
866.581	125.52
866.632	125.528
866.683	136.69
866.733	125.529
866.784	128.31
866.835	117.144
866.885	136.666
866.936	114.364
866.987	131.13
867.037	125.596
867.088	134.029
867.138	122.917
867.189	120.169
867.24	131.379
867.29	123.002
867.341	131.378
867.392	111.792
867.442	131.332
867.493	125.73
867.544	111.762
867.594	125.751
867.645	131.372
867.696	123.024
867.746	114.671
867.797	114.7
867.848	131.511
867.898	123.132
867.949	128.741
867.999	139.945
868.05	134.357
868.101	114.772
868.151	120.382
868.202	123.195
868.253	114.807
868.303	137.223
868.354	123.235
868.405	123.254
868.455	109.27
868.506	126.116
868.556	134.57
868.607	117.794
868.658	129.062
868.708	129.107
868.759	117.914
868.81	117.939
868.86	120.765
868.911	123.59
868.961	129.225
869.012	137.673
869.063	120.836
869.113	118.047
869.164	126.5
869.215	115.274
869.265	120.914
869.316	115.305
869.367	120.943
869.417	129.39
869.468	123.765
869.518	118.132
869.569	104.055
869.62	118.099
869.67	118.085
869.721	118.082
869.771	112.468
869.822	129.358
869.873	120.942
869.923	120.956
869.974	123.771
870.025	123.763
870.075	126.561
870.126	109.678
870.176	109.68
870.227	120.947
870.278	126.606
870.328	104.135
870.379	129.516
870.43	112.667
870.48	123.98
870.531	107.114
870.581	109.973
870.632	124.117
870.683	124.161
870.733	124.2
870.784	132.703
870.834	112.962
870.885	121.451
870.936	121.461
870.986	132.766
871.037	121.466
871.087	112.987
871.138	110.153
871.189	121.439
871.239	124.254
871.29	121.431
871.34	112.972
871.391	118.649
871.442	127.167
871.492	113.083
871.543	121.614
871.593	110.343
871.644	124.529
871.695	110.405
871.745	118.918
871.796	135.918
871.846	133.089
871.897	118.927
871.948	121.755
871.998	116.094
872.049	116.105
872.099	101.965
872.15	130.321
872.201	127.517
872.251	102.028
872.302	113.365
872.352	119.021
872.403	136.003
872.453	110.489
872.504	130.315
872.555	127.49
872.605	107.671
872.656	96.3478
872.706	110.52
872.757	124.681
872.808	113.332
872.858	113.317
872.909	104.811
872.959	121.814
873.01	107.668
873.06	121.867
873.111	104.895
873.162	110.597
873.212	113.46
873.263	116.314
873.313	116.32
873.364	124.826
873.415	113.468
873.465	119.129
873.516	113.451
873.566	107.785
873.617	130.5
873.667	99.3217
873.718	122.063
873.769	116.416
873.819	136.306
873.87	102.217
873.92	124.886
873.971	121.981
874.021	119.07
874.072	99.1684
874.123	101.961
874.173	113.271
874.224	101.952
874.274	107.648
874.325	119.03
874.375	104.911
874.426	99.2889
874.477	110.686
874.527	113.569
874.578	119.285
874.628	99.4247
874.679	113.638
874.729	107.952
874.78	113.618
874.83	93.7153
874.881	102.214
874.932	110.715
874.982	122.064
875.033	119.231
875.083	107.888
875.134	122.098
875.184	102.225
875.235	116.414
875.285	110.717
875.336	119.215
875.387	102.178
875.437	107.862
875.488	122.08
875.538	116.439
875.589	110.795
875.639	102.299
875.69	127.888
875.74	105.145
875.791	122.168
875.841	113.61
875.892	124.937
875.943	116.4
875.993	105.045
876.044	110.745
876.094	116.462
876.145	113.664
876.195	108.017
876.246	116.571
876.296	125.113
876.347	122.266
876.397	99.5085
876.448	105.183
876.499	119.39
876.549	110.865
876.6	110.877
876.65	99.5219
876.701	125.139
876.751	116.631
876.802	102.427
876.852	93.907
876.903	102.458
876.953	105.318
877.004	108.178
877.054	99.6522
877.105	116.754
877.155	105.383
877.206	122.496
877.257	108.274
877.307	119.692
877.358	114.008
877.408	105.464
877.459	99.7631
877.509	111.158
877.56	105.448
877.61	108.288
877.661	113.982
877.711	111.132
877.762	108.288
877.812	108.296
877.863	114.006
877.913	114.018
877.964	94.0758
878.014	105.494
878.065	102.663
878.115	105.541
878.166	102.72
878.216	108.463
878.267	105.647
878.318	99.9745
878.368	88.5824
878.419	117.201
878.469	100.086
878.52	102.981
878.57	108.736
878.621	103.039
878.671	105.92
878.722	117.382
878.772	111.655
878.823	108.78
878.873	108.761
878.924	97.29
878.974	108.711
879.025	100.11
879.075	111.544
879.126	108.693
879.176	108.722
879.227	114.495
879.277	105.969
879.328	103.171
879.378	106.105
879.429	109.035
879.479	114.824
879.53	100.501
879.58	100.517
879.631	114.882
879.681	109.137
879.732	106.261
879.782	94.7705
879.833	109.129
879.883	106.259
879.934	114.879
879.984	97.6534
880.035	117.768
880.085	100.546
880.136	120.675
880.186	103.459
880.237	103.49
880.287	109.278
880.338	106.444
880.388	106.487
880.439	115.166
880.489	103.687
880.54	109.484
880.59	109.522
880.641	109.561
880.691	92.2953
880.742	106.754
880.792	112.556
880.842	124.122
880.893	95.2617
880.943	109.69
880.994	118.338
881.044	98.1282
881.095	109.679
881.145	95.2669
881.196	115.515
881.246	104.009
881.297	104.055
881.347	80.9647
881.398	98.3462
881.448	107.051
881.499	101.286
881.549	98.413
881.6	112.913
881.65	110.047
881.701	107.18
881.751	86.9233
881.802	92.7335
881.852	92.7415
881.902	101.439
881.953	98.5425
882.003	107.243
882.054	92.7608
882.104	92.7767
882.155	89.8949
882.205	110.211
882.256	101.517
882.306	121.815
882.357	98.5986
882.407	101.481
882.458	110.165
882.508	98.5676
882.559	104.382
882.609	104.416
882.659	78.3464
882.71	98.7072
882.76	107.468
882.811	90.0791
882.861	84.2965
882.912	104.672
882.962	107.602
883.013	116.347
883.063	107.637
883.114	101.834
883.164	101.851
883.214	107.692
883.265	96.0712
883.315	87.3603
883.366	110.686
883.416	113.627
883.467	96.1638
883.517	104.916
883.568	107.834
883.618	96.1756
883.669	93.2639
883.719	102.019
883.769	110.788
883.82	96.2408
883.87	105.026
883.921	105.058
883.971	110.921
884.022	108.019
884.072	99.2722
884.123	96.3654
884.173	108.068
884.223	93.49
884.274	105.21
884.324	108.167
884.375	108.192
884.425	111.13
884.476	87.736
884.526	108.203
884.577	105.275
884.627	111.127
884.677	105.291
884.728	108.24
884.778	99.4922
884.829	105.377
884.879	87.8375
884.93	120.069
884.98	90.7931
885.03	105.437
885.081	90.7826
885.131	96.6186
885.182	105.371
885.232	87.7813
885.283	87.7566
885.333	108.215
885.383	111.139
885.434	96.5312
885.484	99.4862
885.535	93.6654
885.585	105.401
885.635	102.478
885.686	93.6838
885.736	117.082
885.787	93.6504
885.837	99.5009
885.888	105.37
885.938	93.6926
885.988	99.5892
886.039	96.6978
886.089	82.0688
886.14	99.6649
886.19	87.9343
886.241	87.9207
886.291	102.559
886.341	102.554
886.392	96.7025
886.442	105.518
886.493	105.551
886.543	102.651
886.593	96.806
886.644	85.079
886.694	96.8098
886.745	93.8659
886.795	85.0586
886.845	85.0604
886.896	96.8104
886.946	108.583
886.997	96.8898
887.047	82.2533
887.097	114.628
887.148	99.9795
887.198	91.1946
887.249	88.282
887.299	91.2485
887.349	73.6019
887.4	106
887.45	91.2838
887.501	100.119
887.551	100.119
887.602	106.011
887.652	94.2417
887.702	82.4777
887.753	94.287
887.803	97.2657
887.853	91.4005
887.904	100.273
887.954	82.5928
888.005	88.5026
888.055	94.4107
888.105	88.5197
888.156	103.292
888.206	91.5137
888.257	97.4549
888.307	103.405
888.357	76.8468
888.408	88.6977
888.458	100.542
888.509	97.5883
888.559	100.537
888.609	97.566
888.66	88.6852
888.71	103.462
888.76	91.6438
888.811	88.7037
888.861	100.556
888.912	79.8756
888.962	82.8542
889.012	79.9093
889.063	91.7574
889.113	100.642
889.163	109.527
889.214	85.8501
889.264	94.7409
889.315	79.9503
889.365	100.698
889.415	103.683
889.466	91.8528
889.516	91.869
889.566	100.773
889.617	103.748
889.667	106.724
889.718	77.0884
889.768	77.1032
889.818	91.9552
889.869	97.9206
889.919	94.9896
889.969	80.179
890.02	86.1496
890.07	104.005
890.12	92.1391
890.171	92.1519
890.221	92.159
890.272	92.164
890.322	107.038
890.372	86.2394
890.423	95.1886
890.473	86.3029
890.523	95.2863
890.574	80.4528
890.624	101.384
890.674	98.469
890.725	101.511
890.775	83.6324
890.826	92.6159
890.876	83.661
890.926	89.6357
890.977	92.6182
891.027	95.6021
891.077	80.6668
891.128	95.618
891.178	92.6523
891.228	98.662
891.279	92.7162
891.329	101.724
891.379	83.7951
891.43	107.755
891.48	98.7816
891.53	83.8148
891.581	80.8211
891.631	89.807
891.681	71.8595
891.732	95.8468
891.782	86.9061
891.832	101.955
891.883	75.0188
891.933	78.0715
891.983	93.1374
892.034	99.1863
892.084	96.2027
892.134	87.1912
892.185	87.1922
892.235	96.2154
892.286	84.201
892.336	78.2118
892.386	108.348
892.437	93.3589
892.487	90.4091
892.537	102.529
892.587	102.583
892.638	81.4961
892.688	108.696
892.738	96.6462
892.789	105.742
892.839	93.6963
892.889	93.742
892.94	87.7383
892.99	96.8579
893.04	81.7499
893.091	93.8754
893.141	81.7626
893.191	87.8101
893.242	75.6883
893.292	84.7624
893.342	84.7601
893.393	93.8466
893.443	99.9135
893.493	84.7895
893.544	84.8069
893.594	75.7385
893.644	81.8204
893.695	87.9091
893.745	90.9718
893.795	91.0033
893.846	84.9634
893.896	84.987
893.946	91.0801
893.996	88.0657
894.047	78.9771
894.097	66.8474
894.147	97.2635
894.198	91.2092
894.248	94.2652
894.298	88.1866
894.349	100.343
894.399	79.05
894.449	82.0878
894.5	91.2201
894.55	88.2067
894.6	79.1182
894.65	79.1602
894.701	91.3857
894.751	82.2841
894.801	82.3157
894.852	91.4957
894.902	76.2784
894.952	100.739
895.003	91.6371
895.053	76.4152
895.103	76.4655
895.153	85.692
895.204	79.61
895.254	85.7663
895.304	82.7271
895.355	88.8747
895.405	82.7606
895.455	79.7087
895.505	88.9209
895.556	88.9373
895.606	95.0905
895.656	64.4308
895.707	82.8593
895.757	85.9479
895.807	92.1065
895.858	85.9824
895.908	92.1408
895.958	79.8722
896.008	89.1107
896.059	79.9153
896.109	76.8645
896.159	73.8113
896.21	104.593
896.26	92.3098
896.31	92.3294
896.36	67.7223
896.411	98.5251
896.461	98.5431
896.511	92.3965
896.561	86.2417
896.612	95.4799
896.662	86.2343
896.712	86.2311
896.763	83.1577
896.813	80.0987
896.863	92.4652
896.913	89.441
896.964	89.5069
897.014	74.1266
897.064	83.4385
897.115	71.1008
897.165	95.8405
897.215	83.4658
897.265	86.5384
897.316	89.6062
897.366	89.5852
897.416	80.3025
897.466	80.2912
897.517	83.3716
897.567	98.8083
897.617	77.2001
897.667	95.7506
897.718	101.971
897.768	83.4815
897.818	92.8249
897.868	80.5086
897.919	80.5609
897.969	68.1971
898.019	80.6104
898.069	99.2019
898.12	86.7714
898.17	71.2404
898.22	80.4878
898.27	86.6365
898.321	68.0497
898.371	77.3247
898.421	86.6256
898.471	86.6749
898.522	68.1579
898.572	65.1231
898.622	86.9157
898.672	80.7757
898.723	90.1513
898.773	77.7439
898.823	87.0839
898.873	96.4131
898.924	83.9692
898.974	77.7507
899.024	99.5325
899.074	74.6641
899.125	82.4588
899.175	80.9138
899.225	84.0247
899.275	71.5633
899.326	74.6503
899.376	77.7309
899.426	99.463
899.476	83.9083
899.527	74.5909
899.577	80.8335
899.627	83.9887
899.677	84.0466
899.728	71.6478
899.778	81.0493
899.828	90.4546
899.878	74.8935
899.928	74.9182
899.979	90.5458
