#Acq. time (s)=	5
#Accumulations=	2
#Range (nm)=	520...900
#Windows=	8
#Auto scanning=	Off
#Autofocus=	Off
#AutoExposure=	Off
#Spike filter=	Multiple accum.
#Delay time (s)=	0
#Binning=	1
#Readout mode=	Signal
#DeNoise=	Off
#ICS correction=	On
#Dark correction=	Off
#Inst. Process=	Off
#Detector temperature (°C)=	-59.98
#Instrument=	LabRAM HR Evol
#Detector=	Syncerity OE
#Objective=	x50_VIS
#Grating=	600 (500nm)
#ND Filter=	10%
#Laser=	514nm_Edge
#Hole=	199.981
#Range=	Auto
#StageXY=	Marzhauser
#StageZ=	Marzhauser
#X (µm)=	-6155.8
#Y (µm)=	-10599.5
#Z (µm)=	-17
#Full time(mm:ss)=	2:04
#Project=	
#Sample=	
#Site=	
#Title=	LT_191023_M4_borda
#Remark=	
#Date=	27.10.2023 13:39
#Acquired=	27.10.2023 13:39:05
520.044	27.0257
520.097	35.9548
520.149	28.7015
520.201	25.0618
520.254	30.3731
520.306	32.1035
520.359	28.4939
520.411	32.0183
520.464	17.7742
520.516	28.4286
520.569	23.0996
520.621	28.4425
520.674	26.6844
520.726	26.7098
520.778	30.3035
520.831	23.1986
520.883	33.9396
520.936	28.6027
520.988	28.6181
521.041	33.9937
521.093	32.2075
521.146	32.206
521.198	28.6239
521.25	23.2526
521.303	32.187
521.355	32.1734
521.408	30.3667
521.46	17.8471
521.513	30.3071
521.565	30.2706
521.617	23.1205
521.67	33.7556
521.722	33.7267
521.775	23.0613
521.827	28.3697
521.88	24.8145
521.932	33.6677
521.984	30.1189
522.037	30.1195
522.089	30.1279
522.142	31.9189
522.194	30.1722
522.247	28.4284
522.299	32.0196
522.352	28.4942
522.404	26.7402
522.456	30.3315
522.509	30.3538
522.561	33.9474
522.614	30.3932
522.666	28.6227
522.719	32.2179
522.771	30.4405
522.823	26.8649
522.876	23.2818
522.928	35.805
522.981	32.2011
523.033	33.952
523.086	35.6852
523.138	32.0582
523.19	31.9941
523.243	31.9307
523.295	26.562
523.348	33.5979
523.4	31.7973
523.453	26.479
523.505	31.7568
523.557	37.0272
523.61	31.714
523.662	29.9261
523.715	29.9005
523.767	31.6387
523.82	35.145
523.872	26.3649
523.924	29.9015
523.977	35.2161
524.029	22.9198
524.082	31.7776
524.134	35.3542
524.186	28.318
524.239	31.8949
524.291	28.3835
524.344	26.6402
524.396	26.6711
524.449	26.7015
524.501	30.294
524.553	37.4578
524.606	33.9175
524.658	32.1516
524.711	28.5896
524.763	30.3791
524.815	25.013
524.868	35.7151
524.92	28.5508
524.973	28.5247
525.025	30.2776
525.078	17.7936
525.13	30.2246
525.182	31.9831
525.235	24.8661
525.287	21.3099
525.34	37.291
525.392	28.4135
525.444	26.6391
525.497	26.6391
525.549	39.0676
525.602	23.0822
525.654	33.7309
525.706	21.303
525.759	30.1846
525.811	31.9757
525.864	32.0028
525.916	26.7008
525.969	33.8704
526.021	23.212
526.073	32.1927
526.126	25.0784
526.178	26.909
526.231	21.556
526.283	34.1725
526.335	27.0101
526.388	28.8429
526.44	34.2858
526.493	28.8978
526.545	34.3405
526.597	30.7415
526.65	28.9421
526.702	28.9451
526.755	34.369
526.807	28.9341
526.859	30.7284
526.912	25.2906
526.964	30.6892
527.017	30.6681
527.069	30.6493
527.121	27.0303
527.174	34.2266
527.226	25.2141
527.279	28.8115
527.331	25.2058
527.383	32.3998
527.436	30.5897
527.488	35.973
527.54	26.9672
527.593	41.3304
527.645	32.3315
527.698	26.9332
527.75	30.5163
527.802	32.3073
527.855	26.9239
527.907	37.7024
527.96	28.7385
528.012	34.1488
528.064	32.3771
528.117	27.0051
528.169	34.2392
528.222	34.2739
528.274	34.3115
528.326	28.929
528.379	28.9684
528.431	29.0117
528.484	29.0568
528.536	23.6445
528.588	27.3198
528.641	30.9987
528.693	32.8537
528.745	27.4
528.798	32.9037
528.85	29.2681
528.903	32.9487
528.955	32.9679
529.007	34.8127
529.06	29.3183
529.112	38.4698
529.164	27.4623
529.217	43.9048
529.269	34.7277
529.322	36.5247
529.374	27.3721
529.426	34.6447
529.479	25.5062
529.531	32.7613
529.584	27.2698
529.636	30.8676
529.688	29.0173
529.741	25.3644
529.793	32.5868
529.845	36.1899
529.898	37.9884
529.95	30.7462
530.003	28.9313
530.055	37.9617
530.107	30.7204
530.16	30.71
530.212	27.0901
530.264	34.3107
530.317	36.1207
530.369	28.9069
530.422	30.7318
530.474	32.5659
530.526	28.9761
530.579	34.4482
530.631	32.6763
530.683	30.9037
530.736	38.2328
530.788	29.1774
530.841	36.5345
530.893	32.938
530.945	34.8247
530.998	27.5321
531.05	36.7506
531.102	33.1024
531.155	25.7612
531.207	33.1372
531.259	31.3122
531.312	33.1759
531.364	33.2039
531.417	36.9298
531.469	29.5745
531.521	33.3034
531.574	25.9234
531.626	40.7606
531.678	25.9492
531.731	38.9359
531.783	35.2388
531.835	37.1085
531.888	35.2718
531.94	35.2944
531.992	33.4599
532.045	33.482
532.097	27.917
532.15	35.3763
532.202	31.6621
532.254	35.3964
532.307	33.544
532.359	37.2882
532.411	27.9843
532.464	35.4767
532.516	26.1664
532.568	43.0315
532.621	33.7089
532.673	33.7351
532.726	37.5036
532.778	35.6382
532.83	41.2673
532.883	37.512
532.935	30.0049
532.987	30.0005
533.04	37.4971
533.092	39.3698
533.144	35.6184
533.197	24.3681
533.249	35.6092
533.301	33.7285
533.354	33.7226
533.406	33.7193
533.458	31.8462
533.511	31.8489
533.563	43.0931
533.615	31.8502
533.668	37.4617
533.72	29.9552
533.773	33.6776
533.825	29.9139
533.877	41.1033
533.93	29.8758
533.982	39.1922
534.034	31.7107
534.087	39.1465
534.139	37.2492
534.191	35.3463
534.244	39.0158
534.296	37.1089
534.348	25.9466
534.401	35.1843
534.453	31.4666
534.505	37.0156
534.558	42.5734
534.61	38.8807
534.662	38.8907
534.715	38.8998
534.767	37.0562
534.819	40.774
534.872	38.9377
534.924	33.3959
534.976	42.7065
535.029	29.7357
535.081	40.9233
535.133	37.2318
535.186	35.3899
535.238	46.5804
535.29	42.8588
535.343	29.8153
535.395	42.8614
535.447	41.0055
535.5	46.615
535.552	39.1789
535.604	37.3389
535.657	33.6292
535.709	31.7829
535.761	37.4161
535.814	41.1849
535.866	39.3414
535.918	37.4997
535.971	31.9048
536.023	39.449
536.075	43.2398
536.128	39.4974
536.18	41.3772
536.232	31.9568
536.285	41.318
536.337	37.52
536.389	37.4797
536.442	39.3213
536.494	41.1749
536.546	41.1707
536.599	37.4325
536.651	37.4377
536.703	41.1794
536.755	37.421
536.808	41.1306
536.86	39.2169
536.912	44.7611
536.965	37.2537
537.017	42.7967
537.069	33.4634
537.122	37.1501
537.174	38.9715
537.226	35.2226
537.279	48.1414
537.331	36.9847
537.383	42.4801
537.436	40.5899
537.488	33.1829
537.54	40.5348
537.593	38.6792
537.645	29.4625
537.697	36.8175
537.75	31.2815
537.802	36.7793
537.854	36.7512
537.906	40.3926
537.959	36.6916
538.011	33.0017
538.063	38.4873
538.116	40.3159
538.168	32.9912
538.22	36.6705
538.273	34.8542
538.325	44.0493
538.377	36.7249
538.43	40.412
538.482	42.2591
538.534	42.2651
538.586	29.4045
538.639	38.5972
538.691	38.603
538.743	45.9667
538.796	44.1421
538.848	36.7987
538.9	38.6531
538.953	38.6649
539.005	38.6719
539.057	31.306
539.109	38.6652
539.162	42.3332
539.214	45.9936
539.266	44.1323
539.319	34.9222
539.371	40.421
539.423	40.4098
539.476	42.2388
539.528	33.0524
539.58	36.7213
539.633	44.061
539.685	40.3839
539.737	44.0471
539.789	31.1928
539.842	38.5213
539.894	45.8436
539.946	42.1608
539.999	43.9771
540.051	42.1288
540.103	47.6067
540.155	45.7608
540.208	34.769
540.26	36.5927
540.312	45.7394
540.365	36.5971
540.417	43.9326
540.469	38.4632
540.521	45.8226
540.574	42.189
540.626	45.8883
540.678	42.2372
540.731	34.8996
540.783	45.9218
540.835	42.2455
540.888	47.7554
540.94	44.0889
540.992	42.2674
541.044	49.6454
541.097	40.4776
541.149	49.7082
541.201	40.5254
541.254	46.0728
541.306	46.0909
541.358	44.2629
541.41	40.5875
541.463	42.4438
541.515	38.7598
541.567	46.1454
541.62	47.9896
541.672	44.296
541.724	55.3724
541.776	51.6923
541.829	51.7143
541.881	42.5041
541.933	57.3232
541.985	49.9513
542.038	51.8141
542.09	46.2593
542.142	55.4889
542.195	49.9061
542.247	55.4027
542.299	59.0387
542.351	58.9808
542.404	53.4017
542.456	57.0361
542.508	62.5089
542.56	53.2823
542.613	55.0904
542.665	51.3955
542.717	55.0469
542.77	62.3664
542.822	60.5126
542.874	58.6577
542.926	62.2977
542.979	58.6049
543.031	54.9132
543.083	56.7133
543.135	62.1713
543.188	54.8365
543.24	51.1707
543.292	49.3452
543.344	56.6725
543.397	54.8737
543.449	58.5727
543.501	47.6254
543.554	60.4863
543.606	49.5093
543.658	56.8509
543.71	44.0063
543.763	53.1546
543.815	43.9708
543.867	60.4378
543.919	45.7776
543.972	54.9344
544.024	54.946
544.076	47.6356
544.128	51.3192
544.181	56.8389
544.233	49.5225
544.285	40.3657
544.337	44.0509
544.39	49.5753
544.442	51.4296
544.494	51.4455
544.547	53.2958
544.599	56.9811
544.651	47.7959
544.703	53.315
544.755	56.9952
544.808	45.9653
544.86	55.1573
544.912	49.6368
544.965	53.3042
545.017	56.9674
545.069	47.7683
545.121	49.5971
545.174	51.4287
545.226	49.5881
545.278	53.253
545.33	45.8914
545.383	55.0345
545.435	49.4854
545.487	53.0924
545.539	51.2049
545.591	60.2929
545.644	47.4741
545.696	49.2851
545.748	52.9308
545.8	49.2772
545.853	52.9159
545.905	56.5381
545.957	49.206
546.009	56.4434
546.062	54.5698
546.114	49.0696
546.166	50.8499
546.218	56.2651
546.271	59.8649
546.323	52.5826
546.375	56.1796
546.427	61.583
546.48	52.5002
546.532	56.0986
546.584	57.8947
546.636	48.8462
546.689	63.3266
546.741	57.9126
546.793	65.1726
546.845	56.1412
546.898	65.2209
546.95	57.9956
547.002	70.7052
547.054	61.6556
547.106	58.0362
547.159	63.4762
547.211	61.6535
547.263	61.639
547.315	63.4356
547.368	67.0468
547.42	63.4169
547.472	57.9846
547.524	57.9966
547.577	52.5764
547.629	58.0368
547.681	59.8709
547.733	58.0708
547.785	65.3384
547.838	52.6362
547.89	56.2666
547.942	47.1921
547.994	56.2716
548.047	54.4646
548.099	63.5556
548.151	58.1212
548.203	59.948
548.255	61.7685
548.308	63.5798
548.36	50.8518
548.412	63.5419
548.464	54.4409
548.517	65.2999
548.569	50.7681
548.621	61.627
548.673	57.9896
548.725	61.6085
548.778	59.7979
548.83	54.3672
548.882	52.5608
548.934	56.1875
548.987	54.3673
549.039	52.5343
549.091	63.3607
549.143	56.0681
549.195	61.4297
549.248	64.9764
549.3	63.1168
549.352	66.6824
549.404	54.0469
549.456	57.6376
549.509	70.2308
549.561	59.405
549.613	71.9646
549.665	59.3244
549.718	62.8644
549.77	66.4012
549.822	60.9776
549.874	59.16
549.926	71.6957
549.979	62.7296
550.031	53.7639
550.083	62.7106
550.135	66.2648
550.187	68.0096
550.24	69.7387
550.292	64.312
550.344	78.5293
550.396	64.2001
550.448	58.8183
550.501	76.6242
550.553	64.1547
550.605	65.9549
550.657	67.7602
550.709	73.1267
550.762	71.3433
550.814	71.3238
550.866	71.2881
550.918	80.1504
550.97	83.6642
551.023	76.509
551.075	71.1484
551.127	80.022
551.179	76.444
551.231	88.8534
551.284	87.0311
551.336	94.0812
551.388	86.9357
551.44	90.4539
551.492	83.3522
551.545	90.4583
551.597	108.223
551.649	104.7
551.701	113.585
551.753	117.126
551.806	133.068
551.858	141.899
551.91	150.733
551.962	166.675
552.014	195.051
552.067	209.264
552.119	253.642
552.171	354.8
552.223	525.175
552.275	1077.13
552.327	2603.83
552.38	5245.09
552.432	9386.9
552.484	13969.2
552.536	14670.1
552.588	9375.39
552.641	4038.63
552.693	1369.61
552.745	647.138
552.797	424.637
552.849	310.724
552.901	223.598
552.954	186.26
553.006	157.847
553.058	156.068
553.11	138.345
553.162	122.404
553.215	108.244
553.267	104.74
553.319	97.6905
553.371	85.3078
553.423	94.2483
553.475	88.954
553.528	92.5339
553.58	88.9706
553.632	88.9407
553.684	90.6694
553.736	88.8346
553.788	72.8024
553.841	92.3001
553.893	81.6419
553.945	83.4305
553.997	83.4597
554.049	87.0468
554.102	79.969
554.154	87.0962
554.206	63.9935
554.258	88.8761
554.31	74.6481
554.362	72.8611
554.414	72.8493
554.467	76.3865
554.519	69.2604
554.571	72.7853
554.623	62.1086
554.675	74.5022
554.727	62.0667
554.78	74.4648
554.832	76.226
554.884	81.5292
554.936	81.5055
554.988	79.6989
555.04	63.723
555.093	74.2967
555.145	76.0187
555.197	70.6759
555.249	83.0035
555.301	81.1984
555.353	77.6252
555.406	77.5715
555.458	79.2663
555.51	75.6674
555.562	82.6171
555.614	80.7739
555.666	73.6804
555.719	68.3654
555.771	78.8407
555.823	71.8097
555.875	85.8092
555.927	75.2989
555.979	80.5488
556.031	82.2878
556.084	77.0107
556.136	75.2222
556.188	73.4256
556.24	82.1123
556.292	75.0829
556.344	75.0583
556.396	82.0355
556.449	75.0661
556.501	69.8488
556.553	71.6145
556.605	80.3602
556.657	83.8524
556.709	92.5704
556.762	78.5757
556.814	71.5701
556.866	83.7691
556.918	66.3076
556.97	80.2653
557.022	75.0389
557.074	85.5309
557.127	83.8178
557.179	75.1249
557.231	75.1696
557.283	82.2143
557.335	80.5153
557.387	82.3132
557.439	84.1084
557.492	85.9016
557.544	87.695
557.596	84.2274
557.648	79.0043
557.7	84.3197
557.752	75.5834
557.804	77.3915
557.856	82.7223
557.909	88.0582
557.961	81.0626
558.013	81.1101
558.065	82.9225
558.117	82.9744
558.169	86.5623
558.221	81.3157
558.273	81.3608
558.326	84.9277
558.378	90.2393
558.43	81.3681
558.482	90.1626
558.534	88.3373
558.586	81.2281
558.638	75.9134
558.691	88.2809
558.743	77.7157
558.795	84.8196
558.847	86.6178
558.899	90.1637
558.951	86.6119
559.003	81.2723
559.055	98.877
559.108	82.9242
559.16	86.3826
559.212	89.8282
559.264	84.4593
559.316	82.6064
559.368	89.5279
559.42	80.6534
559.472	80.5669
559.525	85.7487
559.577	78.702
559.629	76.9218
559.681	94.37
559.733	87.338
559.785	92.5115
559.837	87.1866
559.889	81.8525
559.941	92.1747
559.994	90.3131
560.046	81.5296
560.098	81.4438
560.15	83.0988
560.202	98.5879
560.254	93.3008
560.306	103.537
560.358	87.8763
560.41	84.2933
560.463	84.1554
560.515	87.4572
560.567	78.7783
560.619	87.2422
560.671	80.3184
560.723	90.4818
560.775	85.2693
560.827	88.5779
560.879	93.5773
560.932	90.075
560.984	93.3884
561.036	79.7507
561.088	98.3702
561.14	93.249
561.192	84.7398
561.244	101.637
561.296	84.6426
561.348	93.0396
561.4	87.9064
561.453	91.2452
561.505	97.9871
561.557	99.688
561.609	94.6484
561.661	96.3737
561.713	101.475
561.765	94.7234
561.817	91.3408
561.869	99.7927
561.921	101.482
561.974	98.1073
562.026	104.892
562.078	87.9939
562.13	93.0876
562.182	91.4027
562.234	96.4792
562.286	101.552
562.338	93.0899
562.39	96.4906
562.442	93.1379
562.494	103.352
562.547	88.1577
562.599	93.3009
562.651	100.141
562.703	100.185
562.755	101.919
562.807	100.253
562.859	93.4865
562.911	103.723
562.963	100.363
563.015	97.0025
563.067	100.45
563.12	114.116
563.172	98.8225
563.224	112.486
563.276	105.689
563.328	103.995
563.38	109.11
563.432	105.692
563.484	105.677
563.536	112.478
563.588	100.532
563.64	98.8117
563.692	103.901
563.744	107.274
563.797	112.331
563.849	102.061
563.901	115.599
563.953	113.836
564.005	101.902
564.057	113.767
564.109	120.554
564.161	105.277
564.213	106.975
564.265	101.865
564.317	110.31
564.369	110.239
564.421	115.233
564.474	115.126
564.526	115.015
564.578	108.144
564.63	101.282
564.682	112.974
564.734	114.522
564.786	112.69
564.838	110.858
564.89	109.036
564.942	120.641
564.994	105.462
565.046	102.038
565.098	115.346
565.15	110.26
565.202	98.4887
565.255	108.398
565.307	93.2779
565.359	111.45
565.411	112.953
565.463	116.114
565.515	110.995
565.567	115.831
565.619	119.02
565.671	107.354
565.723	115.522
565.775	117.089
565.827	110.419
565.879	111.992
565.931	121.787
565.983	113.467
566.035	101.867
566.087	103.413
566.139	124.634
566.192	103.221
566.244	114.595
566.296	101.423
566.348	120.969
566.4	111.085
566.452	120.798
566.504	107.654
566.556	130.38
566.608	107.472
566.66	113.894
566.712	112.189
566.764	121.877
566.816	128.325
566.868	113.679
566.92	120.163
566.972	121.79
567.024	108.813
567.076	116.956
567.128	121.857
567.18	130.009
567.232	121.903
567.285	118.666
567.337	126.803
567.389	125.188
567.441	123.58
567.493	117.106
567.545	123.655
567.597	120.451
567.649	130.271
567.701	123.801
567.753	130.355
567.805	114.088
567.857	128.789
567.909	127.199
567.961	137.039
568.013	119.15
568.065	120.84
568.117	137.211
568.169	137.234
568.221	129.397
568.273	135.513
568.325	132.922
568.377	130.752
568.429	130.556
568.481	126.442
568.533	135.561
568.585	132.279
568.637	138.614
568.69	122.347
568.742	130.585
568.794	141.842
568.846	126.041
568.898	131.858
568.95	133.344
569.002	129.251
569.054	138.489
569.106	137.337
569.158	132.247
569.21	135.219
569.262	138.679
569.314	137.61
569.366	143.184
569.418	141.768
569.47	145.128
569.522	142.54
569.574	140.813
569.626	146.997
569.678	137.854
569.73	144.988
569.782	148.722
569.834	140.812
569.886	143.295
569.938	150.136
569.99	139.65
570.042	143.227
570.094	148.103
570.146	148.285
570.198	138.295
570.25	138.523
570.302	145.805
570.354	149.753
570.406	154.357
570.458	154.833
570.51	148.007
570.562	155.512
570.614	145.954
570.666	138.251
570.718	144.395
570.77	157.747
570.822	163.037
570.874	158.2
570.926	154.291
570.978	163.471
571.03	161.452
571.082	155.51
571.134	156.556
571.186	166.198
571.238	158.224
571.29	160.472
571.342	159.834
571.394	168.189
571.446	163.658
571.498	160.151
571.55	158.013
571.602	163.187
571.654	167.939
571.706	168.819
571.758	177.13
571.81	175.078
571.862	175.633
571.914	170.389
571.966	182.757
572.018	185.794
572.07	177.949
572.122	175.783
572.174	186.515
572.226	197.924
572.278	193.44
572.33	186.503
572.382	187.199
572.434	187.298
572.486	194.927
572.538	190.066
572.59	195.302
572.642	207.055
572.694	201.936
572.746	201.115
572.798	205.05
572.85	208.303
572.902	209.43
572.954	211.632
573.006	212.322
573.058	215.067
573.11	226.936
573.162	224.264
573.214	234.242
573.266	237.1
573.312	218.007
573.364	222.641
573.416	238.106
573.469	225.747
573.521	222.67
573.573	252.069
573.625	245.894
573.677	238.15
573.73	261.297
573.782	262.755
573.834	258.006
573.886	270.249
573.938	273.259
573.991	282.515
574.043	268.7
574.095	264.217
574.147	273.678
574.199	292.414
574.252	294.064
574.304	295.593
574.356	296.995
574.408	299.838
574.46	311.899
574.513	319.339
574.565	328.369
574.617	323.572
574.669	317.265
574.721	317.124
574.774	323.125
574.826	353.705
574.878	341.204
574.93	339.471
574.982	356.173
575.035	359.062
575.087	348.152
575.139	358.714
575.191	360.068
575.243	366.018
575.296	381.156
575.348	371.814
575.4	373.196
575.452	379.155
575.504	380.496
575.556	371.108
575.609	386.122
575.661	370.614
575.713	367.357
575.765	385.502
575.817	382.382
575.87	367.126
575.922	383.862
575.974	377.707
576.026	369.961
576.078	377.37
576.131	375.604
576.183	373.837
576.235	376.663
576.287	370.431
576.339	370.327
576.391	373.295
576.444	355.035
576.496	344.361
576.548	330.641
576.6	336.616
576.652	353.175
576.705	319.697
576.757	342.265
576.809	348.149
576.861	331.331
576.913	335.706
576.965	306.838
577.018	300.675
577.07	306.62
577.122	312.578
577.174	298.922
577.226	307.926
577.279	316.936
577.331	301.808
577.383	277.635
577.435	292.696
577.487	295.68
577.539	294.127
577.592	289.54
577.644	284.933
577.696	290.86
577.748	278.69
577.8	274.056
577.852	273.946
577.905	279.868
577.957	273.764
578.009	270.68
578.061	267.597
578.113	278.036
578.165	259.912
578.218	264.322
578.27	256.714
578.322	265.62
578.374	252.016
578.426	266.908
578.478	265.287
578.531	254.658
578.583	260.484
578.635	251.318
578.687	245.137
578.739	279.279
578.791	253.67
578.844	243.014
578.896	253.233
578.948	255.994
579	254.286
579.052	252.576
579.104	237.501
579.157	241.719
579.209	237.024
579.261	251.554
579.313	245.339
579.365	246.503
579.417	247.658
579.47	257.65
579.522	252.937
579.574	233.579
579.626	240.717
579.678	236.149
579.73	256.537
579.782	240.288
579.835	257.729
579.887	256.102
579.939	252.982
579.991	245.456
580.043	252.522
580.095	256.657
580.148	241.859
580.2	234.391
580.252	253.15
580.304	237.013
580.356	248.517
580.408	238.219
580.46	235.184
580.513	243.753
580.565	250.866
580.617	246.391
580.669	233.252
580.721	246.216
580.773	249.057
580.826	251.907
580.878	244.627
580.93	259.057
580.982	248.884
581.034	245.95
581.086	254.594
581.138	251.668
581.191	237.176
581.243	251.61
581.295	263.157
581.347	255.924
581.399	248.713
581.451	247.305
581.503	269.051
581.556	257.52
581.608	253.192
581.66	251.724
581.712	247.337
581.764	261.748
581.816	260.271
581.868	258.838
581.92	263.233
581.973	271.995
582.025	260.493
582.077	263.423
582.129	260.509
582.181	258.993
582.233	261.788
582.285	260.247
582.338	267.408
582.39	267.383
582.442	267.399
582.494	264.549
582.546	268.928
582.598	261.722
582.65	266.053
582.703	274.686
582.755	281.843
582.807	273.087
582.859	278.784
582.911	274.385
582.963	280.119
583.015	277.21
583.067	262.76
583.12	272.846
583.172	278.578
583.224	269.847
583.276	271.193
583.328	271.082
583.38	289.705
583.432	269.418
583.484	282.268
583.537	272.055
583.589	286.267
583.641	270.216
583.693	287.166
583.745	291.135
583.797	296.525
583.849	276.183
583.901	288.823
583.953	284.365
584.006	287.102
584.058	275.574
584.11	295.432
584.162	306.653
584.214	285.008
584.266	306.047
584.318	285.762
584.37	289.653
584.423	311.985
584.475	279.058
584.527	291.528
584.579	289.878
584.631	293.914
584.683	285.253
584.735	302.007
584.787	328.602
584.839	300.179
584.892	292.898
584.944	284.201
584.996	306.423
585.048	320.163
585.1	305.818
585.152	301.328
585.204	313.684
585.256	296.677
585.308	297.913
585.361	301.974
585.413	314.429
585.465	311.503
585.517	302.976
585.569	301.413
585.621	309.602
585.673	312.213
585.725	307.887
585.777	317.54
585.83	311.934
585.882	307.78
585.934	316.208
585.986	299.586
586.038	315.015
586.09	312.31
586.142	319.331
586.194	333.288
586.246	327.693
586.298	322.091
586.351	320.693
586.403	323.523
586.455	301.303
586.507	336.33
586.559	335.113
586.611	312.927
586.663	329.807
586.715	338.244
586.767	314.473
586.819	324.208
586.872	314.378
586.924	329.73
586.976	326.974
587.028	322.874
587.08	309.022
587.132	317.55
587.184	324.669
587.236	331.755
587.288	347.2
587.34	341.609
587.392	338.796
587.445	337.379
587.497	334.568
587.549	342.962
587.601	333.158
587.653	340.139
587.705	348.499
587.757	327.448
587.809	320.382
587.861	334.299
587.913	349.623
587.965	346.786
588.018	334.184
588.07	332.783
588.122	342.563
588.174	350.921
588.226	339.666
588.278	338.148
588.33	353.336
588.382	348.922
588.434	337.513
588.486	321.934
588.538	345.389
588.59	345.183
588.642	339.444
588.695	344.859
588.747	355.838
588.799	347.349
588.851	344.404
588.903	351.156
588.955	341.232
589.007	364.568
589.059	354.596
589.111	358.444
589.163	359.474
589.215	354.935
589.267	357.279
589.319	336.195
589.372	367.494
589.424	353.413
589.476	358.661
589.528	352.975
589.58	369.293
589.632	363.641
589.684	341.505
589.736	341.279
589.788	357.44
589.84	354.38
589.892	351.315
589.944	345.54
589.996	368.472
590.048	355.967
590.101	357.158
590.153	351.566
590.205	352.795
590.257	345.833
590.309	341.566
590.361	345.435
590.413	357.445
590.465	350.455
590.517	321.812
590.569	344.844
590.621	338.071
590.673	334.048
590.725	330.023
590.777	340.906
590.829	361.235
590.881	327.177
590.933	341.93
590.986	340.345
591.038	323.837
591.09	342.571
591.142	339.672
591.194	335.486
591.246	327.307
591.298	334.051
591.35	319.175
591.402	338.098
591.454	334.001
591.506	337.982
591.558	339.235
591.61	318.865
591.662	312.028
591.714	310.617
591.766	322.726
591.818	313.238
591.87	324.001
591.923	340.155
591.975	330.662
592.027	326.576
592.079	321.155
592.131	321.144
592.183	330.581
592.235	334.611
592.287	314.337
592.339	316.981
592.391	331.751
592.443	328.992
592.495	312.773
592.547	315.457
592.599	314.125
592.651	306.067
592.703	322.283
592.755	316.913
592.807	318.267
592.859	312.857
592.911	314.172
592.963	320.865
593.015	334.282
593.068	342.287
593.12	326.022
593.172	315.134
593.224	315.008
593.276	309.487
593.328	310.69
593.38	319.957
593.432	325.187
593.484	326.387
593.536	314.168
593.588	324.787
593.64	317.977
593.692	329.977
593.744	312.496
593.796	321.865
593.848	320.517
593.9	321.845
593.952	324.492
594.004	304.315
594.056	324.321
594.108	321.513
594.16	320.035
594.212	313.207
594.264	314.425
594.316	302.283
594.368	318.238
594.42	334.188
594.472	327.408
594.524	323.3
594.576	317.859
594.628	317.763
594.68	312.332
594.732	324.246
594.784	321.461
594.837	321.313
594.889	326.451
594.941	318.224
594.993	316.636
595.045	329.678
595.097	324.141
595.149	312.039
595.201	326.576
595.253	330.565
595.305	305.396
595.357	333.356
595.409	338.726
595.461	333.424
595.513	338.695
595.565	322.672
595.617	325.221
595.669	323.79
595.721	342.285
595.773	331.633
595.825	347.552
595.877	330.317
595.929	326.319
595.981	326.243
596.033	336.702
596.085	345.758
596.137	324.305
596.189	325.347
596.241	338.281
596.293	348.571
596.345	348.318
596.397	334.911
596.449	346.59
596.501	368.833
596.553	343.697
596.605	352.85
596.657	352.827
596.709	339.665
596.761	358.108
596.813	331.773
596.865	329.114
596.917	329.068
596.969	344.807
597.021	339.495
597.073	322.359
597.125	340.763
597.177	344.692
597.229	322.29
597.281	355.1
597.333	341.838
597.385	335.135
597.437	344.208
597.489	342.801
597.541	338.82
597.593	334.891
597.645	330.998
597.697	341.561
597.749	335.022
597.801	331.063
597.853	340.186
597.905	329.569
597.957	345.199
598.009	329.353
598.061	345.054
598.113	343.766
598.165	338.599
598.217	341.338
598.269	333.566
598.321	329.693
598.373	338.902
598.425	328.364
598.477	328.315
598.529	337.469
598.581	326.958
598.633	345.376
598.685	363.822
598.737	352.06
598.789	340.271
598.841	329.764
598.893	329.754
598.945	352.094
598.997	341.64
599.049	332.567
599.101	343.282
599.153	336.946
599.205	346.412
599.257	343.995
599.309	337.558
599.361	358.746
599.413	337.675
599.465	336.355
599.517	364.047
599.569	336.356
599.62	356.18
599.672	337.781
599.724	341.841
599.776	348.571
599.828	352.678
599.88	344.893
599.932	342.369
599.984	354.351
600.036	349.101
600.088	349.098
600.14	334.527
600.192	333.182
600.244	341.117
600.296	333.227
600.348	346.536
600.4	350.617
600.452	341.467
600.504	356.114
600.556	344.239
600.608	346.873
600.66	338.87
600.712	349.369
600.764	328.105
600.816	345.226
600.868	361.053
600.92	339.89
600.972	347.858
601.024	351.88
601.076	354.581
601.128	344.035
601.18	351.995
601.232	321.564
601.284	344.051
601.335	365.196
601.387	338.684
601.439	338.601
601.491	341.118
601.543	343.583
601.595	360.527
601.647	337.823
601.699	348.101
601.751	349.137
601.803	350.177
601.855	338.074
601.907	349.667
601.959	340.246
602.011	342.682
602.063	350.399
602.115	346.336
602.167	340.984
602.219	340.873
602.271	351.206
602.323	353.601
602.375	351.983
602.427	347.681
602.478	364.235
602.53	366.408
602.582	349.083
602.634	346.177
602.686	353.755
602.738	365.286
602.79	352.153
602.842	345.53
602.894	350.578
602.946	347.801
602.998	342.4
603.05	344.757
603.102	341.919
603.154	346.855
603.206	345.335
603.258	337.374
603.31	344.945
603.362	351.227
603.413	349.76
603.465	352.158
603.517	344.234
603.569	349.205
603.621	342.592
603.673	347.6
603.725	356.504
603.777	346.146
603.829	355.131
603.881	337.12
603.933	344.849
603.985	362.855
604.037	346.084
604.089	352.429
604.141	349.738
604.193	353.465
604.244	345.647
604.296	366.142
604.348	354.578
604.4	358.483
604.452	357.281
604.504	349.655
604.556	347.157
604.608	347.215
604.66	353.701
604.712	356.344
604.764	351.297
604.816	360.435
604.868	363.156
604.92	359.43
604.971	346.653
605.023	359.618
605.075	354.518
605.127	354.575
605.179	359.817
605.231	357.361
605.283	357.524
605.335	353.832
605.387	359.17
605.439	355.429
605.491	360.683
605.543	352.962
605.594	363.317
605.646	349.116
605.698	362.111
605.75	357.063
605.802	350.775
605.854	348.402
605.906	349.912
605.958	361.756
606.01	354.078
606.062	347.609
606.114	376.079
606.166	350.033
606.217	353.795
606.269	347.206
606.321	335.48
606.373	380.788
606.425	363.965
606.477	348.443
606.529	357.517
606.581	360.082
606.633	372.971
606.685	358.631
606.737	358.517
606.789	357.105
606.84	346.65
606.892	350.445
606.944	354.26
606.996	358.092
607.048	355.469
607.1	368.355
607.152	367.007
607.204	363.047
607.256	356.47
607.308	342.112
607.359	344.507
607.411	364.927
607.463	356.964
607.515	349.023
607.567	338.545
607.619	360.275
607.671	364.009
607.723	351.039
607.775	354.787
607.827	364.947
607.878	351.962
607.93	363.372
607.982	370.91
608.034	356.623
608.086	350.028
608.138	375.454
608.19	362.408
608.242	350.642
608.294	361.912
608.345	362.967
608.397	351.29
608.449	362.661
608.501	358.756
608.553	354.883
608.605	362.503
608.657	350.954
608.709	367.441
608.761	355.817
608.812	360.743
608.864	355.46
608.916	373.114
608.968	371.687
609.02	375.39
609.072	362.591
609.124	367.638
609.176	375.251
609.228	389.236
609.279	359.979
609.331	370.153
609.383	376.508
609.435	372.683
609.487	361.225
609.539	366.302
609.591	375.2
609.643	356.123
609.694	354.861
609.746	372.683
609.798	366.34
609.85	357.446
609.902	366.343
609.954	376.486
610.006	376.419
610.058	371.232
610.109	366.015
610.161	372.21
610.213	369.494
610.265	365.505
610.317	376.747
610.369	376.582
610.421	380.243
610.473	363.659
610.524	371.182
610.576	359.729
610.628	385.027
610.68	364.736
610.732	397.632
610.784	374.803
610.836	386.16
610.887	368.401
610.939	363.317
610.991	386.1
611.043	373.453
611.095	374.733
611.147	386.128
611.199	389.897
611.25	368.311
611.302	369.468
611.354	369.321
611.406	375.467
611.458	385.38
611.51	375.071
611.562	379.928
611.614	374.701
611.665	393.456
611.717	385.737
611.769	371.724
611.821	399.269
611.873	373.888
611.925	363.611
611.977	383.519
612.028	372
612.08	366.804
612.132	393.04
612.184	389.154
612.236	390.285
612.288	376.32
612.339	382.36
612.391	375.788
612.443	395.45
612.495	397.552
612.547	389.69
612.599	379.421
612.651	394.209
612.702	376.652
612.754	389.087
612.806	401.531
612.858	391.495
612.91	378.905
612.962	393.659
613.013	387.171
613.065	373.194
613.117	387.827
613.169	399.975
613.221	391.035
613.273	390.816
613.325	394.326
613.376	395.342
613.428	377.754
613.48	389.863
613.532	405.642
613.584	406.557
613.635	374.138
613.687	387.438
613.739	388.407
613.791	381.993
613.843	387.901
613.895	385.179
613.947	392.289
613.998	382.184
614.05	385.618
614.102	411.176
614.154	402.407
614.206	391.246
614.258	405.885
614.309	389.899
614.361	410.71
614.413	405.775
614.465	392.253
614.517	415.494
614.568	395.823
614.62	406.774
614.672	410.349
614.724	410.224
614.776	403.956
614.828	417.258
614.879	404.864
614.931	397.388
614.983	405.836
615.035	405.756
615.087	411.807
615.139	421.527
615.19	414.13
615.242	415.261
615.294	399.274
615.346	401.592
615.398	417.329
615.449	389.147
615.501	397.573
615.553	403.554
615.605	411.956
615.657	419.115
615.709	414.071
615.76	426.066
615.812	413.723
615.864	419.652
615.916	408.572
615.968	416.962
616.019	421.603
616.071	397.161
616.123	410.108
616.175	423.545
616.227	433.093
616.278	422.992
616.33	416.864
616.382	413.438
616.434	430.002
616.486	401.189
616.537	417.949
616.589	426.46
616.641	428.81
616.693	396.767
616.745	428.733
616.797	406.855
616.848	421.743
616.9	419.422
616.952	415.674
617.004	415.099
617.056	416.703
617.107	413.837
617.159	419.948
617.211	420.341
617.263	426.167
617.315	424.243
617.366	421.076
617.418	420.215
617.47	419.147
617.522	406.587
617.573	416.484
617.625	417.253
617.677	415.625
617.729	407.64
617.781	417.56
617.832	422.552
617.884	418.678
617.936	426.287
617.988	421.453
618.04	423.695
618.091	407.766
618.143	434.894
618.195	430.115
618.247	425.236
618.299	414.759
618.35	422.497
618.402	425.235
618.454	420.236
618.506	426.873
618.557	425.333
618.609	428.874
618.661	421.759
618.713	424.547
618.765	428.028
618.816	430.831
618.868	424.991
618.92	426.836
618.972	440.141
619.023	425.643
619.075	424.981
619.127	428.715
619.179	420.721
619.231	425.538
619.282	420.313
619.334	424.952
619.386	435.396
619.438	419.41
619.49	422.153
619.541	421.682
619.593	436.112
619.645	432.859
619.697	429.979
619.748	425.322
619.8	420.063
619.852	416.857
619.904	431.023
619.955	442.86
620.007	440.771
620.059	438.055
620.111	435.171
620.162	431.448
620.214	438.661
620.266	443.49
620.318	434.851
620.37	429.256
620.421	426.954
620.473	426.319
620.525	432.656
620.577	433.373
620.628	442.798
620.68	437.448
620.732	434.608
620.784	435.491
620.835	441.493
620.887	434.358
620.939	423.743
620.991	430.138
621.042	441.469
621.094	420.504
621.146	423.154
621.198	438.256
621.249	437.428
621.269	435.089
621.321	437.169
621.373	439.203
621.425	427.148
621.477	420.995
621.529	430.123
621.581	426.398
621.633	419.207
621.685	435.475
621.737	437.733
621.789	425.989
621.841	437.688
621.893	411.966
621.945	444.781
621.997	450.687
622.049	439.024
622.101	424.993
622.153	437.847
622.205	458.835
622.257	446.981
622.309	430.394
622.361	425.464
622.413	457.893
622.465	443.59
622.517	430.508
622.569	429.136
622.621	447.614
622.673	422.981
622.725	453.11
622.776	424.989
622.828	437.613
622.88	424.63
622.932	424.46
622.984	442.913
623.036	433.491
623.088	439.2
623.14	433.297
623.192	445.963
623.244	442.335
623.296	444.471
623.348	436.128
623.4	434.731
623.452	429.862
623.504	430.81
623.556	429.475
623.608	452.473
623.66	438.45
623.712	432.524
623.764	440.442
623.816	427.509
623.868	439.947
623.92	445.406
623.972	447.377
624.024	452.801
624.076	431.755
624.128	439.533
624.18	443.89
624.232	442.539
624.284	444.68
624.336	439.965
624.388	450.207
624.44	450.114
624.492	425.892
624.544	438.365
624.596	428.977
624.648	437.886
624.699	432.997
624.751	429.24
624.803	441.508
624.855	451.495
624.907	436.367
624.959	449.825
625.011	435.901
625.063	451.653
625.115	451.435
625.167	450.085
625.219	444.194
625.271	445.161
625.323	435.91
625.375	453.995
625.427	452.746
625.479	445.811
625.531	451.373
625.583	446.679
625.635	463.552
625.687	441.78
625.739	444.995
625.791	457.288
625.843	452.569
625.895	438.796
625.946	448.849
625.998	463.439
626.05	448.584
626.102	433.757
626.154	461.99
626.206	463.073
626.258	448.332
626.31	452.856
626.362	439.27
626.414	444.923
626.466	460.746
626.518	464.09
626.57	444.763
626.622	450.295
626.674	444.467
626.726	456.693
626.778	447.418
626.83	451.719
626.882	438.011
626.934	452.614
626.985	443.611
627.037	466.301
627.089	449.512
627.141	447.382
627.193	456.486
627.245	471.148
627.297	456.349
627.349	444.893
627.401	468.426
627.453	443.45
627.505	443.351
627.557	471.495
627.609	472.59
627.661	461.273
627.713	474.736
627.765	471.239
627.817	442.91
627.868	461.901
627.92	474.132
627.972	459.359
628.024	471.633
628.076	460.281
628.128	460.182
628.18	469.067
628.232	473.438
628.284	469.94
628.336	458.602
628.388	470.913
628.44	459.672
628.492	461.958
628.544	462.012
628.596	473.301
628.647	472.2
628.699	465.45
628.751	462.058
628.803	458.665
628.855	478.894
628.907	465.415
628.959	451.947
629.011	469.957
629.063	463.219
629.115	489.068
629.167	460.933
629.219	467.638
629.271	486.699
629.322	488.892
629.374	488.824
629.426	474.13
629.478	471.772
629.53	471.632
629.582	461.364
629.634	483.629
629.686	463.244
629.738	451.84
629.79	476.303
629.842	473.856
629.894	472.529
629.945	488
629.997	479.985
630.049	480.958
630.101	479.737
630.153	483.026
630.205	475.156
630.257	478.466
630.309	468.34
630.361	492.825
630.413	488.215
630.465	492.521
630.517	491.242
630.568	488.87
630.62	493.232
630.672	494.285
630.724	496.485
630.776	476.385
630.828	507.595
630.88	496.38
630.932	494.044
630.984	480.507
631.036	492.558
631.088	485.619
631.14	507.604
631.191	489.507
631.243	483.68
631.295	503.456
631.347	502.157
631.399	476.476
631.451	491.934
631.503	494.092
631.555	490.711
631.607	506.203
631.659	518.356
631.71	507.192
631.762	497.131
631.814	490.386
631.866	511.35
631.918	511.195
631.97	518.753
632.022	500.781
632.074	504.953
632.126	502.494
632.178	513.367
632.229	515.47
632.281	502.185
632.333	500.045
632.385	509.018
632.437	514.681
632.489	514.775
632.541	520.346
632.593	503.715
632.645	509.185
632.696	537.881
632.748	525.635
632.8	521.157
632.852	516.694
632.904	524.4
632.956	514.382
633.008	514.28
633.06	529.609
633.112	518.361
633.164	518.159
633.215	513.562
633.267	518.955
633.319	542.07
633.371	528.804
633.423	524.404
633.475	534.359
633.527	527.729
633.579	526.575
633.63	529.79
633.682	531.866
633.734	521.794
633.786	528.281
633.838	540.3
633.89	540.209
633.942	526.896
633.994	548.838
634.046	527.768
634.097	539.726
634.149	530.746
634.201	535.007
634.253	521.717
634.305	537.131
634.357	568.054
634.409	557.226
634.461	538.72
634.512	553.263
634.564	542.424
634.616	543.652
634.668	537.091
634.72	555.827
634.772	546.928
634.824	561.131
634.876	575.289
634.927	571.797
634.979	569.426
635.031	557.194
635.083	570.358
635.135	561.571
635.187	563.848
635.239	566.141
635.291	588.238
635.342	581.636
635.394	570.556
635.446	588.054
635.498	574.687
635.55	604.256
635.602	576.626
635.654	600.762
635.705	602.931
635.757	602.921
635.809	593.008
635.861	596.275
635.913	609.414
635.965	612.628
636.017	603.741
636.068	614.674
636.12	620.157
636.172	631.203
636.224	612.611
636.276	643.533
636.328	640.324
636.38	648.026
636.431	652.295
636.483	657.523
636.535	639.565
636.587	662.23
636.639	671.746
636.691	664.915
636.743	684.576
636.794	663.801
636.846	684.84
636.898	702.651
636.95	682.013
637.002	694.235
637.054	718.421
637.106	754.551
637.157	740.04
637.209	726.571
637.261	741.626
637.313	751.223
637.365	761.977
637.417	747.585
637.469	760.653
637.52	786.895
637.572	771.493
637.624	769.232
637.676	770.255
637.728	778.96
637.78	801.938
637.831	811.815
637.883	795.444
637.935	791.158
637.987	797.847
638.039	793.574
638.091	802.43
638.143	764.104
638.194	805.743
638.246	795.78
638.298	799.983
638.35	795.339
638.402	774.216
638.454	771.695
638.505	800.922
638.557	782.052
638.609	785.133
638.661	765.329
638.713	770.745
638.765	753.258
638.816	746.738
638.868	750.068
638.92	744.629
638.972	753.35
639.024	727.005
639.076	741.024
639.127	715.632
639.179	727.363
639.231	716.186
639.283	718.187
639.335	720.285
639.387	701.737
639.438	717.077
639.49	709.508
639.542	720.472
639.594	709.569
639.646	690.998
639.698	709.539
639.749	709.531
639.801	680.057
639.853	683.312
639.905	696.341
639.957	685.288
640.008	674.171
640.06	692.462
640.112	676.952
640.164	680.038
640.216	677.779
640.268	683.275
640.319	672.549
640.371	683.72
640.423	667.677
640.475	659.256
640.527	662.787
640.578	677.15
640.63	666.283
640.682	686.979
640.734	674.817
640.786	683.345
640.838	648.203
640.889	680.744
640.941	654.423
640.993	657.612
641.045	645.572
641.097	680.428
641.148	650.915
641.2	659.503
641.252	650.584
641.304	649.255
641.356	668.623
641.408	652.11
641.459	652.023
641.511	661.829
641.563	664.079
641.615	667.423
641.667	641.315
641.718	659.753
641.77	658.491
641.822	648.458
641.874	671.045
641.926	661.043
641.977	654.393
642.029	656.542
642.081	633.773
642.133	661.064
642.185	676.412
642.236	653.668
642.288	628.693
642.34	655.866
642.392	669.932
642.444	641.551
642.495	644.694
642.547	645.669
642.599	652.094
642.651	657.447
642.703	676.927
642.754	684.435
642.806	664.751
642.858	650.46
642.91	664.36
642.962	663.031
643.013	667.121
643.065	640.861
643.117	650.414
643.169	663.234
643.221	657.634
643.272	646.61
643.324	655.058
643.376	651.572
643.428	619.949
643.479	646.771
643.531	646.592
643.583	664.862
643.635	661.594
643.687	644.35
643.738	658.504
643.79	653.177
643.842	671.575
643.894	666.081
643.946	684.266
643.997	668.852
644.049	680.407
644.101	671.442
644.153	652.816
644.205	660.156
644.256	657.85
644.308	665.297
644.36	659.831
644.412	666.24
644.463	679.131
644.515	668.333
644.567	674.818
644.619	671.635
644.671	670.626
644.722	670.687
644.774	677.192
644.826	669.648
644.878	668.556
644.929	677.174
644.981	686.891
645.033	681.528
645.085	671.841
645.136	690.152
645.188	692.222
645.24	669.441
645.292	669.283
645.344	673.466
645.395	686.348
645.447	686.399
645.499	661.751
645.551	692.121
645.602	684.773
645.654	683.878
645.706	674.338
645.758	688.55
645.81	681.225
645.861	669.638
645.913	702.403
645.965	686.572
646.017	679.355
646.068	682.884
646.12	687.395
646.172	695.043
646.224	683.102
646.275	668.917
646.327	672.002
646.379	696.701
646.431	694.36
646.482	694.222
646.534	715.771
646.586	696.3
646.638	707.158
646.689	694.252
646.741	689.987
646.793	691.092
646.845	709.459
646.896	702.924
646.948	667.197
647	694.219
647.052	695.33
647.104	720.26
647.155	683.535
647.207	698.666
647.259	698.564
647.31	712.419
647.362	721.866
647.414	699.953
647.466	692.123
647.518	688.689
647.569	708.014
647.621	714.471
647.673	720.98
647.724	709.143
647.776	696.185
647.828	714.459
647.88	708.92
647.931	730.307
647.983	705.307
648.035	714.866
648.087	694.31
648.138	696.48
648.19	692.248
648.242	709.615
648.294	718.35
648.345	706.544
648.397	723.795
648.449	706.456
648.501	707.391
648.552	712.59
648.604	699.434
648.656	711.049
648.708	711.88
648.759	724.563
648.811	727.578
648.863	708.035
648.915	721.905
648.966	720.765
649.018	713.209
649.07	734.705
649.121	719.596
649.173	735.622
649.225	713.947
649.277	709.44
649.328	733.943
649.38	730.53
649.432	743.28
649.484	719.56
649.535	715.197
649.587	748.4
649.639	742.894
649.69	710.492
649.742	724.189
649.794	726.055
649.846	741.874
649.897	718.081
649.949	721.159
650.001	733.951
650.053	740.368
650.104	724.318
650.156	760.782
650.208	758.674
650.259	745.852
650.311	746.975
650.363	758.844
650.415	751.465
650.466	748.42
650.518	748.634
650.57	772.478
650.621	744.821
650.673	753.616
650.725	761.283
650.777	771.02
650.828	755.974
650.88	759.114
650.932	731.079
650.984	753.498
651.035	744.823
651.087	750.163
651.139	772.746
651.19	750.309
651.242	781.569
651.294	766.657
651.345	759.219
651.397	763.552
651.449	777.531
651.501	755.018
651.552	757.266
651.604	746.707
651.656	768.457
651.707	767.68
651.759	777.633
651.811	768.147
651.863	767.154
651.914	763.904
651.966	763.81
652.018	758.32
652.069	763.616
652.121	766.82
652.173	766.862
652.224	793.85
652.276	788.603
652.328	782.298
652.38	788.926
652.431	788.049
652.483	783.977
652.535	787.475
652.586	776.969
652.638	793.365
652.69	794.581
652.741	782.73
652.793	777.214
652.845	813.63
652.897	798.276
652.948	806.663
653	800.072
653.052	780.682
653.103	803.391
653.155	801.377
653.207	802.565
653.258	811.201
653.31	797.082
653.362	808.681
653.413	829.854
653.465	824.06
653.517	815.051
653.568	800.726
653.62	818.718
653.672	804.546
653.724	794.719
653.775	809.594
653.827	810.466
653.879	813.415
653.93	825.949
653.982	820.209
654.034	817.705
654.085	807.772
654.137	827.926
654.189	821.38
654.24	817.002
654.292	836.127
654.344	827.301
654.395	822.618
654.447	829.581
654.499	825.797
654.55	814.563
654.602	834.351
654.654	826.47
654.705	825.035
654.757	819.331
654.809	838.073
654.86	840.77
654.912	811.53
654.964	842.949
655.016	829.807
655.067	844.416
655.119	849.581
655.17	834.644
655.222	854.763
655.274	849.355
655.326	843.869
655.377	864.819
655.429	864.449
655.481	870.367
655.532	862.462
655.584	850.329
655.635	863.662
655.687	853.813
655.739	855.745
655.79	867.344
655.842	854.724
655.894	881.283
655.945	854.896
655.997	856.959
656.049	903.305
656.1	859.63
656.152	882.527
656.204	867.397
656.255	893.548
656.307	878.594
656.359	877.427
656.41	874.149
656.462	867.653
656.514	874.803
656.565	887.162
656.617	881.571
656.669	868.644
656.72	897.967
656.772	907.367
656.824	874.714
656.875	864.272
656.927	886.567
656.979	887.839
657.03	898.667
657.082	903.24
657.134	938.493
657.185	913.607
657.237	910.86
657.288	911.19
657.34	906.086
657.392	920.905
657.443	919.724
657.495	916.353
657.547	921.441
657.598	923.435
657.65	903.359
657.702	930.953
657.753	928
657.805	917.692
657.857	932.768
657.908	916.101
657.96	923.748
658.011	919.763
658.063	926.397
658.115	937.324
658.166	952.552
658.218	926.485
658.27	952.358
658.321	936.832
658.373	933.958
658.425	925.695
658.476	940.727
658.528	946.18
658.579	927.216
658.631	957.144
658.683	936.115
658.734	959.73
658.786	959.959
658.838	958.035
658.889	923.124
658.941	943.522
658.992	944.829
659.044	953.672
659.096	957.296
659.147	931.172
659.199	965.822
659.251	949.3
659.302	954.044
659.354	958.702
659.406	932.289
659.457	945.282
659.509	951.769
659.56	933.59
659.612	952.696
659.664	983.44
659.715	955.355
659.767	965.621
659.818	963.027
659.87	940.18
659.922	955.752
659.973	959.666
660.025	967.927
660.077	954.998
660.128	959.219
660.18	942.258
660.231	956.266
660.283	929.854
660.335	964.141
660.386	954.664
660.438	932.25
660.49	952.276
660.541	966.811
660.593	957.83
660.644	973.315
660.696	943.127
660.748	958.752
660.799	963.809
660.851	969.94
660.902	943.103
660.954	958.677
661.006	968.855
661.057	938.673
661.109	945.619
661.16	947.287
661.212	945.812
661.264	972.952
661.315	951.4
661.367	954.196
661.418	939.012
661.47	960.848
661.522	958.394
661.573	919.011
661.625	958.899
661.676	968.185
661.728	957.432
661.78	935.075
661.831	951.753
661.883	966.279
661.934	942.779
661.986	935.037
662.038	955.662
662.089	946.681
662.141	971.289
662.192	953.726
662.244	961.373
662.296	959.578
662.347	932.683
662.399	947.879
662.45	939.091
662.502	960.819
662.554	943.862
662.605	952.073
662.657	946.626
662.708	947.364
662.76	935.411
662.811	935.882
662.863	951.911
662.915	935.485
662.966	947.253
663.018	955.951
663.069	933.524
663.121	926.925
663.173	913.235
663.224	944.49
663.276	932.114
663.327	949.956
663.379	962.514
663.43	929.089
663.482	952.772
663.534	928.403
663.585	932.052
663.637	934.644
663.688	958.071
663.74	931.909
663.792	944.067
663.843	937.463
663.895	934.666
663.946	942.726
663.998	948.454
664.049	946.559
664.101	915.279
664.153	943.213
664.204	931.236
664.256	937.224
664.307	940.31
664.359	940.876
664.41	937.32
664.462	940.689
664.513	940.639
664.565	941.324
664.617	944.886
664.668	947.522
664.72	926.808
664.771	937.052
664.823	929.038
664.874	944.465
664.926	938.24
664.978	931.673
665.029	924.952
665.081	929.732
665.132	929.095
665.184	919.393
665.235	935.93
665.287	929.175
665.339	961.497
665.39	940.445
665.442	956.127
665.493	941.896
665.545	937.782
665.596	921.318
665.648	947.632
665.699	925.645
665.751	933.648
665.802	930.829
665.854	946.999
665.906	942.253
665.957	933.753
666.009	933.259
666.06	937.351
666.112	928.476
666.163	944.501
666.215	953.354
666.266	944.247
666.318	940.482
666.37	940.791
666.421	926.238
666.473	946.287
666.524	940.276
666.576	937.037
666.627	933.002
666.679	935.975
666.73	930.581
666.782	941.6
666.833	945.178
666.885	938.074
666.937	942.153
666.988	941.023
667.04	947.404
667.091	929.941
667.143	933.734
667.194	950.473
667.246	936.907
667.297	938.737
667.349	933.617
667.4	942.635
667.452	923.903
667.503	936.326
667.555	942.81
667.607	938.162
667.658	933.096
667.71	945.075
667.761	937.795
667.813	933.076
667.864	947.477
667.916	945.905
667.967	944.448
668.019	956.856
668.07	926.796
668.122	927.135
668.173	940.492
668.225	941.161
668.276	941.72
668.328	950.747
668.379	940.58
668.431	950.727
668.482	957.808
668.534	933.936
668.586	939.14
668.637	955.616
668.689	945.894
668.74	934.597
668.792	948.167
668.843	960.596
668.895	948.141
668.935	943.28
668.987	918.575
669.038	945.026
669.09	947.592
669.142	944.937
669.194	954.717
669.245	952.898
669.297	953.047
669.349	965.662
669.401	972.041
669.453	960.779
669.504	932.959
669.556	964.859
669.608	924.734
669.66	942.155
669.711	962.676
669.763	953.736
669.815	941.479
669.867	935.37
669.918	942.819
669.97	947.13
670.022	972.503
670.074	964.434
670.125	940.739
670.177	962.284
670.229	970.226
670.281	961.315
670.332	951.247
670.384	956.824
670.436	948.559
670.488	955.929
670.539	937.899
670.591	951.359
670.643	944.767
670.695	936.06
670.747	966.28
670.798	953.432
670.85	954.317
670.902	946.861
670.953	953.121
671.005	959.406
671.057	960.425
671.109	949.84
671.161	973.852
671.212	966.259
671.264	954.392
671.316	946.679
671.367	960.991
671.419	959.591
671.471	980.277
671.523	949.686
671.575	966.365
671.626	979.983
671.678	974.791
671.73	953.893
671.781	947.65
671.833	950.798
671.885	966.466
671.937	927.578
671.988	980.89
672.04	977.609
672.092	941.89
672.144	967.001
672.195	937.698
672.247	957.677
672.299	960.891
672.351	961.954
672.402	979.69
672.454	982.645
672.506	977.132
672.558	961.105
672.609	961.838
672.661	957.378
672.713	958.195
672.765	962.167
672.816	965.061
672.868	967.861
672.92	976.795
672.971	974.093
673.023	955.643
673.075	966.378
673.127	942.779
673.178	978.69
673.23	949.175
673.282	965.623
673.334	970.72
673.385	984.151
673.437	954.859
673.489	953.541
673.54	968.741
673.592	961.01
673.644	978.22
673.696	974.735
673.747	979.668
673.799	982.629
673.851	952.446
673.903	990.736
673.954	985.399
674.006	940.576
674.058	963.086
674.109	984.482
674.161	951.949
674.213	976.352
674.265	986.199
674.316	968.058
674.368	971.598
674.42	988.543
674.471	981.753
674.523	979.189
674.575	960.272
674.627	991.036
674.678	977.619
674.73	991.132
674.782	968.583
674.833	1003.75
674.885	991.361
674.937	987.079
674.989	989.891
675.04	985.414
675.092	989.19
675.144	976.562
675.195	982.61
675.247	980.567
675.299	987.927
675.351	1005.69
675.402	1009.07
675.454	977.419
675.506	989.059
675.557	983.166
675.609	992.759
675.661	982.763
675.713	990.334
675.764	976.233
675.816	971.431
675.868	1014.19
675.919	999.079
675.971	1005.7
676.023	1000.97
676.074	1001.44
676.126	998.815
676.178	1019
676.23	996.701
676.281	989.954
676.333	1012.3
676.385	1025.34
676.436	1017.65
676.488	1012.03
676.54	1010.57
676.591	1004.9
676.643	999.187
676.695	1027.81
676.747	1033.48
676.798	1013.04
676.85	1009.3
676.902	1013.92
676.953	999.787
677.005	1035.86
677.057	1034.35
677.108	1003.57
677.16	1017.79
677.212	1006.86
677.263	1024.19
677.315	993.252
677.367	1034.63
677.419	984.672
677.47	1004.99
677.522	1006.4
677.574	1030.92
677.625	1011.33
677.677	1036.95
677.729	1025.77
677.78	1019.83
677.832	1015.95
677.884	1047.85
677.935	1020.76
677.987	1030.58
678.039	1017.27
678.091	1029.32
678.142	1046.69
678.194	1027.07
678.246	1017.87
678.297	1012.74
678.349	1035.96
678.401	1039.04
678.452	1035.81
678.504	1034.82
678.556	992.799
678.607	1020.63
678.659	1008.37
678.711	1021.43
678.762	1041.73
678.814	1031.13
678.866	1045.7
678.917	1024.18
678.969	1032.22
679.021	1029.74
679.072	1050.6
679.124	1013.47
679.176	1046.06
679.227	1028.99
679.279	1022.38
679.331	1025.16
679.382	1038.4
679.434	1017.89
679.486	1036.43
679.537	1009.75
679.589	1027.37
679.641	1031.33
679.692	1021.59
679.744	1011.81
679.796	1035.63
679.847	1035.24
679.899	1046.42
679.951	1012.48
680.003	1042.68
680.054	1029.87
680.106	1035.96
680.157	1050.41
680.209	1035.41
680.261	1038.17
680.312	1033.52
680.364	1038.24
680.416	1031.42
680.467	1021.47
680.519	1018.86
680.571	1014.17
680.622	1041.89
680.674	1039.31
680.726	1045.12
680.777	1018.61
680.829	1010.96
680.881	1018.01
680.932	1035.55
680.984	1026.03
681.036	1041.53
681.087	1041.31
681.139	1028.45
681.191	1023.75
681.242	1009.52
681.294	1002.5
681.346	1032.93
681.397	1045.81
681.449	1029.85
681.501	1028.69
681.552	1046.45
681.604	1012.43
681.656	1034.49
681.707	1019.06
681.759	1027.36
681.81	1023.02
681.862	1039.29
681.914	1032.67
681.965	1026.09
682.017	1037.26
682.069	1043.4
682.12	1026.9
682.172	1050.99
682.224	1049.25
682.275	1036.11
682.327	1049.95
682.379	1065.79
682.43	1034.77
682.482	1014.02
682.533	1035.72
682.585	1062.5
682.637	1040.39
682.688	1044.22
682.74	1062.61
682.792	1041.68
682.843	1070.7
682.895	1034.52
682.947	1051.4
682.998	1043.46
683.05	1039.71
683.102	1006.85
683.153	1037.32
683.205	1049.06
683.256	1044.16
683.308	1032.01
683.36	1032.4
683.411	1058.91
683.463	1048.01
683.515	1030.89
683.566	1073.18
683.618	1037.2
683.669	1031.35
683.721	1046.23
683.773	1045.3
683.824	1070.34
683.876	1055.63
683.928	1056.57
683.979	1049.24
684.031	1046.21
684.082	1046.46
684.134	1060.42
684.186	1038.91
684.237	1051.87
684.289	1045.94
684.341	1055.59
684.392	1052.6
684.444	1065.26
684.495	1058.08
684.547	1054.11
684.599	1029.31
684.65	1036.03
684.702	1044.92
684.754	1046.53
684.805	1052.31
684.857	1043.36
684.908	1044.83
684.96	1045.15
685.012	1039.07
685.063	1019.23
685.115	1033.99
685.166	1039.22
685.218	1040.19
685.27	1034.83
685.321	1026.31
685.373	1057.73
685.424	1029.34
685.476	1040.92
685.528	1015.8
685.579	1022.24
685.631	1031.85
685.683	1059.3
685.734	1018.42
685.786	1029.01
685.837	1044.86
685.889	1048.11
685.941	1023.02
685.992	1038.96
686.044	1028.63
686.095	1041.42
686.147	1027.87
686.199	1050.02
686.25	1030.02
686.302	1035.23
686.353	1038.3
686.405	1039.26
686.457	1031.82
686.508	1047.52
686.56	1032.74
686.611	1034.81
686.663	1057.95
686.715	1023.3
686.766	1059.17
686.818	1026.69
686.869	987.872
686.921	1017.36
686.973	1039.35
687.024	1023.32
687.076	1028.18
687.127	1021.38
687.179	1021.92
687.231	1036.17
687.282	1031.63
687.334	1013.59
687.385	1049.17
687.437	1020.81
687.489	1032.32
687.54	1028.05
687.592	1022.65
687.643	1010.87
687.695	1015.77
687.747	1026.87
687.798	1049.43
687.85	1002.87
687.901	1012.9
687.953	1036.6
688.004	1016.49
688.056	1008.01
688.108	1035.18
688.159	1021.63
688.211	1039.46
688.262	1016.48
688.314	988.232
688.366	1036.31
688.417	1026.89
688.469	1020.65
688.52	1022.82
688.572	1028.16
688.623	1029.32
688.675	1021.03
688.727	988.644
688.778	1021.09
688.83	998.07
688.881	990.753
688.933	1020.06
688.984	1035.76
689.036	1013.75
689.088	1017.83
689.139	1019.77
689.191	1021.68
689.242	1029.92
689.294	1025.72
689.346	993.457
689.397	1025.15
689.449	1019.31
689.5	1021.89
689.552	1017.1
689.603	1023.73
689.655	1029.18
689.706	1009.36
689.758	1003.07
689.81	1000.96
689.861	1015.64
689.913	1030.38
689.964	1031.56
690.016	1026.47
690.067	1018.24
690.119	1031.98
690.171	1039.38
690.222	1006.88
690.274	1024.72
690.325	1010.1
690.377	1020.76
690.428	1002.18
690.48	1022.57
690.531	995.838
690.583	1030.08
690.635	1040.15
690.686	1017.51
690.738	979.979
690.789	995.994
690.841	1024.57
690.892	1000.5
690.944	1022.85
690.996	1019.02
691.047	1010.07
691.099	999.128
691.15	1030.44
691.202	1040.62
691.253	1044.37
691.305	1014.16
691.356	1033.56
691.408	1026.5
691.459	1026.88
691.511	1017.77
691.563	1013.97
691.614	1012.24
691.666	1027.37
691.717	1014.8
691.769	1024.36
691.82	1020.04
691.872	1020.99
691.923	1006.06
691.975	1011.33
692.026	1016.67
692.078	1015.73
692.13	1032.9
692.181	984.385
692.233	1015.48
692.284	1019.03
692.336	1011.93
692.387	1012.21
692.439	1000.73
692.49	1016.82
692.542	1003.15
692.593	1007.6
692.645	1002.58
692.697	994.498
692.748	1021.61
692.8	992.358
692.851	1017.35
692.903	1008.15
692.954	995.577
693.006	1004.15
693.057	988.081
693.109	1007.11
693.16	1005.88
693.212	993.002
693.263	998.359
693.315	1010.25
693.366	983.891
693.418	993.842
693.47	1002.74
693.521	1000.94
693.573	992.639
693.624	999.184
693.676	1017.38
693.727	994.928
693.779	991.644
693.83	1007.55
693.882	1018.14
693.933	1004.24
693.985	987.234
694.036	1005.55
694.088	1023.97
694.139	1012.53
694.191	982.921
694.242	983.146
694.294	1004.64
694.345	975.802
694.397	996.034
694.448	973.465
694.5	997.892
694.552	1020.18
694.603	997.641
694.655	1025.36
694.706	1017.91
694.758	1002.02
694.809	1001.19
694.861	985.482
694.912	997.606
694.964	996.892
695.015	1007.89
695.067	998.493
695.118	974.048
695.17	1005.24
695.221	1006.48
695.273	1005.61
695.324	988.71
695.376	992.163
695.427	990.239
695.479	977.559
695.53	985.217
695.582	1010.04
695.633	1024.18
695.685	996.579
695.736	990.509
695.788	1034.97
695.839	995.742
695.891	985.497
695.942	997.794
695.994	1016.51
696.045	997.528
696.097	970.971
696.148	992.85
696.2	1001.84
696.251	977.46
696.303	984.358
696.354	1006.39
696.406	986.368
696.457	991.173
696.509	986.275
696.56	972.746
696.612	980.852
696.663	993.312
696.715	971.143
696.766	989.015
696.818	998.211
696.869	993.294
696.921	969.92
696.972	983.438
697.024	992.652
697.075	988.856
697.127	969.833
697.178	959.457
697.23	993.616
697.281	976.59
697.333	992.231
697.384	1013.41
697.436	995.479
697.487	984.213
697.539	968.669
697.59	1006.7
697.642	998.801
697.693	978.736
697.745	982.606
697.796	987.465
697.847	996.673
697.899	976.311
697.95	985.659
698.002	999.514
698.053	970.576
698.105	966.862
698.156	980.634
698.208	986.535
698.259	983.443
698.311	987.916
698.362	990.111
698.414	979.084
698.465	972.504
698.517	989.113
698.568	977.134
698.62	969.587
698.671	963.147
698.723	973.238
698.774	963.493
698.826	962.58
698.877	939.632
698.928	961.928
698.98	976.531
699.031	983.427
699.083	970.451
699.134	968.495
699.186	1000.75
699.237	995.418
699.289	977.877
699.34	961.375
699.392	974.639
699.443	973.463
699.495	977.739
699.546	957.653
699.598	980.606
699.649	978.146
699.7	979.027
699.752	985.493
699.803	968.887
699.855	972.268
699.906	965.84
699.958	978.275
700.009	933.324
700.061	977.806
700.112	955.892
700.164	952.581
700.215	946.853
700.266	947.56
700.318	962.478
700.369	957.481
700.421	950.353
700.472	952.209
700.524	966.395
700.575	984.088
700.627	965.544
700.678	963.544
700.73	950.415
700.781	943.723
700.832	968.806
700.884	978.315
700.935	969.073
700.987	972.046
701.038	947.681
701.09	956.527
701.141	967.7
701.193	953.566
701.244	958.051
701.295	972.276
701.347	972.002
701.398	944.088
701.45	966.75
701.501	967.451
701.553	970.456
701.604	964.795
701.656	963.643
701.707	952.681
701.758	960.443
701.81	980.307
701.861	957.298
701.913	936.448
701.964	955.103
702.016	969.276
702.067	954.786
702.119	953.409
702.17	968.469
702.221	955.004
702.273	970.16
702.324	953.605
702.376	977.771
702.427	957.021
702.479	974.699
702.53	963.79
702.581	949.5
702.633	970.256
702.684	956.958
702.736	950.284
702.787	932.739
702.839	955.933
702.89	969.386
702.941	960.966
702.993	939.366
703.044	972.658
703.096	936.635
703.147	1002.8
703.199	960.113
703.25	981.281
703.301	949.768
703.353	974.526
703.404	961.964
703.456	956.043
703.507	955.589
703.558	968.273
703.61	955.43
703.661	961.249
703.713	961.499
703.764	938.57
703.816	946.696
703.867	942.803
703.918	973.37
703.97	974.147
704.021	964.951
704.073	960.105
704.124	976.222
704.175	975.537
704.227	968.055
704.278	962.726
704.33	957.402
704.381	962.155
704.432	968.127
704.484	954.167
704.535	978.139
704.587	955.349
704.638	977.138
704.69	954.28
704.741	947.004
704.792	972.115
704.844	970.431
704.895	960.935
704.947	962.642
704.998	972.2
705.049	960.475
705.101	957.697
705.152	972.863
705.204	944.259
705.255	958.32
705.306	962.296
705.358	960.674
705.409	965.827
705.461	980.024
705.512	961.574
705.563	919.42
705.615	958.48
705.666	956.879
705.718	935.971
705.769	954.503
705.82	951.421
705.872	940.308
705.923	947.254
705.974	951.978
706.026	964.75
706.077	956.181
706.129	954.58
706.18	937.218
706.231	942.581
706.283	938.816
706.334	974.748
706.386	960.522
706.437	953.018
706.488	967.119
706.54	952.777
706.591	931.656
706.643	942.543
706.694	940.933
706.745	941.603
706.797	953.651
706.848	930.157
706.899	960.347
706.951	949.267
707.002	966.772
707.054	941.865
707.105	957.033
707.156	941.213
707.208	949.409
707.259	938.051
707.31	975.964
707.362	950.799
707.413	926.815
707.465	949.931
707.516	934.114
707.567	942.438
707.619	926.641
707.67	937.167
707.721	947.547
707.773	913.039
707.824	924.423
707.876	926.638
707.927	942.699
707.978	961.157
708.03	931.479
708.081	922.539
708.132	935.464
708.184	957.593
708.235	949.81
708.287	948.887
708.338	911.116
708.389	910.123
708.441	951.686
708.492	936.835
708.543	938.045
708.595	913.861
708.646	959.789
708.697	954.984
708.749	908.706
708.8	939.493
708.852	932.392
708.903	926.577
708.954	918.647
709.006	902.855
709.057	909.074
709.108	951.095
709.16	921.758
709.211	930.373
709.262	934.269
709.314	940.324
709.365	921.989
709.416	916.2
709.468	911.449
709.519	940.074
709.57	939.83
709.622	922.327
709.673	914.147
709.725	923.404
709.776	921.305
709.827	943.591
709.879	903.696
709.93	942.329
709.981	946.314
710.033	936.351
710.084	943.636
710.135	917.322
710.187	933.814
710.238	917.973
710.289	932.33
710.341	925.925
710.392	912.577
710.443	933.964
710.495	927.397
710.546	914.885
710.597	932.458
710.649	908.192
710.7	916.477
710.751	930.65
710.803	917.014
710.854	918.526
710.905	943.307
710.957	933.187
711.008	920.74
711.059	915.326
711.111	935.645
711.162	940.961
711.213	941.724
711.265	914.737
711.316	917.931
711.367	923.917
711.419	926.671
711.47	916.93
711.521	926.919
711.573	930.395
711.624	934.996
711.675	913.784
711.727	942.326
711.778	929.681
711.829	933.077
711.881	932.21
711.932	921.429
711.983	931.154
712.035	939.429
712.086	926.215
712.137	916.196
712.189	920.696
712.24	925.817
712.291	921.724
712.343	925.792
712.394	915.521
712.445	935.419
712.496	945.287
712.548	923.684
712.599	942.86
712.65	922.909
712.702	934.097
712.753	906.181
712.804	919.135
712.856	912.581
712.907	921.63
712.958	938.3
713.01	924.91
713.061	892.676
713.112	926.068
713.164	915.924
713.215	923.346
713.266	914.276
713.317	907.049
713.369	899.353
713.42	930.282
713.471	916.822
713.523	924.923
713.574	927.732
713.625	908.859
713.677	900.242
713.728	898.55
713.779	925.232
713.831	905.243
713.882	930.122
713.933	920.89
713.984	916.781
714.036	911.864
714.087	903.352
714.138	912.597
714.19	887.395
714.241	885.739
714.292	906.404
714.343	910.71
714.395	907.319
714.446	897.383
714.497	907.3
714.549	904.228
714.6	899.85
714.651	910.254
714.703	902.483
714.754	907.032
714.805	894.996
714.856	892.778
714.908	892.644
714.959	886.959
715.01	890.8
715.062	884.187
715.113	903.842
715.164	897.722
715.215	893.787
715.267	894.36
715.318	884.62
715.369	886.808
715.421	895.584
715.472	895.678
715.523	888.24
715.574	892.699
715.626	901.618
715.677	898.016
715.728	878.292
715.779	894.097
715.831	902.944
715.882	898.35
715.933	885.262
715.985	896.915
716.036	888.711
716.087	894.215
716.138	877.505
716.19	875.184
716.241	890.64
716.292	891.665
716.343	882.935
716.395	884.388
716.433	868.669
716.485	873.384
716.536	913.647
716.588	861.211
716.639	878.514
716.691	880.01
716.742	890.084
716.794	872.004
716.845	889.328
716.897	858.876
716.948	905.464
717	881.092
717.052	862.879
717.103	875.331
717.155	885.395
717.206	867.307
717.258	861.427
717.309	872.633
717.361	882.544
717.412	881.383
717.464	879.013
717.515	870.589
717.567	885.58
717.618	873.698
717.67	880.293
717.721	869.705
717.773	870.111
717.824	898.696
717.876	868.161
717.927	859.667
717.979	854.82
718.03	862.284
718.082	872.279
718.133	852.864
718.185	880.381
718.237	855.105
718.288	879.235
718.34	891.114
718.391	846.157
718.443	864.064
718.494	906.551
718.546	849.893
718.597	857.375
718.649	858.564
718.7	857.258
718.752	878.286
718.803	869.754
718.855	866.319
718.906	864.256
718.958	849.902
719.009	872.775
719.061	836.144
719.112	876.409
719.164	839.663
719.215	878.616
719.267	849.139
719.318	853.129
719.37	868.242
719.421	849.729
719.473	862.325
719.524	842.628
719.576	867.845
719.627	858.326
719.679	860.13
719.73	855.784
719.782	856.469
719.833	872.152
719.885	865.319
719.936	865.926
719.988	860.198
720.039	846.862
720.091	863.508
720.142	851.256
720.194	828.922
720.245	830.405
720.297	864.555
720.348	861.15
720.4	869.138
720.451	844.541
720.503	842.592
720.554	855.74
720.606	846.195
720.657	832.794
720.709	828.141
720.76	856.225
720.812	847.728
720.863	846.788
720.915	836.999
720.966	853.694
721.018	864.034
721.069	838.943
721.121	841.609
721.172	830.384
721.224	857.151
721.275	838.527
721.327	828.88
721.378	829.457
721.43	849.089
721.481	835.742
721.532	838.777
721.584	839.152
721.635	827.998
721.687	824.417
721.738	848.826
721.79	800.896
721.841	828.096
721.893	836.366
721.944	823.077
721.996	834.012
722.047	830.877
722.099	844.232
722.15	821.68
722.202	846.266
722.253	833.666
722.305	840.174
722.356	840.278
722.408	848.099
722.459	836.806
722.511	828.144
722.562	834.892
722.614	819.873
722.665	821.459
722.716	834.517
722.768	837.264
722.819	833.58
722.871	802.994
722.922	801.988
722.974	824.192
723.025	827.234
723.077	838.017
723.128	823.048
723.18	823.4
723.231	835.209
723.283	834.041
723.334	819.934
723.386	799.368
723.437	830.315
723.488	821.385
723.54	817.601
723.591	787.996
723.643	823.969
723.694	823.826
723.746	831.394
723.797	822.294
723.849	800.455
723.9	796.791
723.952	849.937
724.003	797.591
724.055	825.16
724.106	803.724
724.157	799.003
724.209	803.277
724.26	789.45
724.312	787.247
724.363	816.089
724.415	790.601
724.466	814.234
724.518	805.437
724.569	804.322
724.621	781.118
724.672	830.43
724.723	814.982
724.775	786.616
724.826	790.698
724.878	810.391
724.929	770.467
724.981	794.121
725.032	815.223
725.084	790.92
725.135	799.117
725.187	799.555
725.238	801.314
725.289	766.626
725.341	795.684
725.392	801.279
725.444	771.642
725.495	800.624
725.547	790.467
725.598	798.543
725.65	805.287
725.701	791.106
725.752	787.328
725.804	793.972
725.855	804.541
725.907	807.319
725.958	799.72
726.01	784.366
726.061	796.552
726.112	802.277
726.164	791.02
726.215	795.478
726.267	776.316
726.318	804.328
726.37	774.556
726.421	789.361
726.473	789.682
726.524	784.72
726.575	831.046
726.627	801.164
726.678	784.509
726.73	812.735
726.781	804.208
726.833	769.349
726.884	788.598
726.935	790.655
726.987	768.82
727.038	781.314
727.09	773.918
727.141	795.717
727.193	795.065
727.244	798.492
727.295	788.699
727.347	773.571
727.398	762.358
727.45	796.373
727.501	779.577
727.552	802.689
727.604	777.602
727.655	783.149
727.707	796.665
727.758	791.454
727.81	791.625
727.861	767.809
727.912	796.313
727.964	758.073
728.015	791.009
728.067	805.374
728.118	762.054
728.17	779.148
728.221	751.705
728.272	769.885
728.324	786.575
728.375	792.363
728.427	777.853
728.478	770.112
728.529	797.583
728.581	804.885
728.632	774.366
728.684	776.369
728.735	768.921
728.786	779.147
728.838	777.217
728.889	760.368
728.941	769.377
728.992	777.009
729.044	770.908
729.095	763.265
729.146	749.956
729.198	773.354
729.249	758.381
729.301	762.515
729.352	748.959
729.403	751.957
729.455	792.089
729.506	762.647
729.558	760.694
729.609	756.037
729.66	765.054
729.712	769.829
729.763	773.056
729.815	748.585
729.866	770.772
729.917	744.741
729.969	751.791
730.02	750.701
730.072	764.931
730.123	755.886
730.174	755.217
730.226	767.018
730.277	760.813
730.329	755.875
730.38	731.394
730.431	764.957
730.483	730.515
730.534	765.336
730.586	759.975
730.637	764.401
730.688	756.453
730.74	744.44
730.791	767.231
730.842	774.763
730.894	758.58
730.945	749.221
730.997	748.073
731.048	753.773
731.099	739.902
731.151	762.264
731.202	720.582
731.254	791.899
731.305	751.783
731.356	763.33
731.408	740.018
731.459	758.597
731.51	753.423
731.562	745.431
731.613	751.403
731.665	743.354
731.716	754.864
731.767	770.526
731.819	727.268
731.87	786.229
731.922	759.64
731.973	740.019
732.024	741.415
732.076	728.821
732.127	770.944
732.178	737.446
732.23	751.692
732.281	746.38
732.333	767.791
732.384	748.53
732.435	751.736
732.487	746.485
732.538	762.277
732.589	732.998
732.641	759.933
732.692	723.493
732.744	750.369
732.795	742.059
732.846	767.579
732.898	739.624
732.949	749.745
733	737.342
733.052	736.211
733.103	725.175
733.154	719.728
733.206	739.631
733.257	736.904
733.309	736.966
733.36	738.426
733.411	732.824
733.463	737.111
733.514	721.632
733.565	748.519
733.617	721.733
733.668	748.614
733.719	745.836
733.771	747.307
733.822	703.589
733.873	731.955
733.925	720.797
733.976	747.846
734.028	742.425
734.079	697.402
734.13	731.57
734.182	724.654
734.233	712.006
734.284	720.53
734.336	724.773
734.387	720.526
734.438	729.063
734.49	700.862
734.541	740.703
734.592	719.711
734.644	704.402
734.695	731.617
734.747	737.555
734.798	699.485
734.849	692.592
734.901	716.913
734.952	722.775
735.003	721.526
735.055	720.255
735.106	727.482
735.157	697.729
735.209	726.2
735.26	736.158
735.311	729.021
735.363	720.424
735.414	707.536
735.465	701.737
735.517	752.754
735.568	717.157
735.619	721.375
735.671	729.913
735.722	705.854
735.773	697.473
735.825	716.134
735.876	719.202
735.927	710.901
735.979	715.361
736.03	742.51
736.081	708.39
736.133	705.443
736.184	729.399
736.235	731.939
736.287	688.987
736.338	708.574
736.389	701.237
736.441	711.013
736.492	693.902
736.543	718.012
736.595	698.189
736.646	701.122
736.697	678.552
736.749	711.39
736.8	697.398
736.851	683.395
736.903	716.25
736.954	676.573
737.005	720.698
737.057	732.089
737.108	712.19
737.159	697.989
737.211	688.078
737.262	725.108
737.313	708.116
737.365	703.894
737.416	718.1
737.467	716.584
737.518	705.033
737.57	714.734
737.621	711.611
737.672	701.402
737.724	684.161
737.775	699.658
737.826	691.127
737.878	703.968
737.929	704.082
737.98	707.033
738.032	709.937
738.083	688.631
738.134	685.71
738.186	679.898
738.237	699.608
738.288	665.406
738.339	707.849
738.391	670.893
738.442	693.548
738.493	700.624
738.545	697.776
738.596	699.168
738.647	710.46
738.699	706.119
738.75	700.332
738.801	686.024
738.853	705.732
738.904	675.858
738.955	695.607
739.006	667.224
739.058	691.288
739.109	682.79
739.16	691.298
739.212	691.298
739.263	704.032
739.314	671.422
739.366	688.378
739.417	676.996
739.468	698.179
739.519	678.282
739.571	692.363
739.622	651.232
739.673	680.915
739.725	676.672
739.776	693.736
739.827	698.14
739.878	667.197
739.93	690.112
739.981	679.01
740.032	667.849
740.084	683.552
740.135	686.406
740.186	669.327
740.237	708.903
740.289	670.457
740.34	687.273
740.391	682.824
740.443	652.903
740.494	676.846
740.545	669.708
740.596	688.158
740.648	658.576
740.699	665.912
740.75	670.485
740.802	699.186
740.853	661.185
740.904	658.556
740.956	661.506
741.007	678.566
741.058	674.277
741.109	677.07
741.161	684.143
741.212	637.32
741.263	654.418
741.314	631.806
741.366	657.496
741.417	656.222
741.468	696.153
741.52	667.891
741.571	649.564
741.622	669.616
741.673	661.241
741.725	691.272
741.776	674.367
741.827	663.136
741.878	678.914
741.93	683.269
741.981	649.142
742.032	674.77
742.083	669.07
742.135	661.969
742.186	686.241
742.237	677.838
742.289	645.278
742.34	644.08
742.391	650.007
742.442	660.175
742.494	664.581
742.545	674.627
742.596	663.229
742.647	651.813
742.699	641.837
742.75	650.443
742.801	639.124
742.852	652.097
742.904	656.535
742.955	666.687
743.006	652.562
743.057	645.562
743.109	665.7
743.16	641.566
743.211	653.17
743.263	654.795
743.314	660.724
743.365	649.492
743.416	655.418
743.468	654.177
743.519	657.218
743.57	664.545
743.621	617.423
743.672	656.232
743.724	657.77
743.775	660.719
743.826	652.188
743.878	627.896
743.929	650.94
743.98	656.828
744.031	652.713
744.083	632.82
744.134	651.638
744.185	644.554
744.236	635.945
744.287	634.434
744.339	642.93
744.39	624.174
744.441	635.624
744.492	650.052
744.544	645.949
744.595	643.377
744.646	636.534
744.697	638.276
744.749	639.939
744.8	634.311
744.851	638.652
744.902	637.159
744.954	639.931
745.005	657.063
745.056	631.082
745.107	636.776
745.159	642.541
745.21	628.262
745.261	641.382
745.312	628.682
745.363	636.153
745.415	626.34
745.466	633.749
745.517	629.552
745.568	625.265
745.62	623.792
745.671	662.623
745.722	615.039
745.773	623.679
745.824	629.495
745.876	635.355
745.927	628.261
745.978	622.588
746.029	631.284
746.081	625.516
746.132	638.438
746.183	623.949
746.234	619.539
746.285	620.901
746.337	626.607
746.388	619.383
746.439	628.046
746.49	635.313
746.542	600.841
746.593	634.12
746.644	621.3
746.695	641.627
746.746	638.852
746.798	598.52
746.849	623.016
746.9	596.971
746.951	609.809
747.003	602.447
747.054	621.052
747.105	625.312
747.156	612.381
747.207	621.166
747.259	627.146
747.31	621.608
747.361	585.713
747.412	607.4
747.463	623.161
747.515	607.045
747.566	622.558
747.617	630.839
747.668	600.31
747.719	620.294
747.771	590.037
747.822	611.696
747.873	607.502
747.924	596.103
747.975	588.974
748.027	604.828
748.078	613.433
748.129	596.099
748.18	609.009
748.231	583.072
748.283	591.712
748.334	588.85
748.385	616.221
748.436	603.266
748.487	614.773
748.539	585.964
748.59	601.806
748.641	601.857
748.692	577.497
748.743	586.339
748.795	596.711
748.846	625.908
748.897	604.667
748.948	616.605
748.999	608.282
749.05	604.206
749.102	594.245
749.153	591.41
749.204	611.62
749.255	599.953
749.306	594.038
749.358	595.351
749.409	593.807
749.46	600.988
749.511	577.899
749.562	579.431
749.614	592.566
749.665	584.036
749.716	588.496
749.767	574.12
749.818	592.964
749.869	572.73
749.921	591.543
749.972	606.036
750.023	608.989
750.074	574.362
750.125	597.631
750.177	590.54
750.228	597.944
750.279	580.755
750.33	570.816
750.381	572.473
750.432	582.822
750.484	574.294
750.535	580.221
750.586	578.846
750.637	583.238
750.688	568.757
750.739	564.452
750.791	593.569
750.842	582.111
750.893	595.386
750.944	570.938
750.995	581.365
751.046	594.701
751.098	577.476
751.149	583.485
751.2	588.009
751.251	563.398
751.302	580.999
751.353	591.336
751.404	581.307
751.456	559.638
751.507	561.3
751.558	567.349
751.609	569.033
751.66	585.325
751.711	566.606
751.763	585.896
751.814	578.945
751.865	588.128
751.916	573.933
751.967	575.839
752.018	587.989
752.07	583.97
752.121	578.43
752.172	578.727
752.223	565.789
752.274	557.26
752.325	581.109
752.376	587.335
752.428	569.993
752.479	568.806
752.53	574.933
752.581	579.528
752.632	567.849
752.683	554.665
752.734	563.607
752.786	582.897
752.837	574.174
752.888	575.8
752.939	558.237
752.99	564.301
753.041	561.502
753.092	560.185
753.144	560.356
753.195	584.202
753.246	572.562
753.297	572.746
753.348	562.543
753.399	570.068
753.45	562.744
753.502	556.86
753.553	561.313
753.604	552.419
753.655	549.446
753.706	547.967
753.757	559.847
753.808	562.891
753.859	564.52
753.911	561.776
753.962	563.546
754.013	550.526
754.064	553.842
754.115	558.636
754.166	555.968
754.217	536.893
754.269	563.884
754.32	541.75
754.371	550.852
754.422	559.95
754.473	563.088
754.524	539.395
754.575	538.03
754.626	529.196
754.678	544.208
754.729	536.862
754.78	536.992
754.831	543.122
754.882	547.801
754.933	542.064
754.984	561.745
755.035	560.527
755.086	560.795
755.138	562.527
755.189	550.748
755.24	540.415
755.291	543.514
755.342	542.092
755.393	546.647
755.444	540.721
755.495	555.789
755.547	545.427
755.598	539.603
755.649	548.819
755.7	538.581
755.751	547.869
755.802	548.157
755.853	540.91
755.904	514.075
755.955	535.289
756.006	539.92
756.058	553.532
756.109	523.484
756.16	540.036
756.211	544.532
756.262	536.985
756.313	526.436
756.364	539.98
756.415	541.539
756.466	517.582
756.518	534.306
756.569	508.925
756.62	515.169
756.671	550.035
756.722	527.604
756.773	548.844
756.824	527.831
756.875	544.501
756.926	537.044
756.977	550.723
757.029	523.682
757.08	540.421
757.131	542.08
757.182	534.683
757.233	528.797
757.284	519.891
757.335	527.615
757.386	518.712
757.437	527.953
757.488	526.596
757.539	532.791
757.59	525.352
757.642	511.849
757.693	530.158
757.744	536.378
757.795	530.504
757.846	515.553
757.897	538.525
757.948	515.982
757.999	516.171
758.05	520.879
758.101	528.59
758.152	534.756
758.203	505.966
758.255	518.207
758.306	512.237
758.357	530.62
758.408	523.183
758.459	520.313
758.51	531.122
758.561	542.983
758.612	528.164
758.663	523.914
758.714	515.483
758.765	531.117
758.816	534.182
758.867	532.757
758.919	521.379
758.97	516.182
759.021	520.513
759.072	509.282
759.123	524.307
759.174	521.205
759.225	526.399
759.276	525.958
759.327	511.878
759.378	519.445
759.429	504.969
759.48	504.655
759.531	526.623
759.582	501.922
759.633	520.449
759.685	495.829
759.736	509.061
759.787	511.931
759.838	516.818
759.889	517.806
759.94	509.747
759.991	511.291
760.042	524.733
760.093	522.571
760.144	500.333
760.195	507.305
760.246	508.691
760.297	509.749
760.348	505.053
760.399	492.32
760.45	509.213
760.501	515.792
760.552	499.045
760.603	504.792
760.655	502.401
760.706	522.04
760.757	491.686
760.808	503.1
760.859	502.805
760.91	497.765
760.961	486.725
761.012	498.531
761.063	497.147
761.114	499.717
761.165	507.829
761.216	489.621
761.267	493.74
761.318	505.489
761.369	493.751
761.42	497.027
761.471	501.635
761.522	490.983
761.573	492.232
761.624	494.937
761.675	491.177
761.726	490.397
761.777	491.42
761.828	492.797
761.88	491.125
761.931	493.574
761.982	482.064
762.033	495.399
762.084	488.078
762.135	473.559
762.186	488.31
762.237	501.058
762.288	482.029
762.339	496.546
762.39	493.479
762.441	488.826
762.492	494.042
762.543	490.723
762.594	490.583
762.645	472.323
762.696	476.859
762.747	485.137
762.798	472.527
762.849	490.343
762.9	464.208
762.951	483.529
763.002	484.969
763.053	493.999
763.104	476.539
763.155	480.762
763.206	480.951
763.257	481.469
763.308	475.826
763.359	487.676
763.41	493.625
763.461	502.23
763.512	485.427
763.563	486.125
763.614	472.681
763.665	487.738
763.678	494.316
763.729	472.129
763.78	470.482
763.832	465.85
763.883	444.054
763.934	469.578
763.986	474.592
764.037	479.457
764.088	455.753
764.139	477.66
764.191	455.424
764.242	456.947
764.293	469.681
764.345	482.589
764.396	470.334
764.447	484.861
764.498	488.198
764.55	481.888
764.601	467.571
764.652	483.263
764.704	453.254
764.755	477.095
764.806	463.155
764.857	465.066
764.909	473.257
764.96	489.233
765.011	474.962
765.062	479.565
765.114	454.074
765.165	465.047
765.216	457.179
765.268	485.868
765.319	456.122
765.37	472.347
765.421	447.324
765.473	458.682
765.524	465.17
765.575	492.204
765.626	463.636
765.678	447.79
765.729	455.82
765.78	476.629
765.831	468.892
765.883	453.209
765.934	454.985
765.985	466.258
766.036	472.699
766.088	445.671
766.139	460.013
766.19	452.097
766.242	471.301
766.293	457.137
766.344	441.422
766.395	448.035
766.447	462.614
766.498	448.43
766.549	459.716
766.6	466.171
766.652	464.632
766.703	453.544
766.754	472.868
766.805	445.933
766.857	459.004
766.908	462.507
766.959	449.973
767.01	453.387
767.062	447.116
767.113	464.821
767.164	436.005
767.215	461.679
767.267	447.292
767.318	452.175
767.369	449.083
767.42	447.641
767.472	441.429
767.523	438.467
767.574	433.929
767.625	424.579
767.677	460.276
767.728	462.177
767.779	460.811
767.83	444.882
767.882	435.34
767.933	445.112
767.984	448.424
768.035	456.593
768.087	438.983
768.138	455.313
768.189	439.399
768.24	457.441
768.292	441.547
768.343	435.326
768.394	432.299
768.445	445.423
768.497	435.838
768.548	465.129
768.599	450.678
768.65	434.631
768.701	442.955
768.753	448.087
768.804	461.379
768.855	435.684
768.906	435.971
768.958	437.859
769.009	442.97
769.06	433.39
769.111	458.011
769.163	425.573
769.214	432.262
769.265	447.123
769.316	435.88
769.367	429.523
769.419	428.049
769.47	442.897
769.521	438.116
769.572	434.957
769.624	426.888
769.675	433.547
769.726	422.222
769.777	419.086
769.828	419.231
769.88	407.915
769.931	429.376
769.982	421.365
770.033	411.737
770.085	434.962
770.136	427.042
770.187	425.699
770.238	409.538
770.289	449.273
770.341	428.075
770.392	431.514
770.443	446.455
770.494	443.27
770.546	431.862
770.597	446.862
770.648	415.72
770.699	402.731
770.75	414.516
770.802	429.624
770.853	414.989
770.904	435.073
770.955	418.756
771.006	422.277
771.058	422.464
771.109	427.598
771.16	412.82
771.211	414.608
771.263	431.331
771.314	433.143
771.365	408.411
771.416	430.179
771.467	412.092
771.519	420.585
771.57	414.109
771.621	425.918
771.672	417.755
771.723	407.918
771.775	411.405
771.826	423.239
771.877	411.765
771.928	428.659
771.979	423.899
772.031	409.135
772.082	421.106
772.133	434.78
772.184	426.735
772.235	406.971
772.287	417.36
772.338	409.318
772.389	416.36
772.44	430.096
772.491	421.938
772.543	408.656
772.594	408.762
772.645	422.288
772.696	417.303
772.747	407.293
772.799	420.898
772.85	412.675
772.901	419.659
772.952	409.814
773.003	413.457
773.055	401.887
773.106	415.614
773.157	414.108
773.208	415.952
773.259	414.395
773.31	409.44
773.362	404.472
773.413	389.336
773.464	394.503
773.515	419.991
773.566	425.172
773.618	406.66
773.669	410.211
773.72	391.766
773.771	408.975
773.822	387.167
773.873	404.403
773.925	409.727
773.976	408.212
774.027	403.261
774.078	399.998
774.129	408.662
774.18	407.131
774.232	407.318
774.283	407.505
774.334	392.325
774.385	412.948
774.436	387.488
774.488	418.371
774.539	389.517
774.59	393.149
774.641	393.397
774.692	407.353
774.743	387.065
774.795	390.718
774.846	408.056
774.897	389.356
774.948	384.349
774.999	399.934
775.05	382.92
775.102	420.897
775.153	397.074
775.204	395.62
775.255	383.862
775.306	403.098
775.357	387.867
775.409	395.005
775.46	377.948
775.511	400.548
775.562	409.324
775.613	381.82
775.664	399.239
775.716	366.544
775.767	413.396
775.818	394.534
775.869	399.889
775.92	398.316
775.971	393.278
776.023	395.176
776.074	388.424
776.125	383.409
776.176	378.386
776.227	394.185
776.278	396.085
776.329	389.288
776.381	387.702
776.432	389.605
776.483	384.568
776.534	409.139
776.585	376.256
776.636	374.698
776.688	399.262
776.739	399.389
776.79	397.734
776.841	373.372
776.892	387.388
776.943	383.97
776.994	373.597
777.046	375.476
777.097	379.134
777.148	391.554
777.199	391.748
777.25	386.684
777.301	371.098
777.352	392.261
777.404	378.4
777.455	383.817
777.506	391.012
777.557	370.173
777.608	384.44
777.659	379.414
777.71	365.586
777.762	383.371
777.813	380.021
777.864	366.065
777.915	360.872
777.966	371.511
778.017	369.84
778.068	389.344
778.12	380.71
778.171	382.691
778.222	381.166
778.273	370.808
778.324	376.311
778.375	367.639
778.426	350.078
778.477	348.396
778.529	375.008
778.58	371.561
778.631	369.906
778.682	362.966
778.733	370.218
778.784	379.274
778.835	358.213
778.886	367.301
778.938	367.527
778.989	376.627
779.04	362.611
779.091	373.449
779.142	373.592
779.193	364.809
779.244	356.005
779.295	373.904
779.347	374.014
779.398	388.396
779.449	370.726
779.5	363.751
779.551	347.852
779.602	365.843
779.653	357.061
779.704	367.911
779.755	357.327
779.807	378.91
779.858	345.09
779.909	370.29
779.96	357.955
780.011	358.173
780.062	356.634
780.113	358.709
780.164	364.392
780.216	384.449
780.267	377.537
780.318	366.965
780.369	376.121
780.42	351.031
780.471	343.907
780.522	347.586
780.573	360.295
780.624	358.632
780.675	384.052
780.727	355.409
780.778	361.046
780.829	352.242
780.88	347.035
780.931	345.425
780.982	356.466
781.033	371.129
781.084	356.823
781.135	353.377
781.187	386.195
781.238	357.377
781.289	363.018
781.34	354.127
781.391	350.657
781.442	372.604
781.493	339.996
781.544	345.541
781.595	352.896
781.646	334.776
781.698	342.126
781.749	358.582
781.8	358.667
781.851	349.66
781.902	353.425
781.953	333.534
782.004	344.661
782.055	363.132
782.106	357.905
782.157	352.661
782.208	325.439
782.26	363.994
782.311	360.449
782.362	344.058
782.413	347.786
782.464	362.511
782.515	340.638
782.566	355.413
782.617	362.882
782.668	352.025
782.719	344.825
782.77	326.607
782.821	343.252
782.872	337.883
782.924	345.379
782.975	358.405
783.026	338.345
783.077	314.582
783.128	351.524
783.179	344.303
783.23	349.974
783.281	335.394
783.332	324.513
783.383	346.854
783.434	354.478
783.485	325.172
783.536	336.497
783.588	331.171
783.639	348.029
783.69	331.535
783.741	348.348
783.792	339.194
783.843	335.571
783.894	335.64
783.945	335.706
783.996	343.206
784.047	339.605
784.098	337.9
784.149	349.242
784.2	343.908
784.252	336.73
784.303	346.302
784.354	335.383
784.405	333.752
784.456	315.31
784.507	352.839
784.558	341.838
784.609	327.078
784.66	360.903
784.711	344.218
784.762	336.838
784.813	323.801
784.864	346.299
784.915	355.689
784.966	331.394
785.017	335.209
785.068	340.932
785.12	335.445
785.171	324.347
785.222	337.63
785.273	349.049
785.324	298.519
785.375	319.315
785.426	334.489
785.477	334.632
785.528	323.483
785.579	314.198
785.63	331.249
785.681	318.185
785.732	335.25
785.783	324.076
785.834	331.757
785.885	322.491
785.936	337.769
785.987	330.435
786.038	326.894
786.089	344.168
786.141	312.268
786.192	329.544
786.243	327.852
786.294	335.578
786.345	335.658
786.396	314.821
786.447	329.986
786.498	320.498
786.549	331.897
786.6	314.891
786.651	311.204
786.702	341.728
786.753	313.428
786.804	338.331
786.855	313.815
786.906	304.482
786.957	331.293
787.008	329.53
787.059	322.021
787.11	318.301
787.161	301.227
787.212	316.572
787.263	322.411
787.314	345.463
787.365	334.197
787.416	334.408
787.467	332.717
787.518	321.451
787.57	312.067
787.621	340.954
787.672	316.179
787.723	318.193
787.774	331.694
787.825	318.344
787.876	308.828
787.927	324.261
787.978	307.09
788.029	337.922
788.08	307.323
788.131	328.586
788.182	311.416
788.233	326.919
788.284	298.179
788.335	282.883
788.386	307.998
788.437	310.025
788.488	304.356
788.539	327.603
788.59	312.324
788.641	298.97
788.692	308.761
788.743	312.759
788.794	309.019
788.845	307.192
788.896	328.544
788.947	303.514
788.998	301.689
789.049	303.759
789.1	329.088
789.151	309.921
789.202	317.879
789.253	306.45
789.304	320.221
789.355	302.91
789.406	314.686
789.457	289.513
789.508	307.05
789.559	309.02
789.61	305.156
789.661	297.424
789.712	309.176
789.763	274.308
789.814	315.375
789.865	313.682
789.916	306.146
789.967	304.43
790.018	306.572
790.069	308.667
790.12	299.008
790.171	306.937
790.222	303.166
790.273	301.391
790.324	307.481
790.375	311.627
790.426	290.253
790.477	298.232
790.528	306.156
790.579	315.997
790.63	298.345
790.681	300.342
790.732	298.461
790.783	308.423
790.834	296.825
790.885	314.749
790.936	285.46
790.987	301.428
791.038	299.649
791.089	299.808
791.14	307.825
791.191	296.075
791.242	313.905
791.293	302.104
791.344	298.198
791.395	310.11
791.446	298.353
791.497	310.351
791.548	304.602
791.599	296.891
791.65	299.068
791.701	283.377
791.752	289.436
791.803	295.473
791.854	295.56
791.905	287.732
791.956	295.817
792.007	292.037
792.058	292.266
792.109	282.566
792.16	288.783
792.211	285.023
792.262	301.171
792.313	285.37
792.363	295.472
792.414	275.594
792.465	287.644
792.516	287.7
792.567	305.744
792.618	277.839
792.669	301.932
792.72	278.066
792.771	274.218
792.822	304.428
792.873	300.608
792.924	284.741
792.975	290.914
793.026	289.06
793.077	281.187
793.128	287.394
793.179	285.593
793.23	275.761
793.281	275.996
793.332	282.275
793.383	286.529
793.434	302.879
793.485	286.895
793.536	291.083
793.587	295.254
793.638	281.202
793.689	287.364
793.74	291.499
793.79	275.392
793.841	289.674
793.892	287.777
793.943	296.036
793.994	296.199
794.045	257.788
794.096	261.969
794.147	292.543
794.198	270.286
794.249	274.442
794.3	282.68
794.351	274.665
794.402	293.116
794.453	287.142
794.504	293.37
794.555	264.934
794.606	289.469
794.657	283.437
794.708	285.589
794.758	273.496
794.809	277.766
794.86	275.928
794.911	284.303
794.962	288.556
795.013	278.425
795.064	278.479
795.115	276.464
795.166	268.321
795.217	282.763
795.268	284.991
795.319	264.722
795.37	267.05
795.421	259.103
795.472	261.395
795.523	269.806
795.573	261.674
795.624	290.582
795.675	270.01
795.726	286.548
795.777	270.134
795.828	274.373
795.879	264.192
795.93	266.39
795.981	268.57
796.032	270.719
796.083	285.24
796.134	268.742
796.185	252.249
796.236	281.277
796.286	256.574
796.337	271.225
796.388	287.998
796.439	263.341
796.49	284.292
796.541	272.03
796.592	280.504
796.643	272.331
796.694	268.29
796.745	276.712
796.796	287.21
796.847	264.396
796.897	287.38
796.948	254.135
796.999	270.887
797.05	254.308
797.101	258.58
797.152	271.211
797.203	265.078
797.254	267.301
797.305	252.818
797.356	255.049
797.407	257.283
797.458	263.7
797.508	276.393
797.559	268.131
797.61	249.364
797.661	272.491
797.712	257.885
797.763	251.668
797.814	262.254
797.865	283.381
797.916	275.169
797.967	260.675
798.018	256.699
798.068	267.463
798.119	252.936
798.17	263.669
798.221	232.163
798.272	268.158
798.323	259.794
798.374	266.199
798.425	259.934
798.476	266.374
798.526	262.284
798.577	264.581
798.628	273.273
798.679	279.879
798.73	278.002
798.781	256.975
798.832	265.625
798.883	242.345
798.934	274.301
798.984	259.465
799.035	253.142
799.086	236.206
799.137	261.869
799.188	274.808
799.239	272.852
799.29	255.952
799.341	256.078
799.392	254.039
799.443	251.974
799.493	262.714
799.544	271.33
799.595	254.323
799.646	262.98
799.697	245.988
799.748	256.798
799.799	259.037
799.85	278.376
799.9	246.287
799.951	250.575
800.002	239.861
800.053	259.139
800.104	250.604
800.155	254.962
800.206	244.357
800.257	255.214
800.307	263.948
800.358	270.539
800.409	251.344
800.46	255.764
800.511	255.887
800.562	260.324
800.613	243.25
800.664	249.855
800.714	239.218
800.765	247.956
800.816	250.205
800.867	267.538
800.918	258.976
800.969	241.784
801.02	254.833
801.07	241.988
801.121	265.894
801.172	248.734
801.223	255.355
801.274	240.324
801.325	246.936
801.376	260.058
801.427	251.519
801.477	262.504
801.528	245.283
801.579	243.236
801.63	265.067
801.681	232.553
801.732	254.348
801.783	247.876
801.833	267.502
801.884	239.295
801.935	250.259
801.986	237.298
802.037	237.397
802.088	230.948
802.139	252.809
802.189	237.607
802.24	239.841
802.291	231.183
802.342	268.347
802.393	248.803
802.444	244.525
802.495	253.339
802.545	238.114
802.596	235.987
802.647	238.237
802.698	249.253
802.749	240.616
802.8	247.313
802.85	221.181
802.901	241.034
802.952	252.135
803.003	234.721
803.054	241.426
803.105	245.939
803.155	239.467
803.206	259.357
803.257	244.067
803.308	222.149
803.359	237.603
803.41	250.854
803.46	235.502
803.511	233.369
803.562	246.675
803.613	233.578
803.664	233.713
803.715	253.712
803.765	231.788
803.816	247.378
803.867	236.455
803.918	227.724
803.969	230.039
804.02	230.142
804.07	241.311
804.121	221.478
804.172	230.424
804.223	237.151
804.274	257.179
804.325	226.211
804.375	235.159
804.426	241.9
804.477	239.77
804.528	237.638
804.579	235.495
804.63	215.559
804.68	240.052
804.731	217.859
804.782	229.007
804.833	224.601
804.884	235.78
804.934	231.41
804.985	222.599
805.036	229.372
805.087	227.23
805.138	231.753
805.188	227.342
805.239	229.603
805.29	236.32
805.341	227.439
805.392	234.184
805.443	211.946
805.493	220.982
805.544	225.418
805.595	223.182
805.646	223.04
805.697	204.077
805.747	223.56
805.798	231.005
805.849	239.906
805.9	231.324
805.951	232.758
806.001	236.632
806.052	226.334
806.103	232.942
806.154	218.632
806.205	225.369
806.255	217.808
806.306	239.935
806.357	224.419
806.408	207.287
806.459	223.164
806.509	231.304
806.56	217.521
806.611	221.379
806.662	217.775
806.713	222.876
806.763	229.853
806.814	222.676
806.865	212.131
806.916	211.164
806.967	210.692
807.017	225.714
807.068	227.998
807.119	219.606
807.17	216.11
807.22	217.443
807.271	218.269
807.322	243.556
807.373	224.055
807.424	219.077
807.474	218.783
807.525	219.867
807.576	208.442
807.627	221.892
807.678	222.916
807.728	223.761
807.779	213.124
807.83	221.298
807.881	219.182
807.931	221.671
807.982	217.722
808.033	220.805
808.084	209.709
808.135	212.885
808.185	215.078
808.236	199.286
808.287	212.921
808.338	212.213
808.388	214.166
808.439	205.731
808.49	204.435
808.541	202.176
808.591	213.115
808.642	218.787
808.693	220.703
808.744	209.924
808.795	207.957
808.845	187.956
808.896	219.529
808.947	215.303
808.998	210.948
809.048	203.479
809.099	214.139
809.15	205.611
809.201	208.574
809.251	210.277
809.302	218.569
809.353	199.762
809.404	201.338
809.454	200.805
809.505	205.522
809.556	190.637
809.607	217.147
809.658	213.555
809.708	206.763
809.759	217.501
809.81	217.184
809.861	220.296
809.911	189.336
809.962	196.349
810.013	207.294
810.064	204.459
810.114	198.42
810.165	206.866
810.216	209.751
810.267	207.209
810.317	195.934
810.368	201.181
810.419	191.006
810.469	219.687
810.52	214.135
810.571	215.221
810.622	196.967
810.627	194.719
810.678	213.396
810.729	215.846
810.78	204.354
810.831	206.773
810.882	197.557
810.933	195.297
810.984	204.654
811.035	211.681
811.086	204.745
811.137	202.456
811.188	221.114
811.239	216.507
811.29	195.612
811.341	188.696
811.392	205.093
811.443	202.859
811.494	209.952
811.545	184.37
811.596	203.118
811.648	184.509
811.699	179.909
811.75	196.351
811.801	208.142
811.852	205.912
811.903	184.948
811.954	208.451
812.005	201.492
812.056	201.535
812.107	180.461
812.158	210.929
812.209	215.611
812.26	203.896
812.311	189.856
812.362	185.219
812.413	211.106
812.464	197.154
812.515	185.549
812.566	216.228
812.617	199.878
812.668	206.991
812.719	188.182
812.77	195.213
812.821	209.283
812.872	202.202
812.923	213.969
812.974	204.624
813.025	197.672
813.076	176.613
813.127	195.595
813.178	193.367
813.229	179.311
813.28	188.815
813.331	172.332
813.382	200.693
813.433	210.175
813.484	184.245
813.535	207.936
813.586	198.564
813.637	182.096
813.688	184.541
813.739	208.291
813.79	189.443
813.841	199.02
813.892	177.806
813.943	208.772
813.994	185.185
814.045	192.442
814.096	173.532
814.147	199.746
814.198	183.111
814.249	187.83
814.3	204.399
814.351	209.068
814.402	190.006
814.453	204.248
814.504	175.797
814.555	197.295
814.606	197.462
814.657	200.037
814.708	195.462
814.759	181.31
814.81	207.684
814.861	186.275
814.912	188.705
814.963	198.279
815.014	200.677
815.065	186.355
815.116	195.937
815.167	181.64
815.217	198.432
815.268	176.98
815.319	193.795
815.37	186.684
815.421	184.343
815.472	184.382
815.523	196.383
815.574	198.794
815.625	186.825
815.676	191.609
815.727	193.982
815.778	189.153
815.829	191.491
815.88	181.856
815.931	191.375
815.982	181.784
816.033	191.375
816.084	177.094
816.135	191.581
816.186	184.553
816.237	179.924
816.288	182.477
816.339	177.795
816.39	197.101
816.441	185.116
816.492	170.688
816.543	197.107
816.594	187.471
816.645	175.456
816.696	187.515
816.747	187.597
816.798	192.527
816.849	180.624
816.9	202.444
816.951	176.045
817.001	173.721
817.052	173.786
817.103	190.73
817.154	193.176
817.205	183.535
817.256	193.21
817.307	183.569
817.358	188.438
817.409	188.507
817.46	171.688
817.511	186.344
817.562	176.827
817.613	186.692
817.664	165.005
817.715	177.238
817.766	177.286
817.817	172.43
817.868	189.402
817.919	186.944
817.97	177.222
818.021	174.813
818.071	184.575
818.122	179.786
818.173	182.292
818.224	177.501
818.275	175.13
818.326	197.081
818.377	160.631
818.428	180.155
818.479	180.217
818.53	197.34
818.581	187.675
818.632	180.447
818.683	190.295
818.734	180.63
818.785	173.4
818.836	185.71
818.887	168.691
818.938	188.339
818.988	171.288
819.039	190.933
819.09	188.544
819.141	166.553
819.192	173.947
819.243	188.695
819.294	174.038
819.345	183.897
819.396	171.695
819.447	171.765
819.498	189.037
819.549	201.437
819.6	172.084
819.651	164.842
819.702	187.144
819.753	157.728
819.803	157.853
819.854	187.582
819.905	162.996
819.956	180.367
820.007	158.181
820.058	165.627
820.109	170.583
820.16	165.634
820.211	160.679
820.262	163.145
820.313	165.628
820.364	168.14
820.415	170.684
820.465	183.159
820.516	170.899
820.567	183.405
820.618	161.189
820.669	188.544
820.72	181.148
820.771	178.696
820.822	168.797
820.873	171.324
820.924	176.363
820.975	164.033
821.026	159.163
821.076	159.262
821.127	171.795
821.178	151.933
821.229	164.424
821.28	186.866
821.331	191.863
821.382	166.962
821.433	179.452
821.484	179.497
821.535	164.589
821.586	147.183
821.637	172.187
821.687	172.242
821.738	182.283
821.789	164.855
821.84	167.409
821.891	164.973
821.942	185.047
821.993	170.12
822.044	165.19
822.095	172.77
822.146	155.295
822.196	180.389
822.247	172.904
822.298	167.916
822.349	175.466
822.4	180.529
822.451	158.034
822.502	165.667
822.553	173.34
822.604	165.958
822.655	171.145
822.706	161.208
822.756	151.227
822.807	168.941
822.858	171.507
822.909	189.195
822.96	169.04
823.011	169.068
823.062	169.098
823.113	174.169
823.164	164.072
823.214	171.621
823.265	179.154
823.316	181.638
823.367	163.955
823.418	181.61
823.469	176.59
823.52	166.542
823.571	148.924
823.622	166.641
823.672	156.573
823.723	164.165
823.774	151.537
823.825	159.106
823.876	166.671
823.927	148.988
823.978	161.617
824.029	174.257
824.08	174.283
824.13	161.686
824.181	161.725
824.232	164.296
824.283	164.342
824.334	154.274
824.385	156.85
824.436	161.962
824.487	169.613
824.537	144.351
824.588	169.736
824.639	169.788
824.69	174.898
824.741	159.713
824.792	167.332
824.843	174.948
824.893	162.286
824.944	134.415
824.995	154.742
825.046	157.325
825.097	167.525
825.148	157.414
825.199	159.989
825.25	142.242
825.3	137.193
825.351	170.271
825.402	165.251
825.453	150.067
825.504	155.234
825.555	162.949
825.606	170.658
825.657	157.969
825.707	150.348
825.758	155.448
825.809	150.341
825.86	157.969
825.911	155.408
825.962	157.953
826.013	157.962
826.063	165.623
826.114	145.257
826.165	170.754
826.216	163.109
826.267	168.191
826.318	160.521
826.369	157.944
826.419	157.917
826.47	160.443
826.521	152.792
826.572	155.333
826.623	168.064
826.674	157.881
826.725	147.703
826.775	168.094
826.826	157.934
826.877	147.783
826.928	158.024
826.979	168.277
827.03	163.232
827.08	168.385
827.131	160.775
827.182	173.58
827.233	155.754
827.284	163.465
827.335	150.745
827.386	163.574
827.436	161.06
827.487	140.625
827.538	155.955
827.589	155.917
827.64	153.304
827.691	148.138
827.741	145.547
827.792	155.76
827.843	178.797
827.894	158.465
827.945	153.492
827.996	153.654
828.046	171.761
828.097	138.561
828.148	159.195
828.199	159.254
828.25	154.128
828.301	130.987
828.351	151.49
828.402	143.746
828.453	148.859
828.504	156.569
828.555	161.744
828.606	164.382
828.656	164.467
828.707	149.129
828.758	141.485
828.809	138.967
828.86	157.025
828.911	154.479
828.961	154.495
829.012	154.504
829.063	146.784
829.114	139.062
829.165	159.669
829.216	151.951
829.266	144.235
829.317	151.977
829.368	159.727
829.419	154.602
829.47	141.748
829.52	139.201
829.571	152.123
829.622	146.995
829.673	128.966
829.724	159.948
829.774	162.566
829.825	149.711
829.876	149.774
829.927	157.6
829.978	157.686
830.029	157.768
830.079	142.312
830.13	142.358
830.181	155.333
830.232	157.946
830.283	134.661
830.333	152.814
830.384	158.023
830.435	150.278
830.486	150.295
830.537	158.073
830.587	145.105
830.638	147.675
830.689	155.423
830.74	147.637
830.791	147.637
830.841	139.885
830.892	155.471
830.943	134.794
830.994	140.042
831.045	140.107
831.095	153.142
831.146	135.013
831.197	158.408
831.248	145.434
831.299	150.631
831.349	140.247
831.4	150.652
831.451	142.888
831.502	161.12
831.553	145.574
831.603	153.417
831.654	143.045
831.705	148.26
831.756	148.261
831.807	140.453
831.857	140.452
831.908	145.662
831.959	158.689
832.01	140.506
832.061	158.754
832.111	153.577
832.162	140.582
832.213	132.785
832.264	151.024
832.315	143.233
832.365	161.501
832.416	138.104
832.467	138.162
832.518	156.48
832.568	133.063
832.619	127.887
832.67	156.631
832.721	146.206
832.772	143.601
832.822	122.715
832.873	133.162
832.924	143.618
832.975	143.64
833.025	151.511
833.076	154.171
833.127	151.611
833.178	156.896
833.229	143.87
833.279	138.678
833.33	136.092
833.381	141.351
833.432	136.135
833.482	138.771
833.533	128.316
833.584	136.194
833.635	133.599
833.685	144.102
833.736	154.606
833.787	141.525
833.838	144.168
833.889	152.06
833.939	131.115
833.99	131.15
834.041	154.797
834.092	133.837
834.142	128.605
834.193	125.983
834.244	141.722
834.295	139.084
834.345	144.327
834.396	128.594
834.447	139.127
834.498	139.183
834.548	147.131
834.599	131.427
834.65	139.364
834.701	147.287
834.751	152.565
834.802	139.42
834.853	139.425
834.904	134.172
834.954	142.077
835.005	134.195
835.056	149.988
835.107	142.087
835.157	123.653
835.208	118.373
835.259	142.03
835.31	144.656
835.36	131.519
835.411	144.703
835.462	147.374
835.513	142.147
835.563	115.842
835.614	136.909
835.665	131.635
835.716	147.418
835.766	128.988
835.817	144.799
835.868	134.309
835.919	144.91
835.969	118.628
836.02	137.157
836.071	129.305
836.122	137.269
836.172	134.655
836.223	150.507
836.274	139.94
836.325	134.644
836.375	134.621
836.426	129.311
836.477	134.548
836.528	145.052
836.578	139.731
836.629	144.962
836.68	134.393
836.73	134.382
836.781	129.117
836.832	126.497
836.883	137.062
836.933	123.908
836.984	137.121
837.035	147.704
837.086	137.188
837.136	129.302
837.187	131.959
837.238	139.877
837.288	124.02
837.339	131.895
837.39	147.666
837.441	139.714
837.491	139.7
837.542	131.816
837.593	131.874
837.643	134.593
837.694	126.754
837.745	137.381
837.796	147.98
837.846	134.759
837.897	134.72
837.948	139.948
837.999	147.814
838.049	121.385
838.1	126.645
838.151	121.365
838.201	139.836
838.252	124.004
838.303	145.097
838.354	129.242
838.404	142.389
838.455	137.072
838.506	115.952
838.556	137.007
838.607	118.553
838.658	142.264
838.708	118.561
838.759	123.841
838.81	144.934
838.861	126.498
838.911	126.508
838.962	134.428
839.013	147.625
839.063	123.918
839.114	123.939
839.165	118.689
839.216	126.632
839.266	131.945
839.317	124.063
839.368	137.297
839.418	134.682
839.469	137.332
839.52	124.12
839.57	118.822
839.621	124.081
839.672	134.626
839.722	134.625
839.773	121.442
839.824	126.753
839.875	118.869
839.925	126.836
839.976	142.737
840.027	129.558
840.077	121.657
840.128	116.393
840.179	124.352
840.229	137.601
840.28	113.794
840.331	124.38
840.381	127.02
840.432	124.363
840.483	113.771
840.534	129.643
840.584	127.005
840.635	124.377
840.686	127.05
840.736	132.378
840.787	140.359
840.838	132.451
840.888	116.588
840.939	140.472
840.99	121.95
841.04	135.24
841.091	124.666
841.142	135.311
841.192	122.075
841.243	130.065
841.294	114.161
841.344	135.421
841.395	135.439
841.446	122.177
841.496	119.538
841.547	122.217
841.598	127.56
841.648	116.962
841.699	122.316
841.75	119.695
841.8	122.39
841.851	133.061
841.902	119.766
841.952	114.436
842.003	122.395
842.054	111.715
842.104	124.965
842.155	119.6
842.206	124.874
842.256	108.91
842.307	132.807
842.358	114.219
842.408	124.86
842.459	116.91
842.51	132.873
842.56	132.89
842.611	124.928
842.662	111.645
842.712	135.575
842.763	135.579
842.814	130.263
842.864	124.943
842.915	146.203
842.966	130.246
843.016	122.269
843.067	124.934
843.118	135.587
843.168	122.326
843.219	125.026
843.269	122.406
843.32	141.071
843.371	127.786
843.421	101.175
843.472	122.486
843.523	135.819
843.573	119.87
843.624	125.244
843.675	143.962
843.725	130.69
843.776	144.078
843.827	120.092
843.877	128.105
843.928	141.439
843.979	114.734
844.029	125.385
844.08	130.7
844.13	122.685
844.181	141.347
844.232	125.345
844.282	136.021
844.333	128.037
844.384	120.06
844.434	112.087
844.485	136.147
844.536	125.505
844.586	130.877
844.637	112.2
844.687	125.57
844.738	109.547
844.789	104.208
844.839	122.919
844.89	133.619
844.941	130.958
844.991	114.934
845.042	133.656
845.092	109.608
845.143	125.661
845.194	112.307
845.244	120.346
845.295	117.689
845.346	128.404
845.396	117.715
845.447	109.697
845.497	120.408
845.548	99.0141
845.599	96.358
845.649	120.483
845.7	128.561
845.75	112.532
845.801	117.925
845.852	115.267
845.902	109.914
845.953	109.914
846.004	125.999
846.054	123.323
846.105	115.295
846.155	117.998
846.206	118.022
846.257	118.041
846.307	118.053
846.358	115.375
846.409	123.428
846.459	112.704
846.51	101.989
846.56	104.703
846.611	131.597
846.661	120.897
846.712	126.302
846.763	115.563
846.813	120.928
846.864	107.467
846.915	104.75
846.965	102.037
847.016	123.5
847.066	118.129
847.117	110.088
847.168	96.6807
847.218	99.3857
847.269	112.832
847.319	110.153
847.37	112.839
847.421	120.895
847.471	115.522
847.522	110.156
847.572	115.547
847.623	120.949
847.674	110.227
847.724	123.702
847.775	110.281
847.825	112.991
847.876	123.769
847.926	115.708
847.977	107.645
848.028	113.04
848.078	113.056
848.129	110.385
848.179	115.798
848.23	105.056
848.281	123.948
848.331	102.418
848.382	124.002
848.432	107.84
848.483	102.456
848.534	102.464
848.584	105.178
848.635	105.208
848.685	118.742
848.736	110.696
848.786	126.95
848.837	110.78
848.888	110.804
848.938	97.3025
848.989	102.718
849.039	129.77
849.09	113.58
849.14	102.801
849.191	110.963
849.242	105.588
849.292	102.902
849.343	102.907
849.393	124.561
849.444	108.303
849.494	102.888
849.545	116.446
849.596	111.07
849.646	108.414
849.697	103.047
849.747	111.232
849.798	116.694
849.848	119.423
849.899	103.137
849.95	108.555
850	94.9746
850.051	113.961
850.101	100.392
850.152	119.39
850.202	116.685
850.253	108.554
850.303	105.848
850.354	113.999
850.405	105.866
850.455	103.165
850.506	103.183
850.556	116.785
850.607	97.7965
850.657	116.84
850.708	103.277
850.758	114.172
850.809	108.754
850.86	111.489
850.91	114.22
850.961	97.9066
851.011	103.343
851.062	87.0179
851.112	116.917
851.163	100.596
851.213	103.318
851.264	97.9006
851.314	106.101
851.365	106.159
851.416	117.123
851.466	103.572
851.517	106.359
851.567	95.4928
851.618	117.355
851.668	100.998
851.719	109.197
851.769	114.663
851.82	117.397
851.87	106.482
851.921	106.492
851.971	106.509
852.022	109.264
852.073	95.6323
852.123	117.526
852.174	98.4218
852.224	120.319
852.275	106.658
852.325	106.7
852.376	106.811
852.426	106.572
852.477	106.165
852.527	106.039
852.578	106.224
852.628	104.321
852.679	95.7981
852.729	113.814
852.78	107.229
852.831	103.545
852.881	87.5052
852.932	107.601
852.982	107.49
853.033	101.461
853.083	112.558
853.134	109.495
853.184	97.8715
853.235	96.0012
853.285	108.658
853.336	109.716
853.386	110.082
853.437	101.25
853.487	109.972
853.538	101.67
853.588	106.586
853.639	102.258
853.689	107.486
853.74	104.037
853.79	92.8171
853.841	107.776
853.891	100.376
853.942	103.843
853.992	99.4247
854.043	99.1911
854.093	118.505
854.144	96.1733
854.194	95.7255
854.245	107.73
854.295	104.257
854.346	107.064
854.396	97.4266
854.447	105.648
854.497	97.9259
854.548	104.724
854.598	96.6539
854.649	109.998
854.699	100.834
854.75	108.536
854.8	92.0787
854.851	92.4728
854.901	103.074
854.952	98.7752
855.002	94.0352
855.053	97.6748
855.103	97.6922
855.154	106.704
855.204	101.66
855.255	99.9151
855.305	87.0774
855.356	97.9866
855.406	99.2622
855.457	100.673
855.507	107.677
855.558	90.2658
855.608	92.3416
855.659	104.144
855.709	104.555
855.76	101.072
855.81	100.74
855.861	99.3942
855.911	92.918
855.962	93.755
856.012	99.5567
856.063	95.2521
856.113	98.5864
856.164	97.1595
856.214	94.1565
856.265	98.9655
856.315	103.296
856.366	94.8552
856.416	102.935
856.467	100.448
856.517	101.285
856.568	99.2375
856.618	96.4705
856.668	91.3053
856.719	83.1833
856.769	89.3407
856.82	103.145
856.87	102.574
856.921	101.075
856.971	102.753
857.022	101.241
857.072	97.6645
857.123	95.2852
857.173	94.0944
857.224	93.1161
857.274	94.3841
857.325	99.2684
857.352	105.324
857.403	77.6133
857.453	88.7062
857.504	91.4829
857.555	85.9417
857.606	97.0327
857.656	97.0315
857.707	99.7992
857.758	91.4764
857.809	83.1548
857.859	83.1523
857.91	105.33
857.961	91.4831
858.012	97.0493
858.063	80.4355
858.113	113.754
858.164	99.9075
858.215	99.9237
858.266	88.8238
858.316	86.0395
858.367	88.797
858.418	94.3232
858.469	91.5267
858.519	105.374
858.57	80.4071
858.621	83.174
858.672	105.349
858.722	99.7979
858.773	85.9289
858.824	85.9188
858.875	102.538
858.925	94.2198
858.976	72.0541
859.027	91.4665
859.078	97.0285
859.128	99.8178
859.179	94.2802
859.23	94.2764
859.281	102.58
859.331	105.333
859.382	94.2307
859.433	99.7686
859.483	97.0039
859.534	99.7909
859.585	77.6285
859.636	97.0472
859.686	105.368
859.737	99.8163
859.788	102.58
859.839	110.893
859.889	102.583
859.94	105.375
859.991	94.308
860.042	88.7852
860.092	94.3536
860.143	97.136
860.194	88.8038
860.245	99.8861
860.295	97.09
860.346	99.8464
860.397	88.7474
860.447	74.8885
860.498	94.3285
860.549	88.8124
860.6	83.2948
860.65	86.1006
860.701	94.4532
860.752	91.6802
860.802	86.1158
860.853	97.2091
860.904	102.742
860.955	74.9617
861.005	80.5091
861.056	99.9468
861.107	88.8541
861.158	88.8722
861.208	88.8928
861.259	88.914
861.31	88.9348
861.36	94.5147
861.411	83.4133
861.462	108.458
861.513	97.3488
861.563	83.4496
861.614	91.7971
861.665	100.139
861.715	91.7851
861.766	94.5529
861.817	80.6324
861.868	91.7309
861.918	88.9235
861.969	80.5579
862.02	91.6344
862.07	94.3777
862.121	86.0259
862.172	91.5604
862.223	91.5564
862.273	97.1122
862.324	91.5767
862.375	88.8173
862.425	91.6062
862.476	97.1644
862.527	88.8317
862.577	83.2656
862.628	94.3422
862.679	94.3124
862.73	77.6467
862.78	63.7701
862.831	83.1795
862.882	97.0662
862.932	91.5618
862.983	80.5136
863.034	88.9032
863.084	86.1781
863.135	88.9972
863.186	89.0137
863.237	89.006
863.287	91.7581
863.338	86.1567
863.389	100.002
863.439	102.733
863.49	97.1493
863.541	91.5852
863.591	97.1406
863.642	102.714
863.693	97.1951
863.744	88.901
863.794	91.7173
863.845	86.1889
863.896	88.9898
863.946	100.123
863.997	86.2155
864.048	94.5528
864.098	80.6453
864.149	88.9942
864.2	86.23
864.25	86.2553
864.301	102.982
864.352	86.3041
864.402	86.3143
864.453	94.6643
864.504	86.2991
864.555	83.4989
864.605	108.529
864.656	91.8197
864.707	75.1181
864.757	83.4568
864.808	100.135
864.859	88.9911
864.909	80.627
864.96	100.064
865.011	94.4918
865.061	91.7157
865.112	86.1738
865.163	86.1998
865.213	86.2276
865.264	77.9028
865.315	89.043
865.365	102.955
865.416	89.0327
865.467	80.676
865.517	83.4531
865.568	83.4583
865.619	86.2573
865.669	89.0669
865.72	83.5297
865.771	105.841
865.821	83.5828
865.872	91.9619
865.923	83.6164
865.973	89.2047
866.024	75.2786
866.075	86.4462
866.125	94.8284
866.176	83.6843
866.227	83.6914
866.277	78.1128
866.328	100.426
866.379	97.6278
866.429	97.6208
866.48	94.8288
866.531	100.409
866.581	86.469
866.632	83.6851
866.683	80.8981
866.733	100.423
866.784	94.8377
866.835	86.4637
866.885	80.884
866.936	92.0488
866.987	89.28
867.037	86.5215
867.088	89.3528
867.138	97.7745
867.189	78.2497
867.24	83.8591
867.29	89.4559
867.341	86.6533
867.392	78.2541
867.442	89.4174
867.493	92.202
867.544	86.6154
867.594	89.4226
867.645	89.4451
867.696	83.8801
867.746	89.499
867.797	78.3317
867.848	81.1448
867.898	86.7523
867.949	83.9612
867.999	78.3692
868.05	86.7719
868.101	69.9831
868.151	95.1861
868.202	75.5967
868.253	89.6054
868.303	98.0163
868.354	86.8248
868.405	72.8318
868.455	78.4505
868.506	95.2876
868.556	89.7131
868.607	70.1153
868.658	86.9766
868.708	87.0071
868.759	95.4541
868.81	70.2017
868.86	75.8295
868.911	84.2658
868.961	95.5139
869.012	84.2898
869.063	75.8738
869.113	98.3724
869.164	92.7668
869.215	84.3465
869.265	78.7345
869.316	84.3693
869.367	81.5659
869.417	84.3846
869.468	70.3211
869.518	90.005
869.569	95.6179
869.62	84.3562
869.67	87.1582
869.721	81.533
869.771	87.1626
869.822	81.5516
869.873	95.6283
869.923	87.2006
869.974	95.6414
870.025	87.1965
870.075	84.3742
870.126	95.6165
870.176	81.5566
870.227	75.9432
870.278	84.404
870.328	92.8772
870.379	84.4669
870.43	73.2334
870.48	81.7144
870.531	81.7446
870.581	84.5944
870.632	81.8044
870.683	87.4768
870.733	73.3909
870.784	90.3511
870.834	64.9529
870.885	87.5575
870.936	84.7405
870.986	87.5689
871.037	90.3935
871.087	84.74
871.138	90.3819
871.189	76.2523
871.239	76.247
871.29	96.0151
871.34	87.5533
871.391	79.0991
871.442	90.4298
871.492	96.1202
871.543	87.675
871.593	90.5375
871.644	82.0757
871.695	79.265
871.745	84.9411
871.796	76.4538
871.846	101.94
871.897	99.1061
871.948	67.9563
871.998	76.4519
872.049	87.7868
872.099	104.798
872.15	93.491
872.201	70.8427
872.251	76.5208
872.302	90.6924
872.352	73.68
872.403	76.5019
872.453	84.9914
872.504	84.9883
872.555	79.3274
872.605	76.5034
872.656	93.514
872.706	76.5139
872.757	87.8436
872.808	79.3322
872.858	84.9875
872.909	84.982
872.959	93.4849
873.01	65.1674
873.06	99.1941
873.111	73.7098
873.162	79.4033
873.212	85.0951
873.263	85.1077
873.313	73.7637
873.364	70.9239
873.415	70.9173
873.465	85.0924
873.516	73.7434
873.566	76.5841
873.617	90.7827
873.667	76.6196
873.718	82.3216
873.769	82.3431
873.819	82.3516
873.87	93.6988
873.92	68.1199
873.971	79.4297
874.021	87.8851
874.072	82.1681
874.123	76.4705
874.173	76.4578
874.224	82.1282
874.274	84.9849
874.325	82.1872
874.375	70.8858
874.426	82.2679
874.477	87.9815
874.527	76.6592
874.578	76.683
874.628	82.3805
874.679	76.7059
874.729	79.5439
874.78	85.2133
874.83	85.1958
874.881	82.3389
874.932	82.3267
874.982	87.9998
875.033	79.4873
875.083	70.9788
875.134	73.8264
875.184	93.7067
875.235	82.3414
875.285	70.9726
875.336	73.7999
875.387	73.795
875.437	82.3157
875.488	73.8161
875.538	73.8391
875.589	82.3863
875.639	90.9324
875.69	82.4165
875.74	73.8855
875.791	93.7568
875.841	68.1663
875.892	79.5052
875.943	70.9753
875.993	85.1716
876.044	65.3109
876.094	76.6943
876.145	76.7231
876.195	79.5915
876.246	76.7665
876.296	68.2432
876.347	71.0846
876.397	85.293
876.448	79.5982
876.499	71.0655
876.549	71.0671
876.6	82.4467
876.65	76.774
876.701	79.634
876.751	79.6506
876.802	73.9753
876.852	79.6786
876.903	65.4595
876.953	74.0072
877.004	82.5573
877.054	79.7218
877.105	88.2776
877.155	76.9008
877.206	74.0672
877.257	79.7805
877.307	74.0951
877.358	76.9551
877.408	79.8108
877.459	62.7082
877.509	65.5546
877.56	91.1979
877.61	76.9416
877.661	76.9377
877.711	85.4863
877.762	79.7909
877.812	65.5476
877.863	79.8045
877.913	82.6631
877.964	76.9711
878.014	71.28
878.065	79.8491
878.115	77.0164
878.166	77.0396
878.216	79.9202
878.267	82.8048
878.318	85.6924
878.368	80.0099
878.419	80.0399
878.469	77.2095
878.52	80.0967
878.57	71.5369
878.621	77.2794
878.671	77.2931
878.722	77.3
878.772	71.5735
878.823	71.5661
878.873	65.8289
878.924	74.3982
878.974	77.2418
879.025	80.0884
879.075	74.3627
879.126	82.9502
879.176	80.1112
879.227	83.0088
879.277	68.7364
879.328	88.8419
879.378	74.5604
879.429	80.3415
879.479	68.8946
879.53	83.2723
879.58	68.9258
879.631	68.9293
879.681	80.4165
879.732	77.5418
879.782	68.924
879.833	80.4109
879.883	74.6686
879.934	77.5437
879.984	68.9318
880.035	83.2996
880.085	77.5639
880.136	89.0696
880.186	80.4684
880.237	74.7427
880.287	77.6449
880.338	80.5523
880.388	80.5848
880.439	77.737
880.489	74.8849
880.54	74.9104
880.59	80.7002
880.641	66.313
880.691	83.6426
880.742	69.2456
880.792	75.0374
880.842	80.8239
880.893	77.9414
880.943	66.391
880.994	75.0435
881.044	69.267
881.095	86.5885
881.145	80.8325
881.196	69.309
881.246	72.2282
881.297	83.8224
881.347	75.1815
881.398	66.5283
881.448	72.3316
881.499	75.2409
881.549	72.3625
881.6	78.1705
881.65	78.1916
881.701	81.1095
881.751	55.0514
881.802	78.2439
881.852	86.9452
881.902	75.3548
881.953	69.5594
882.003	78.2582
882.054	86.9633
882.104	72.4818
882.155	78.2956
882.205	69.6071
882.256	66.7115
882.306	78.3099
882.357	72.4989
882.407	72.4861
882.458	81.1739
882.508	69.5771
882.559	57.9901
882.609	72.511
882.659	69.6413
882.71	72.5788
882.76	75.5183
882.811	72.6444
882.861	87.2032
882.912	78.504
882.962	72.7042
883.013	75.6255
883.063	78.5462
883.114	75.6485
883.164	75.6608
883.214	78.5858
883.265	75.6924
883.315	69.8882
883.366	75.7328
883.416	81.5786
883.467	81.5936
883.517	75.773
883.568	81.6038
883.618	84.518
883.669	78.6914
883.719	69.9559
883.769	58.3096
883.82	81.6588
883.87	67.0999
883.921	72.9572
883.971	75.8933
884.022	67.1469
884.072	72.9942
884.123	67.1637
884.173	73.0187
884.223	73.039
884.274	75.9853
884.324	58.4685
884.375	73.1029
884.425	81.8854
884.476	64.3398
884.526	52.6394
884.577	73.1076
884.627	84.8072
884.677	64.3446
884.728	78.9859
884.778	76.0823
884.829	70.251
884.879	61.4862
884.93	73.2125
884.98	82.0066
885.03	76.1488
885.081	79.0687
885.131	79.0516
885.182	76.1015
885.232	81.9292
885.283	64.3549
885.333	81.8922
885.383	64.3434
885.434	81.9053
885.484	76.0777
885.535	73.1761
885.585	76.1229
885.635	84.9107
885.686	73.1905
885.736	76.1031
885.787	76.0909
885.837	73.1624
885.888	73.1739
885.938	73.1974
885.988	67.3691
886.039	73.2559
886.089	67.4137
886.14	82.077
886.19	73.2786
886.241	67.4059
886.291	52.7446
886.341	79.1128
886.392	76.1899
886.442	67.4145
886.493	67.4356
886.543	61.5905
886.593	73.3379
886.644	70.4102
886.694	76.2744
886.745	64.5328
886.795	79.1925
886.845	67.4617
886.896	61.6066
886.946	79.236
886.997	73.4014
887.047	64.6276
887.097	70.5402
887.148	79.3955
887.198	67.6605
887.249	70.6256
887.299	64.757
887.349	70.6578
887.4	67.7224
887.45	70.6714
887.501	76.5617
887.551	70.6722
887.602	67.7294
887.652	70.6813
887.702	64.8039
887.753	73.6617
887.803	88.4234
887.853	70.7616
887.904	73.7298
887.954	76.6934
888.005	64.9019
888.055	85.5597
888.105	73.7664
888.156	88.5362
888.206	67.8972
888.257	73.8294
888.307	67.9521
888.357	73.8912
888.408	65.045
888.458	62.0996
888.509	82.8022
888.559	79.8381
888.609	70.9571
888.66	62.0797
888.71	79.8132
888.76	67.9938
888.811	65.0493
888.861	70.981
888.912	76.9173
888.962	73.9769
889.012	71.0305
889.063	59.1983
889.113	68.0817
889.163	79.9249
889.214	56.2466
889.264	68.095
889.315	71.0669
889.365	68.1195
889.415	68.1345
889.466	68.1488
889.516	85.942
889.566	80.0259
889.617	65.2132
889.667	68.1845
889.718	77.0884
889.768	59.3102
889.818	65.2585
889.869	80.1169
889.919	80.1475
889.969	71.2702
890.02	62.3842
890.07	74.2893
890.12	77.278
890.171	68.3708
890.221	68.3761
890.272	71.3528
890.322	83.2518
890.372	62.4492
890.423	62.4675
890.473	62.4952
890.523	59.5539
890.574	68.5339
890.624	68.5832
890.674	68.6299
890.725	68.6692
890.775	59.7374
890.826	77.6778
890.876	77.6852
890.926	68.7207
890.977	77.6798
891.027	59.7513
891.077	65.7285
891.128	62.7493
891.178	59.7757
891.228	65.7747
891.279	68.7894
891.329	65.8211
891.379	62.8463
891.43	77.8228
891.48	62.861
891.53	56.8743
891.581	68.8476
891.631	80.8263
891.681	71.8595
891.732	56.909
891.782	80.9126
891.832	71.9682
891.883	60.0151
891.933	69.0632
891.983	72.1064
892.034	66.1242
892.084	57.1203
892.134	69.1516
892.185	72.1591
892.235	75.1683
892.286	75.1795
892.336	63.1711
892.386	63.2029
892.437	81.3126
892.487	60.2727
892.537	69.358
892.587	78.4461
892.638	63.3859
892.688	66.4251
892.738	66.4443
892.789	72.5089
892.839	69.5166
892.889	66.5265
892.94	75.6365
892.99	72.6434
893.04	75.6943
893.091	69.6495
893.141	72.6778
893.191	72.6705
893.242	63.5782
893.292	66.599
893.342	69.6244
893.393	69.6281
893.443	78.7197
893.493	48.4512
893.544	69.6628
893.594	66.6499
893.644	54.5469
893.695	66.6897
893.745	66.7127
893.795	66.7357
893.846	75.8602
893.896	63.7403
893.946	66.792
893.996	66.8085
894.047	69.8643
894.097	63.8089
894.147	69.9081
894.198	72.9674
894.248	54.7346
894.298	63.8592
894.349	69.936
894.399	66.8884
894.449	66.8864
894.5	57.7727
894.55	60.8322
894.6	63.9032
894.65	54.8032
894.701	70.0624
894.751	67.0463
894.801	57.9259
894.852	51.8476
894.902	76.2784
894.952	70.2122
895.003	54.9822
895.053	67.2453
895.103	67.2896
895.153	61.2086
895.204	73.4861
895.254	58.1986
895.304	55.1514
895.355	73.5515
895.405	70.4998
895.455	58.2487
895.505	70.5235
895.556	64.4029
895.606	73.6185
895.656	67.499
895.707	64.4461
895.757	64.4609
895.807	52.1937
895.858	73.6992
895.908	76.784
895.958	67.5842
896.008	67.6012
896.059	70.6943
896.109	67.6408
896.159	76.8868
896.21	70.7544
896.26	64.6168
896.31	64.6306
896.36	83.1137
896.411	55.4204
896.461	61.5895
896.511	70.8373
896.561	58.5212
896.612	64.6799
896.662	55.4363
896.712	67.753
896.763	55.4385
896.813	58.5337
896.863	67.8078
896.913	86.3569
896.964	67.9018
897.014	55.5949
897.064	55.6257
897.115	64.9181
897.165	58.741
897.215	64.9178
897.265	71.0851
897.316	61.7974
897.366	61.7829
897.416	67.9483
897.466	67.9387
897.517	67.9324
897.567	74.1062
897.617	74.1121
897.667	64.8633
897.718	64.8908
897.768	64.93
897.818	55.6949
897.868	71.2191
897.919	71.2654
897.969	65.0973
898.019	52.7068
898.069	68.2013
898.12	71.2765
898.17	68.143
898.22	61.9137
898.27	71.1657
898.321	61.8634
898.371	46.3948
898.421	61.8754
898.471	61.9106
898.522	71.256
898.572	58.9209
898.622	74.4992
898.672	65.2419
898.723	65.282
898.773	59.0854
898.823	68.4231
898.873	65.3121
898.924	65.3094
898.974	55.9805
899.024	62.2078
899.074	68.4421
899.125	63.7889
899.175	59.1293
899.225	62.2405
899.275	68.4518
899.326	62.2086
899.376	77.7309
899.426	49.7315
899.476	65.262
899.527	68.375
899.577	52.8527
899.627	74.6566
899.677	62.2567
899.728	59.1873
899.778	56.1111
899.828	71.7399
899.878	71.7729
899.928	56.1886
899.979	71.8122
