#Acq. time (s)=	5
#Accumulations=	2
#Range (nm)=	520...900
#Windows=	8
#Auto scanning=	Off
#Autofocus=	Off
#AutoExposure=	Off
#Spike filter=	Multiple accum.
#Delay time (s)=	0
#Binning=	1
#Readout mode=	Signal
#DeNoise=	Off
#ICS correction=	On
#Dark correction=	Off
#Inst. Process=	Off
#Detector temperature (°C)=	-59.98
#Instrument=	LabRAM HR Evol
#Detector=	Syncerity OE
#Objective=	x50_VIS
#Grating=	600 (500nm)
#ND Filter=	10%
#Laser=	514nm_Edge
#Hole=	199.981
#Range=	Auto
#StageXY=	Marzhauser
#StageZ=	Marzhauser
#X (µm)=	899.8
#Y (µm)=	23679
#Z (µm)=	-15.4
#Full time(mm:ss)=	2:04
#Project=	
#Sample=	
#Site=	
#Title=	LT_191023_M5_borda
#Remark=	
#Date=	27.10.2023 13:43
#Acquired=	27.10.2023 13:43:28
520.044	36.0343
520.097	35.9548
520.149	35.8769
520.201	25.0618
520.254	33.9464
520.306	26.7529
520.359	35.6173
520.411	26.6819
520.464	35.5483
520.516	28.4286
520.569	37.3148
520.621	30.2202
520.674	32.0213
520.726	30.2711
520.778	37.4338
520.831	26.7676
520.883	39.2985
520.936	37.5411
520.988	42.9271
521.041	33.9937
521.093	33.9968
521.146	37.5737
521.198	30.4129
521.25	30.4072
521.303	32.187
521.355	39.323
521.408	30.3667
521.46	37.4789
521.513	32.0898
521.565	39.1737
521.617	28.456
521.67	31.979
521.722	26.6264
521.775	37.2529
521.827	30.1428
521.88	35.4493
521.932	37.2117
521.984	38.9775
522.037	28.3478
522.089	31.9001
522.142	35.4654
522.194	31.947
522.247	30.2052
522.299	39.1351
522.352	32.0559
522.404	33.8709
522.456	33.8999
522.509	33.9248
522.561	33.9474
522.614	37.5446
522.666	25.0449
522.719	39.3774
522.771	37.6029
522.823	35.8199
522.876	30.4454
522.928	30.4343
522.981	30.4121
523.033	35.739
523.086	39.2537
523.138	28.4962
523.19	40.8814
523.243	33.7047
523.295	33.6452
523.348	30.0613
523.4	33.5638
523.453	31.7748
523.505	37.0496
523.557	24.6848
523.61	40.5234
523.662	35.2072
523.715	28.1416
523.767	28.1233
523.82	35.145
523.872	40.4262
523.924	31.6604
523.977	28.1729
524.029	37.0243
524.082	28.2468
524.134	28.2834
524.186	28.318
524.239	35.4387
524.291	33.7054
524.344	44.4004
524.396	37.3396
524.449	40.9422
524.501	30.294
524.553	35.6741
524.606	24.9918
524.658	32.1516
524.711	33.9501
524.763	21.4441
524.815	39.3061
524.868	33.9294
524.92	44.6107
524.973	33.8731
525.025	35.6207
525.078	28.4697
525.13	35.5584
525.182	24.8757
525.235	33.7469
525.287	26.6374
525.34	37.291
525.392	28.4135
525.444	42.6225
525.497	30.191
525.549	35.516
525.602	30.1844
525.654	37.2815
525.706	24.8535
525.759	40.838
525.811	33.7522
525.864	37.3366
525.916	24.9207
525.969	32.0878
526.021	35.7107
526.073	39.3466
526.126	34.035
526.178	32.2908
526.231	30.5377
526.283	37.7696
526.335	36.0135
526.388	34.2509
526.44	34.2858
526.493	27.0917
526.545	27.1109
526.597	32.5499
526.65	34.3688
526.702	34.3723
526.755	39.7957
526.807	30.7425
526.859	39.7661
526.912	25.2906
526.964	30.6892
527.017	39.6882
527.069	32.4522
527.121	30.6343
527.174	45.035
527.226	32.4181
527.279	37.8151
527.331	32.4074
527.383	32.3998
527.436	35.9879
527.488	25.1811
527.54	34.1585
527.593	37.7364
527.645	39.5163
527.698	32.3198
527.75	41.2868
527.802	32.3073
527.855	34.1035
527.907	34.1117
527.96	44.9039
528.012	34.1488
528.064	28.7797
528.117	34.2064
528.169	34.2392
528.222	36.0778
528.274	39.7291
528.326	28.929
528.379	28.9684
528.431	30.8249
528.484	36.321
528.536	29.1009
528.588	47.3542
528.641	27.3518
528.693	40.1546
528.745	32.8801
528.798	42.0437
528.85	42.0729
528.903	38.4402
528.955	25.6417
529.007	36.645
529.06	31.1507
529.112	38.4698
529.164	29.2932
529.217	31.0992
529.269	31.0721
529.322	40.1771
529.374	31.0217
529.426	38.2915
529.479	32.7937
529.531	38.2215
529.584	41.8136
529.636	32.6834
529.688	39.8988
529.741	34.4231
529.793	39.8283
529.845	34.3804
529.898	32.5615
529.95	30.7462
530.003	36.1642
530.055	36.154
530.107	36.1417
530.16	23.4841
530.212	41.5381
530.264	37.9224
530.317	39.7328
530.369	32.5202
530.422	37.9628
530.474	32.5659
530.526	39.8421
530.579	32.6351
530.631	32.6763
530.683	30.9037
530.736	38.2328
530.788	40.1189
530.841	43.8414
530.893	42.0875
530.945	38.4904
530.998	33.0385
531.05	38.5881
531.102	36.7805
531.155	38.6418
531.207	36.8191
531.259	29.4703
531.312	35.019
531.364	33.2039
531.417	40.6228
531.469	35.1197
531.521	44.4045
531.574	33.3301
531.626	42.6134
531.678	40.7772
531.731	29.6654
531.783	33.3842
531.835	40.8193
531.888	40.841
531.94	39.0096
531.992	33.4599
532.045	33.482
532.097	42.8061
532.15	42.824
532.202	39.112
532.254	40.9853
532.307	31.6804
532.359	42.8814
532.411	37.3124
532.464	41.0783
532.516	42.9876
532.568	41.1606
532.621	43.0725
532.673	46.8544
532.726	43.1291
532.778	39.3895
532.83	43.1431
532.883	41.2632
532.935	46.8826
532.987	37.5007
533.04	44.9966
533.092	37.4951
533.144	37.493
533.197	33.7404
533.249	50.6026
533.301	43.0975
533.354	54.3308
533.406	39.3391
533.458	48.706
533.511	33.7224
533.563	39.3459
533.615	35.5973
533.668	43.081
533.72	41.1884
533.773	46.7744
533.825	43.0012
533.877	50.4449
533.93	37.3447
533.982	44.7911
534.034	33.5761
534.087	42.8748
534.139	52.1489
534.191	53.9497
534.244	52.021
534.296	46.3861
534.348	48.1866
534.401	49.9987
534.453	46.2744
534.505	38.8663
534.558	53.6795
534.61	46.2866
534.662	48.1504
534.715	53.7188
534.767	62.9955
534.819	53.7475
534.872	57.4795
534.924	55.6599
534.976	55.7041
535.029	57.6129
535.081	63.245
535.133	55.8476
535.186	59.6041
535.238	65.2125
535.29	48.4491
535.343	61.494
535.395	52.1791
535.447	63.3722
535.5	61.5318
535.552	54.1042
535.604	56.0083
535.657	50.4438
535.709	54.218
535.761	48.641
535.814	50.5451
535.866	54.3287
535.918	43.1246
535.971	56.3026
536.023	45.0846
536.075	43.2398
536.128	45.1399
536.18	39.4965
536.232	41.3559
536.285	43.1961
536.337	46.9
536.389	50.5977
536.442	43.0662
536.494	46.7897
536.546	50.5277
536.599	44.919
536.651	39.3096
536.703	52.4101
536.755	48.6473
536.808	43.0002
536.86	46.6868
536.912	46.6261
536.965	48.4299
537.017	44.6575
537.069	46.4769
537.122	46.4376
537.174	48.2505
537.226	42.6379
537.279	46.2899
537.331	49.9294
537.383	44.327
537.436	38.7449
537.488	53.4614
537.54	36.8499
537.593	47.8886
537.645	42.3524
537.697	47.8628
537.75	36.8017
537.802	40.4572
537.854	44.1014
537.906	49.5727
537.959	42.1954
538.011	51.336
538.063	42.1527
538.116	38.4833
538.168	49.4867
538.22	55.0058
538.273	36.6887
538.325	44.0493
538.377	45.9061
538.43	42.2489
538.482	40.4217
538.534	42.2651
538.586	49.6201
538.639	38.5972
538.691	44.1177
538.743	40.4507
538.796	49.6598
538.848	42.3186
538.9	55.2187
538.953	40.5061
539.005	49.721
539.057	40.5137
539.109	40.5064
539.162	46.0143
539.214	51.5128
539.266	44.1323
539.319	45.9502
539.371	47.7702
539.423	55.1043
539.476	47.7482
539.528	38.5611
539.58	51.4099
539.633	55.0763
539.685	42.2195
539.737	44.0471
539.789	51.3764
539.842	45.8587
539.894	53.1786
539.946	42.1608
539.999	49.4743
540.051	51.2872
540.103	49.4377
540.155	47.5912
540.208	51.2386
540.26	34.7631
540.312	54.8873
540.365	51.2359
540.417	49.4242
540.469	45.7895
540.521	58.653
540.574	45.8576
540.626	56.9015
540.678	45.91
540.731	47.7573
540.783	47.7587
540.835	49.5926
540.888	55.1024
540.94	47.7629
540.992	44.1051
541.044	53.3229
541.097	53.3568
541.149	46.0261
541.201	53.4198
541.254	51.6015
541.306	47.9345
541.358	42.4186
541.41	55.3465
541.463	46.1345
541.515	51.6798
541.567	49.837
541.62	55.3726
541.672	47.9874
541.724	53.5266
541.776	48
541.829	60.949
541.881	48.0482
541.933	42.5301
541.985	44.4011
542.038	57.3657
542.09	44.4089
542.142	55.4889
542.195	49.9061
542.247	53.5559
542.299	40.5891
542.351	62.6671
542.404	53.4017
542.456	55.1963
542.508	47.8009
542.56	53.2823
542.613	51.4177
542.665	49.5599
542.717	49.5422
542.77	53.1949
542.822	55.0114
542.874	56.8247
542.926	53.1363
542.979	47.6165
543.031	53.0828
543.083	47.566
543.135	58.5142
543.188	54.8365
543.24	63.9634
543.292	53.0004
543.344	54.8443
543.397	56.7028
543.449	54.9119
543.501	43.9619
543.554	62.3192
543.606	51.343
543.658	60.5187
543.71	53.1742
543.763	54.9875
543.815	51.2993
543.867	62.2693
543.919	56.7642
543.972	56.7656
544.024	58.6091
544.076	51.2999
544.128	58.6505
544.181	62.3395
544.233	60.5275
544.285	66.053
544.337	58.7346
544.39	58.7559
544.442	67.9605
544.494	64.3069
544.547	71.6737
544.599	66.1716
544.651	64.3407
544.703	62.5072
544.755	60.6723
544.808	64.3514
544.86	69.8659
544.912	47.7984
544.965	68.0088
545.017	58.805
545.069	67.978
545.121	56.9448
545.174	58.7757
545.226	58.7711
545.278	64.2708
545.33	62.4123
545.383	64.2069
545.435	51.3182
545.487	58.5847
545.539	53.0337
545.591	54.8118
545.644	67.5593
545.696	52.9358
545.748	63.882
545.8	65.7029
545.853	58.3899
545.905	56.5381
545.957	60.1407
546.009	60.0849
546.062	67.3027
546.114	54.5217
546.166	54.482
546.218	61.7101
546.271	72.5635
546.323	59.8354
546.375	61.6164
546.427	63.3943
546.48	65.1727
546.532	66.9564
546.584	68.75
546.636	75.983
546.689	66.9453
546.741	61.5321
546.793	61.5519
546.845	67.0072
546.898	67.0326
546.95	61.6203
547.002	65.2664
547.054	59.8422
547.106	67.1043
547.159	68.917
547.211	70.7202
547.263	74.3294
547.315	65.248
547.368	74.2951
547.42	65.2289
547.472	72.4808
547.524	72.4958
547.577	79.771
547.629	61.6641
547.681	70.7566
547.733	63.5149
547.785	72.5982
547.838	76.2317
547.89	72.602
547.942	70.7881
547.994	67.1629
548.047	74.435
548.099	76.2667
548.151	61.7537
548.203	69.031
548.255	76.3023
548.308	72.6627
548.36	76.2777
548.412	65.3574
548.464	78.032
548.517	61.6721
548.569	63.4602
548.621	68.8773
548.673	74.2992
548.725	65.2325
548.778	67.0462
548.83	57.9917
548.882	79.7475
548.934	59.8125
548.987	77.9264
549.039	70.6496
549.091	74.2225
549.143	68.7287
549.195	79.4973
549.248	74.0009
549.3	77.5435
549.352	73.8914
549.404	75.6657
549.456	72.047
549.509	91.8403
549.561	72.0061
549.613	70.1655
549.665	77.3015
549.718	77.2334
549.77	75.3744
549.822	69.9449
549.874	75.2946
549.926	84.2425
549.979	87.8215
550.031	68.1009
550.083	75.2527
550.135	87.7561
550.187	87.6966
550.24	84.0441
550.292	89.3222
550.344	87.4531
550.396	87.3835
550.448	90.9009
550.501	90.8799
550.553	83.7576
550.605	94.4759
550.657	96.2908
550.709	89.1789
550.762	90.9627
550.814	87.3716
550.866	94.4568
550.918	97.9616
550.97	103.245
551.023	92.5225
551.075	106.723
551.127	106.696
551.179	94.2217
551.231	90.6305
551.284	111.897
551.336	117.158
551.388	113.549
551.44	108.19
551.492	109.954
551.545	125.932
551.597	113.545
551.649	131.318
551.701	131.332
551.753	136.647
551.806	157.907
551.858	152.542
551.91	180.879
551.962	191.499
552.014	189.731
552.067	257.146
552.119	296.212
552.171	374.314
552.223	574.854
552.275	1155.21
552.327	2527.51
552.38	4882.87
552.432	9049.37
552.484	14058.1
552.536	15395.6
552.588	9407.41
552.641	4051.08
552.693	1419.42
552.745	648.916
552.797	417.53
552.849	317.826
552.901	271.511
552.954	219.964
553.006	182.676
553.058	179.124
553.11	148.987
553.162	152.562
553.215	145.509
553.267	145.57
553.319	134.99
553.371	120.853
553.423	117.366
553.475	131.652
553.528	121.006
553.58	112.103
553.632	106.729
553.684	119.115
553.736	115.485
553.788	101.213
553.841	102.95
553.893	94.0657
553.945	110.057
553.997	99.4413
554.049	103.035
554.102	120.842
554.154	110.203
554.206	103.101
554.258	106.651
554.31	111.972
554.362	108.403
554.414	101.278
554.467	101.256
554.519	106.554
554.571	95.8635
554.623	104.697
554.675	102.884
554.727	108.173
554.78	108.151
554.832	99.271
554.884	97.4805
554.936	102.768
554.988	100.952
555.04	88.5042
555.093	106.138
555.145	106.073
555.197	102.48
555.249	95.3657
555.301	111.206
555.353	107.617
555.406	91.6754
555.458	105.688
555.51	112.621
555.562	101.953
555.614	96.5775
555.666	108.766
555.719	117.448
555.771	110.377
555.823	105.087
555.875	115.58
555.927	108.57
555.979	112.068
556.031	106.799
556.084	112.016
556.136	120.705
556.188	108.39
556.24	96.0889
556.292	116.99
556.344	113.46
556.396	118.69
556.449	111.726
556.501	115.25
556.553	111.788
556.605	106.565
556.657	118.791
556.709	113.53
556.762	110.006
556.814	120.447
556.866	108.202
556.918	122.146
556.97	113.418
557.022	108.196
557.074	130.915
557.127	118.742
557.179	117.055
557.231	122.369
557.283	125.945
557.335	119.023
557.387	120.843
557.439	115.649
557.492	124.47
557.544	133.296
557.596	117.567
557.648	122.896
557.7	121.21
557.752	123.043
557.804	123.123
557.856	121.443
557.909	125.043
557.961	118.069
558.013	118.139
558.065	112.916
558.117	128.875
558.169	128.96
558.221	127.277
558.273	129.116
558.326	132.7
558.378	123.858
558.43	129.128
558.482	134.36
558.534	130.739
558.586	128.905
558.638	125.345
558.691	114.765
558.743	132.47
558.795	127.229
558.847	120.204
558.899	129.058
558.951	118.429
559.003	118.375
559.055	132.425
559.108	144.676
559.16	142.796
559.212	142.668
559.264	126.689
559.316	133.576
559.368	133.414
559.42	126.24
559.472	124.353
559.525	132.998
559.577	136.417
559.629	136.361
559.681	136.312
559.733	132.754
559.785	139.64
559.837	139.499
559.889	142.806
559.941	133.914
559.994	144.154
560.046	111.019
560.098	133.429
560.15	138.498
560.202	129.721
560.254	133.04
560.306	143.226
560.358	141.291
560.41	142.783
560.463	140.831
560.515	138.903
560.567	135.293
560.619	128.297
560.671	135.003
560.723	139.991
560.775	127.904
560.827	131.163
560.879	134.411
560.932	142.76
560.984	125.65
561.036	135.746
561.088	150.947
561.14	147.503
561.192	138.973
561.244	132.128
561.296	145.585
561.348	152.247
561.4	148.765
561.453	143.627
561.505	146.981
561.557	146.997
561.609	157.184
561.661	147.097
561.713	152.213
561.765	162.383
561.817	153.926
561.869	150.535
561.921	148.84
561.974	150.544
562.026	164.106
562.078	152.297
562.13	159.095
562.182	145.567
562.234	152.336
562.286	154.02
562.338	154.022
562.39	152.354
562.442	145.634
562.494	154.181
562.547	149.19
562.599	167.942
562.651	156.151
562.703	156.22
562.755	171.564
562.807	164.822
562.859	154.678
562.911	163.236
562.963	173.509
563.015	173.583
563.067	166.848
563.12	177.136
563.172	175.495
563.224	161.911
563.276	167.058
563.328	170.484
563.38	180.714
563.432	172.175
563.484	155.107
563.536	177.238
563.588	184.025
563.64	185.698
563.692	185.659
563.744	190.71
563.797	182.113
563.849	175.206
563.901	166.599
563.953	185.197
564.005	197.011
564.057	196.97
564.109	186.774
564.161	193.574
564.213	193.574
564.265	164.681
564.317	183.284
564.369	188.255
564.421	183.017
564.474	189.62
564.526	182.671
564.578	189.252
564.63	185.684
564.682	182.108
564.734	180.204
564.786	178.286
564.838	194.841
564.89	192.911
564.942	182.637
564.994	200.879
565.046	180.657
565.098	195.587
565.15	183.766
565.202	191.97
565.255	173.437
565.307	188.221
565.359	168.007
565.411	189.363
565.463	172.513
565.515	192.17
565.567	186.984
565.619	191.754
565.671	189.933
565.723	189.785
565.775	184.704
565.827	210.95
565.879	195.987
565.931	197.492
565.983	198.979
566.035	210.305
566.087	175.637
566.139	183.67
566.192	183.504
566.244	186.626
566.296	184.851
566.348	199.436
566.4	197.665
566.452	200.787
566.504	195.735
566.556	208.608
566.608	210.059
566.66	195.248
566.712	201.615
566.764	196.628
566.816	191.676
566.868	204.621
566.92	189.987
566.972	202.983
567.024	211.129
567.076	193.303
567.128	198.221
567.18	203.139
567.232	209.674
567.285	204.82
567.337	214.589
567.389	199.975
567.441	204.883
567.493	198.429
567.545	206.634
567.597	213.23
567.649	224.717
567.701	197.105
567.753	224.862
567.805	218.397
567.857	202.15
567.909	226.675
567.961	218.61
568.013	225.242
568.065	215.552
568.117	205.8
568.169	213.87
568.221	218.722
568.273	217.305
568.325	221.886
568.377	226.61
568.429	220.925
568.481	218.025
568.533	206.149
568.585	235.734
568.637	227.898
568.69	234.459
568.742	226.776
568.794	228.651
568.846	240.368
568.898	230.659
568.95	230.601
569.002	239.74
569.054	228.168
569.106	228.729
569.158	245.945
569.21	243.385
569.262	238.337
569.314	240.035
569.366	244.989
569.418	237.949
569.47	241.079
569.522	244.706
569.574	247.513
569.626	236.745
569.678	241.458
569.73	247.207
569.782	242.523
569.834	254.489
569.886	248.685
569.938	247.61
569.99	256.901
570.042	242.975
570.094	252.684
570.146	249.362
570.198	257.826
570.25	261.776
570.302	255.194
570.354	262.429
570.406	264.801
570.458	261.422
570.51	250.92
570.562	265.947
570.614	262.89
570.666	274.438
570.718	267.298
570.77	271.302
570.822	262.074
570.874	273.751
570.926	270.834
570.978	267.036
571.03	278.921
571.082	268.422
571.134	272.015
571.186	274.91
571.238	282.983
571.29	281.219
571.342	283.836
571.394	287.653
571.446	282.374
571.498	294.549
571.55	291.193
571.602	299.245
571.654	297.955
571.706	295.612
571.758	296.093
571.81	306.279
571.862	318.875
571.914	307.771
571.966	313.717
572.018	311.36
572.07	321.247
572.122	325.024
572.174	321.82
572.226	325.589
572.278	336.664
572.33	321.314
572.382	336.017
572.434	327.012
572.486	343.247
572.538	353.606
572.59	352.413
572.642	352.309
572.694	362.888
572.746	352.985
572.798	372.139
572.85	364.003
572.902	371.69
572.954	376.832
573.006	368.571
573.058	376.078
573.11	397.419
573.162	394.567
573.214	393.594
573.266	404.221
573.312	397.36
573.364	406.628
573.416	417.458
573.469	428.301
573.521	442.248
573.573	442.281
573.625	436.113
573.677	431.453
573.73	448.38
573.782	460.594
573.834	449.579
573.886	471.005
573.938	472.413
573.991	486.296
574.043	500.338
574.095	486.716
574.147	521.071
574.199	543.055
574.252	520.028
574.304	540.115
574.356	541.396
574.408	542.491
574.46	545.051
574.513	561.543
574.565	584.282
574.617	604.002
574.669	582.166
574.721	611.157
574.774	606.243
574.826	622.829
574.878	616.319
574.93	625.179
574.982	637.12
575.035	646.005
575.087	624.219
575.139	660.707
575.191	634.333
575.243	650.869
575.296	655.159
575.348	676.304
575.4	665.329
575.452	678.81
575.504	686.116
575.556	675.019
575.609	682.2
575.661	683.272
575.713	698.132
575.765	710.055
575.817	684.023
575.87	685.504
575.922	709.84
575.974	659.464
576.026	680.545
576.078	672.571
576.131	670.612
576.183	692.966
576.235	660.679
576.287	663.436
576.339	670.838
576.391	658.577
576.444	635.725
576.496	646.246
576.548	624.881
576.6	614.097
576.652	607.824
576.705	596.969
576.757	599.721
576.809	597.909
576.861	579.451
576.913	591.266
576.965	569.842
577.018	577.176
577.07	554.332
577.122	561.734
577.174	570.67
577.226	556.983
577.279	549.356
577.331	531.182
577.383	519.057
577.435	522.024
577.487	537.051
577.539	517.361
577.592	499.154
577.644	518.609
577.696	521.437
577.748	513.693
577.8	499.926
577.852	498.221
577.905	479.988
577.957	493.378
578.009	476.697
578.061	478.067
578.113	470.406
578.165	459.729
578.218	467.069
578.27	468.391
578.322	465.209
578.374	450.028
578.426	463.34
578.478	451.137
578.531	456.886
578.583	453.601
578.635	433.823
578.687	463.368
578.739	468.949
578.791	452.129
578.844	442.793
578.896	426.028
578.948	428.64
579	446.116
579.052	424.922
579.104	437.892
579.157	433.019
579.209	447.382
579.261	452.798
579.313	430.082
579.365	445.771
579.417	437.823
579.47	432.853
579.522	433.816
579.574	427.494
579.626	441.804
579.678	416.562
579.73	441.244
579.782	430.761
579.835	437.847
579.887	437.568
579.939	422.612
579.991	442.697
580.043	433.52
580.095	434.566
580.148	431.266
580.2	425.106
580.252	420.462
580.304	426.041
580.356	433.088
580.408	437.219
580.46	442.784
580.513	441.077
580.565	437.928
580.617	429.011
580.669	437.529
580.721	440.292
580.773	430.057
580.826	431.427
580.878	442.934
580.93	416.807
580.982	425.417
581.034	441.263
581.086	442.646
581.138	428.125
581.191	436.75
581.243	465.623
581.295	436.668
581.347	459.796
581.399	456.937
581.451	449.778
581.503	433.953
581.556	458.617
581.608	451.406
581.66	455.707
581.712	449.836
581.764	430.944
581.816	452.583
581.868	461.281
581.92	441.132
581.973	454.289
582.025	431.261
582.077	464.61
582.129	468.917
582.181	473.132
582.233	448.367
582.285	464.106
582.338	461.097
582.39	469.727
582.442	475.537
582.494	459.707
582.546	472.793
582.598	458.375
582.65	462.7
582.703	477.086
582.755	482.746
582.807	473.929
582.859	481.011
582.911	485.229
582.963	467.827
583.015	493.779
583.067	486.539
583.12	483.616
583.172	490.759
583.224	486.301
583.276	473.145
583.328	480.16
583.38	474.195
583.432	495.614
583.484	488.209
583.537	475.016
583.589	491.976
583.641	493.001
583.693	483.874
583.745	477.575
583.797	482.749
583.849	492.263
583.901	501.866
583.953	508.714
584.006	512.785
584.058	504.03
584.11	509.512
584.162	486.366
584.214	497.339
584.266	496.792
584.318	499.017
584.37	506.892
584.423	506.266
584.475	507.12
584.527	523.618
584.579	518.952
584.631	508.697
584.683	508.371
584.735	512.283
584.787	526.046
584.839	534.121
584.892	532.286
584.944	516.345
584.996	491.963
585.048	532.201
585.1	507.826
585.152	533.982
585.204	548.947
585.256	521.984
585.308	534.285
585.361	535.444
585.413	528.241
585.465	543.385
585.517	531.953
585.569	548.404
585.621	527.16
585.673	539.404
585.725	539.15
585.777	527.841
585.83	561.202
585.882	550.104
585.934	540.478
585.986	536.467
586.038	560.337
586.09	543.754
586.142	548.023
586.194	546.649
586.246	552.198
586.298	564.705
586.351	557.727
586.403	559.193
586.455	588.657
586.507	587.531
586.559	547.351
586.611	576.959
586.663	564.586
586.715	575.854
586.767	563.255
586.819	561.774
586.872	578.455
586.924	575.631
586.976	579.889
587.028	594.032
587.08	584.484
587.132	569.352
587.184	573.768
587.236	576.722
587.288	576.8
587.34	579.615
587.392	583.794
587.445	589.363
587.497	582.344
587.549	590.734
587.601	571.127
587.653	585.096
587.705	579.432
587.757	594.724
587.809	575.009
587.861	595.864
587.913	588.764
587.965	588.697
588.018	594.261
588.07	569.086
588.122	591.445
588.174	595.588
588.226	587.078
588.278	588.265
588.33	596.342
588.382	607.124
588.434	582.977
588.486	581.154
588.538	589.112
588.59	585.975
588.642	612.113
588.695	595.16
588.747	597.697
588.799	587.714
588.851	601.318
588.903	591.274
588.955	607.56
589.007	596.061
589.059	613.618
589.111	614.475
589.163	613.871
589.215	607.672
589.267	606.96
589.319	606.254
589.372	611.113
589.424	599.564
589.476	589.523
589.528	607.063
589.58	626.014
589.632	610.642
589.684	608.949
589.736	609.917
589.788	590.255
589.84	606.141
589.892	616.51
589.944	622.791
589.996	607.297
590.048	609.645
590.101	597.081
590.153	595.482
590.205	578.911
590.257	581.381
590.309	602.844
590.361	598.391
590.413	596.648
590.465	604.466
590.517	583.879
590.569	581.076
590.621	577.028
590.673	587.978
590.725	590.783
590.777	579.948
590.829	604.322
590.881	610.911
590.933	598.378
590.986	577.637
591.038	578.571
591.09	583.589
591.142	596.795
591.194	581.689
591.246	584.283
591.298	582.899
591.35	563.966
591.402	578.824
591.454	574.697
591.506	567.809
591.558	585.214
591.61	585.037
591.662	572.727
591.714	598.275
591.766	573.885
591.818	573.819
591.87	562.951
591.923	581.773
591.975	580.345
592.027	580.28
592.079	573.492
592.131	577.519
592.183	573.456
592.235	565.33
592.287	570.664
592.339	573.264
592.391	567.754
592.443	585.175
592.495	571.619
592.547	575.642
592.599	575.67
592.651	577.078
592.703	547.476
592.755	566.398
592.807	566.407
592.859	579.864
592.911	569.015
592.963	567.58
593.015	571.514
593.068	565.987
593.12	575.253
593.172	591.213
593.224	581.553
593.276	557.077
593.328	583.721
593.38	571.352
593.432	565.718
593.484	584.273
593.536	557.179
593.588	590.522
593.64	570.212
593.692	594.227
593.744	580.733
593.796	559.24
593.848	565.933
593.9	584.685
593.952	571.214
594.004	572.434
594.056	580.294
594.108	592.12
594.16	578.473
594.212	556.812
594.264	587.373
594.316	577.815
594.368	605.722
594.42	573.466
594.472	577.307
594.524	582.475
594.576	587.638
594.628	588.797
594.68	576.612
594.732	599.12
594.784	592.236
594.837	582.63
594.889	582.282
594.941	607.156
594.993	602.673
595.045	598.206
595.097	599.13
595.149	604.161
595.201	592.084
595.253	582.803
595.305	596.185
595.357	594.993
595.409	613.691
595.461	605.742
595.513	604.338
595.565	621.443
595.617	626.548
595.669	607.769
595.721	616.909
595.773	618.163
595.825	600.92
595.877	620.837
595.929	612.842
595.981	607.395
596.033	609.776
596.085	613.356
596.137	631.401
596.189	638.791
596.241	638.241
596.293	635.085
596.345	643.86
596.397	630.265
596.449	635.196
596.501	636.236
596.553	658.423
596.605	664.885
596.657	646.41
596.709	635.885
596.761	622.738
596.813	633.265
596.865	638.482
596.917	650.238
596.969	652.764
597.021	644.777
597.073	636.824
597.125	639.424
597.177	632.813
597.229	639.319
597.281	654.963
597.333	638.974
597.385	641.357
597.437	618.787
597.489	627.812
597.541	646.122
597.593	638.264
597.645	650.174
597.697	617.436
597.749	658.219
597.801	652.929
597.853	627.834
597.905	615.808
597.957	651.022
598.009	636.399
598.061	654.684
598.113	648.169
598.165	633.89
598.217	636.726
598.269	634.3
598.321	659.385
598.373	650.22
598.425	597.623
598.477	646.124
598.529	631.604
598.581	644.725
598.633	629.03
598.685	617.316
598.737	652.888
598.789	625.362
598.841	652.959
598.893	630.605
598.945	651.637
598.997	630.72
599.049	625.699
599.101	626.062
599.153	656.781
599.205	645.406
599.257	641.86
599.309	648.744
599.361	643.633
599.413	635.778
599.465	643.69
599.517	662.144
599.569	635.779
599.62	658.274
599.672	661.048
599.724	640.128
599.776	662.813
599.828	656.483
599.88	648.822
599.932	649.048
599.984	643.915
600.036	649.275
600.088	650.592
600.14	639.965
600.192	666.363
600.244	651.825
600.296	665.131
600.348	649.424
600.4	644.342
600.452	649.845
600.504	665.893
600.556	660.674
600.608	647.408
600.66	619.497
600.712	651.097
600.764	632.396
600.816	654.739
600.868	654.657
600.92	673.167
600.972	649.423
601.024	664.073
601.076	637.717
601.128	661.606
601.18	652.382
601.232	659.007
601.284	651.05
601.335	661.587
601.387	660.169
601.439	667.943
601.491	645.215
601.543	660.737
601.595	665.589
601.647	659.812
601.699	628.956
601.751	641.621
601.803	643.747
601.855	623.53
601.907	655.954
601.959	651.591
602.011	669.609
602.063	648.304
602.115	657.251
602.167	646.558
602.219	666.013
602.271	657.857
602.323	652.197
602.375	646.392
602.427	649.614
602.478	667.111
602.53	658.491
602.582	646.064
602.634	652.01
602.686	635.979
602.738	633.076
602.79	630.238
602.842	645.595
602.894	650.517
602.946	647.585
602.998	660.157
603.05	662.296
603.102	642.393
603.154	662.649
603.206	636.347
603.258	663.115
603.31	655.007
603.362	667.589
603.413	678.87
603.465	646.269
603.517	644.633
603.569	677.792
603.621	640.107
603.673	656.578
603.725	651.23
603.777	653.688
603.829	645.926
603.881	645.933
603.933	666.537
603.985	676.815
604.037	675.443
604.089	640.547
604.141	663.473
604.193	668.37
604.244	660.455
604.296	656.487
604.348	675.754
604.4	661.716
604.452	683.717
604.504	667.173
604.556	664.741
604.608	657.136
604.66	654.668
604.712	688.246
604.764	666.564
604.816	688.689
604.868	672.225
604.92	668.616
604.971	682.997
605.023	665.101
605.075	667.784
605.127	653.708
605.179	660.309
605.231	678.599
605.283	660.838
605.335	648.261
605.387	678.289
605.439	685.008
605.491	682.582
605.543	654.208
605.594	664.573
605.646	684.009
605.698	677.664
605.75	662.377
605.802	691.196
605.854	670.901
605.906	667.425
605.958	675.536
606.01	687.404
606.062	677.059
606.114	651.006
606.166	665.062
606.217	684.262
606.269	676.275
606.321	685.208
606.373	677.388
606.425	682.595
606.477	696.885
606.529	669.696
606.581	677.421
606.633	690.255
606.685	673.242
606.737	687.265
606.789	672.806
606.84	673.898
606.892	681.492
606.944	669.733
606.996	674.816
607.048	682.501
607.1	660.454
607.152	666.815
607.204	678.291
607.256	671.611
607.308	680.351
607.359	683.852
607.411	675.695
607.463	690.731
607.515	687.744
607.567	673.228
607.619	679.376
607.671	673.995
607.723	668.646
607.775	683.865
607.827	670.783
607.878	684.657
607.93	680.519
607.982	689.2
608.034	679.892
608.086	692.362
608.138	688.119
608.19	681.276
608.242	693.606
608.294	671.392
608.345	681.201
608.397	707.689
608.449	665.305
608.501	676.658
608.553	703.384
608.605	685.436
608.657	670.004
608.709	674.918
608.761	687.402
608.812	684.519
608.864	708.371
608.916	686.377
608.968	688.64
609.02	697.335
609.072	697.193
609.124	695.841
609.176	693.26
609.228	704.696
609.279	690.701
609.331	699.602
609.383	712.312
609.435	725.015
609.487	702.099
609.539	689.361
609.591	722.419
609.643	698.256
609.694	710.993
609.746	730.103
609.798	718.688
609.85	691.994
609.902	698.341
609.954	704.639
610.006	710.873
610.058	715.766
610.109	738.385
610.161	708.85
610.213	728.83
610.265	720.857
610.317	720.512
610.369	707.518
610.421	707.253
610.473	728.584
610.524	710.693
610.576	732.125
610.628	691.528
610.68	737.07
610.732	701.555
610.784	724.282
610.836	717.878
610.887	717.812
610.939	719.039
610.991	725.362
611.043	719.055
611.095	735.541
611.147	716.553
611.199	730.425
611.25	715.105
611.302	704.772
611.354	714.611
611.406	738.291
611.458	721.481
611.51	743.828
611.562	734.611
611.614	744.355
611.665	755.386
611.717	717.27
611.769	723.286
611.821	716.67
611.873	726.376
611.925	724.706
611.977	748.177
612.028	737.716
612.08	744.913
612.132	725.805
612.184	719.307
612.236	740.412
612.288	728.806
612.339	681.979
612.391	726.524
612.443	709.558
612.495	755.1
612.547	736.915
612.599	736.376
612.651	733.528
612.702	765.775
612.754	732.032
612.806	733.231
612.858	730.625
612.91	752.824
612.962	739.98
613.013	734.504
613.065	747.632
613.117	708.53
613.169	735.357
613.221	746.07
613.273	730.764
613.325	714.25
613.376	738.633
613.428	734.453
613.48	740.122
613.532	734.608
613.584	755.034
613.635	753.216
613.687	751.432
613.739	768.182
613.791	746.734
613.843	763.488
613.895	760.514
613.947	752.605
613.998	760.681
614.05	742.99
614.102	758.527
614.154	764.329
614.206	756.736
614.258	768.852
614.309	750.372
614.361	771.154
614.413	783.353
614.465	761.216
614.517	768.479
614.568	773.265
614.62	759.639
614.672	785.176
614.724	765.344
614.776	780.982
614.828	740.296
614.879	757.133
614.931	758.094
614.983	762.776
615.035	789.513
615.087	774.735
615.139	770.968
615.19	781.838
615.242	775.561
615.294	803.433
615.346	777.551
615.398	788.289
615.449	794.152
615.501	769.535
615.553	788.82
615.605	798.318
615.657	791.931
615.709	789.17
615.76	758.398
615.812	769.038
615.864	765.104
615.916	789.176
615.968	787.73
616.019	814.031
616.071	791.591
616.123	782.669
616.175	804.443
616.227	797.569
616.278	807.378
616.33	817.089
616.382	804.372
616.434	797.377
616.486	800.797
616.537	804.327
616.589	807.341
616.641	803.691
616.693	812.823
616.745	792.506
616.797	803.522
616.848	809.057
616.9	777.282
616.952	807.794
617.004	774.527
617.056	802.335
617.107	799.187
617.159	797.826
617.211	795.913
617.263	785.633
617.315	787.254
617.366	790.837
617.418	792.605
617.47	797.271
617.522	805.645
617.573	822.164
617.625	796.395
617.677	797.492
617.729	807.827
617.781	815.353
617.832	814.449
617.884	806.692
617.936	807.315
617.988	809.481
618.04	806.706
618.091	818.234
618.143	817.08
618.195	820.78
618.247	817.208
618.299	821.316
618.35	805.936
618.402	808.161
618.454	810.419
618.506	805.574
618.557	807.747
618.609	818.055
618.661	820.545
618.713	800.89
618.765	815.424
618.816	822.821
618.868	816.56
618.92	820.848
618.972	821.954
619.023	836.425
619.075	826.697
619.127	812.66
619.179	833.87
619.231	827.106
619.282	837.088
619.334	821.792
619.386	817.565
619.438	819.533
619.49	835.453
619.541	814.91
619.593	823.682
619.645	821.499
619.697	842.371
619.748	829.941
619.8	808.324
619.852	830.627
619.904	829.341
619.955	830.872
620.007	828.715
620.059	830.772
620.111	831.331
620.162	827.34
620.214	819.381
620.266	836.092
620.318	829.08
620.37	824.922
620.421	832.023
620.473	828.924
620.525	824.724
620.577	824.454
620.628	828.868
620.68	853.651
620.732	842.066
620.784	832.966
620.835	822.355
620.887	826.63
620.939	840.47
620.991	829.954
621.042	823.732
621.094	826.089
621.146	828.864
621.198	834.515
621.249	837.945
621.269	838.427
621.321	849.659
621.373	847.873
621.425	835.519
621.477	811.5
621.529	832.118
621.581	841.082
621.633	837.242
621.685	839.343
621.737	830.991
621.789	834.423
621.841	825.053
621.893	863.723
621.945	819.334
621.997	841.673
622.049	835.902
622.101	837.107
622.153	832.377
622.205	820.518
622.257	842.478
622.309	853.772
622.361	827.551
622.413	845.701
622.465	828.813
622.517	828.348
622.569	852.441
622.621	848.602
622.673	852.953
622.725	807.212
622.776	819.704
622.828	826.344
622.88	828.319
622.932	827.987
622.984	837
623.036	863.495
623.088	845.867
623.14	830.582
623.192	840.826
623.244	859.128
623.296	855.287
623.348	816.581
623.4	833.524
623.452	806.426
623.504	852.356
623.556	838.114
623.608	865.6
623.66	861.862
623.712	851.169
623.764	839.268
623.816	842.308
623.868	866.037
623.92	840.04
623.972	840.562
624.024	851.451
624.076	833.576
624.128	867.559
624.18	871.68
624.232	862.089
624.284	834.206
624.336	853.509
624.388	842.989
624.44	848.557
624.492	828.825
624.544	851.483
624.596	849.925
624.648	845.969
624.699	863.703
624.751	832.154
624.803	844.127
624.855	877.843
624.907	857.884
624.959	856.266
625.011	853.544
625.063	853.122
625.115	853.851
625.167	861.429
625.219	854.22
625.271	851.613
625.323	850.195
625.375	837.444
625.427	865.677
625.479	868.877
625.531	857.268
625.583	862.671
625.635	862.344
625.687	838.134
625.739	860.475
625.791	841.954
625.843	864.304
625.895	869.656
625.946	868.227
625.998	857.759
626.05	857.52
626.102	864.116
626.154	873.025
626.206	879.725
626.258	889.872
626.31	864.955
626.362	883.069
626.414	851.354
626.466	861.494
626.518	879.506
626.57	865.759
626.622	868.91
626.674	870.84
626.726	867.038
626.778	867.72
626.83	879.724
626.882	873.764
626.934	871.366
626.985	895.124
627.037	851.309
627.089	871.918
627.141	867.65
627.193	894.893
627.245	877.894
627.297	887.847
627.349	902.207
627.401	882.673
627.453	890.285
627.505	877.677
627.557	876.44
627.609	878.633
627.661	886.455
627.713	896.474
627.765	890.62
627.817	909.488
627.868	891.131
627.92	886.322
627.972	884.941
628.024	899.367
628.076	893.552
628.128	893.36
628.18	878.517
628.232	880.527
628.284	871.3
628.336	869.995
628.388	893.499
628.44	881.132
628.492	877.832
628.544	910.534
628.596	882.521
628.647	902.801
628.699	924.155
628.751	882.519
628.803	902.716
628.855	891.463
628.907	901.602
628.959	916.261
629.011	905.06
629.063	918.569
629.115	916.3
629.167	905.002
629.219	902.676
629.271	941.926
629.322	926.084
629.374	918.09
629.426	934.778
629.478	914.338
629.53	945.509
629.582	927.219
629.634	945.938
629.686	907.42
629.738	902.558
629.79	923.468
629.842	934.269
629.894	930.502
629.945	911.083
629.997	917.454
630.049	918.295
630.101	921.453
630.153	919.091
630.205	934.661
630.257	951.343
630.309	915.442
630.361	934.244
630.413	936.211
630.465	932.551
630.517	925.544
630.568	929.746
630.62	938.479
630.672	943.939
630.724	933.838
630.776	937.15
630.828	947.138
630.88	941.449
630.932	957.978
630.984	932.028
631.036	937.198
631.088	958.987
631.14	941.739
631.191	962.327
631.243	940.673
631.295	934.672
631.347	974.318
631.399	948.509
631.451	957.218
631.503	932.668
631.555	959.218
631.607	950.241
631.659	942.365
631.71	935.586
631.762	977.617
631.814	945.27
631.866	978.331
631.918	952.531
631.97	954.373
632.022	987.159
632.074	962.29
632.126	972.891
632.178	975.84
632.229	977.845
632.281	980.036
632.333	977.964
632.385	958.282
632.437	975.126
632.489	993.018
632.541	973.157
632.593	1001.89
632.645	985.163
632.696	988.33
632.748	994.833
632.8	998.054
632.852	1007.94
632.904	1011.18
632.956	1001.11
633.008	988.746
633.06	999.513
633.112	1005.78
633.164	994.334
633.215	988.469
633.267	1004.79
633.319	1001.34
633.371	994.682
633.423	1016.79
633.475	1019.04
633.527	1014.61
633.579	996.85
633.63	1011.02
633.682	1014.08
633.734	1025.94
633.786	1038.92
633.838	991.286
633.89	1026.4
633.942	1029.54
633.994	1013.92
634.046	1020.28
634.097	1047.51
634.149	1024.05
634.201	1048
634.253	1041.23
634.305	1042.34
634.357	1054.64
634.409	1034.06
634.461	1052.1
634.512	1059.14
634.564	1077.13
634.616	1068.56
634.668	1078.59
634.72	1058.72
634.772	1092.75
634.824	1069.35
634.876	1056.9
634.927	1077.49
634.979	1104.71
635.031	1085.76
635.083	1076.85
635.135	1082.4
635.187	1075.94
635.239	1084.92
635.291	1107.08
635.342	1115.9
635.394	1093.75
635.446	1105.63
635.498	1100.93
635.55	1133.67
635.602	1123.54
635.654	1133.31
635.705	1134.35
635.757	1162.93
635.809	1175.01
635.861	1159.55
635.913	1161.63
635.965	1183.46
636.017	1174.49
636.068	1176.57
636.12	1193.03
636.172	1207.42
636.224	1208.72
636.276	1233.16
636.328	1227.84
636.38	1246.54
636.431	1256.19
636.483	1245.77
636.535	1274.73
636.587	1259.67
636.639	1252.39
636.691	1290.33
636.743	1327.46
636.794	1314.44
636.846	1325.78
636.898	1364.68
636.95	1384.89
637.002	1392.86
637.054	1390.7
637.106	1424.53
637.157	1408.71
637.209	1437.78
637.261	1433.88
637.313	1442.13
637.365	1455.98
637.417	1451.32
637.469	1445.68
637.52	1479.54
637.572	1487.1
637.624	1449.71
637.676	1493.4
637.728	1499.85
637.78	1509.66
637.831	1517.36
637.883	1484.61
637.935	1549.44
637.987	1527.75
638.039	1504.94
638.091	1508.39
638.143	1515.05
638.194	1541.33
638.246	1519.22
638.298	1511.2
638.35	1499.75
638.402	1492.58
638.454	1513.84
638.505	1498.99
638.557	1479.88
638.609	1490.44
638.661	1430.07
638.713	1433.26
638.765	1471.53
638.816	1457.4
638.868	1413.76
638.92	1440.05
638.972	1407.2
639.024	1397.16
639.076	1407.73
639.127	1401.76
639.179	1381.55
639.231	1357.04
639.283	1379.62
639.335	1369.63
639.387	1352.18
639.438	1347.93
639.49	1337.15
639.542	1355.8
639.594	1350.36
639.646	1315.41
639.698	1304.46
639.749	1317.55
639.801	1335.01
639.853	1329.51
639.905	1329.38
639.957	1306.19
640.008	1305.8
640.06	1318.4
640.112	1295.04
640.164	1297.96
640.216	1311.97
640.268	1297.9
640.319	1294.96
640.371	1302.01
640.423	1281.9
640.475	1287.95
640.527	1266.61
640.578	1273.48
640.63	1287.78
640.682	1292.05
640.734	1277.57
640.786	1283.73
640.838	1277.85
640.889	1238.21
640.941	1279.4
640.993	1274.87
641.045	1248.62
641.097	1265.99
641.148	1283.29
641.2	1273.22
641.252	1251.04
641.304	1258.2
641.356	1252.31
641.408	1238.9
641.459	1242
641.511	1273.59
641.563	1256.31
641.615	1268.43
641.667	1232.54
641.718	1245.47
641.77	1256.03
641.822	1240.34
641.874	1284.45
641.926	1251.41
641.977	1251.17
642.029	1266.34
642.081	1256.68
642.133	1257.98
642.185	1256.04
642.236	1251.87
642.288	1258.47
642.34	1253
642.392	1258.3
642.444	1263.53
642.495	1246.99
642.547	1230.47
642.599	1272.67
642.651	1260.56
642.703	1264.76
642.754	1264.58
642.806	1274.11
642.858	1254.23
642.91	1255.99
642.962	1254.44
643.013	1266.99
643.065	1273.05
643.117	1274.81
643.169	1262.53
643.221	1260.01
643.272	1282.39
643.324	1266.81
643.376	1280.41
643.428	1261.54
643.479	1264.34
643.531	1282.37
643.583	1290.8
643.635	1301.57
643.687	1259.51
643.738	1286.73
643.79	1253.36
643.842	1273.94
643.894	1266.2
643.946	1291.78
643.997	1284.76
644.049	1262.53
644.101	1272.72
644.153	1239.81
644.205	1286.87
644.256	1275.8
644.308	1254.04
644.36	1249.58
644.412	1252.7
644.463	1295.74
644.515	1286
644.567	1289.27
644.619	1305.54
644.671	1275.48
644.722	1274.52
644.774	1277.82
644.826	1265.97
644.878	1300.45
644.929	1288.57
644.981	1292.91
645.033	1309.14
645.085	1293
645.136	1301.58
645.188	1285.25
645.24	1308.7
645.292	1291.14
645.344	1288.75
645.395	1313.43
645.447	1281.21
645.499	1281.47
645.551	1302.31
645.602	1301.61
645.654	1276.07
645.706	1291.49
645.758	1305.87
645.81	1298.75
645.861	1299.31
645.913	1290.26
645.965	1306.11
646.017	1317.6
646.068	1352.78
646.12	1345.56
646.172	1333.79
646.224	1298
646.275	1299.95
646.327	1302.88
646.379	1311.18
646.431	1318.42
646.482	1323.56
646.534	1312.61
646.586	1295.29
646.638	1296.46
646.689	1306.32
646.741	1318.33
646.793	1279.44
646.845	1355.11
646.896	1322.58
646.948	1319.25
647	1347.35
647.052	1331.18
647.104	1335.62
647.155	1316.24
647.207	1342.17
647.259	1359.28
647.31	1323.22
647.362	1319.46
647.414	1357.78
647.466	1339.98
647.518	1330.96
647.569	1325.37
647.621	1337.21
647.673	1362.09
647.724	1334.1
647.776	1327.61
647.828	1330.71
647.88	1353.1
647.931	1343.03
647.983	1345.91
648.035	1344.55
648.087	1375.68
648.138	1327.19
648.19	1349.99
648.242	1363.15
648.294	1366.59
648.345	1348.37
648.397	1356.98
648.449	1360.06
648.501	1374.88
648.552	1378.82
648.604	1336.36
648.656	1367.15
648.708	1372.07
648.759	1360.84
648.811	1363.67
648.863	1339.67
648.915	1348.06
648.966	1371.61
649.018	1345.74
649.07	1395.19
649.121	1377.88
649.173	1372.3
649.225	1383.81
649.277	1388.78
649.328	1382.99
649.38	1405.2
649.432	1395.26
649.484	1389.72
649.535	1377.77
649.587	1391.57
649.639	1400.98
649.69	1410.25
649.742	1394.73
649.794	1390.98
649.846	1386.19
649.897	1376.14
649.949	1405.88
650.001	1389.68
650.053	1414.31
650.104	1421.85
650.156	1426.2
650.208	1399.48
650.259	1408.12
650.311	1391.07
650.363	1390.14
650.415	1432.18
650.466	1429.29
650.518	1405.03
650.57	1431.23
650.621	1444.57
650.673	1396.66
650.725	1415.19
650.777	1419.62
650.828	1434.63
650.88	1416.23
650.932	1418.14
650.984	1447.96
651.035	1426.33
651.087	1462.76
651.139	1417.77
651.19	1453.39
651.242	1447.19
651.294	1424.86
651.345	1426.09
651.397	1437.97
651.449	1430.49
651.501	1450.97
651.552	1462.97
651.604	1467.63
651.656	1441.26
651.707	1466.55
651.759	1479.98
651.811	1482.5
651.863	1492.35
651.914	1464.33
651.966	1508.26
652.018	1462.86
652.069	1471.31
652.121	1499.22
652.173	1493.93
652.224	1462.92
652.276	1475
652.328	1470.98
652.38	1466.99
652.431	1480.28
652.483	1497.96
652.535	1478
652.586	1504.37
652.638	1525.29
652.69	1509.38
652.741	1509.4
652.793	1504.84
652.845	1510.87
652.897	1484.51
652.948	1506.71
653	1522.61
653.052	1557.06
653.103	1524.93
653.155	1523.05
653.207	1546.96
653.258	1520.06
653.31	1525.23
653.362	1531.22
653.413	1547.77
653.465	1512.57
653.517	1560.21
653.568	1540.19
653.62	1555.78
653.672	1545.72
653.724	1550.78
653.775	1536.51
653.827	1543.64
653.879	1572.1
653.93	1531.76
653.982	1575.02
654.034	1551.82
654.085	1541.62
654.137	1573.38
654.189	1563.51
654.24	1563.33
654.292	1584.47
654.344	1590.39
654.395	1565.01
654.447	1568.29
654.499	1554.38
654.55	1556.53
654.602	1578.01
654.654	1553.76
654.705	1587.18
654.757	1561.95
654.809	1611.19
654.86	1600.66
654.912	1589.02
654.964	1594.48
655.016	1617.11
655.067	1616.61
655.119	1598.27
655.17	1608.76
655.222	1617.15
655.274	1641.38
655.326	1604.94
655.377	1626.71
655.429	1621.77
655.481	1635.78
655.532	1639.1
655.584	1678.42
655.635	1635.24
655.687	1638.86
655.739	1617.35
655.79	1676.51
655.842	1647.04
655.894	1654.65
655.945	1674.88
655.997	1667.37
656.049	1652.18
656.1	1663.22
656.152	1653.02
656.204	1694.65
656.255	1681.48
656.307	1677.99
656.359	1696.78
656.41	1680.73
656.462	1695.2
656.514	1682.07
656.565	1697.32
656.617	1719.91
656.669	1691.96
656.72	1669.46
656.772	1714.62
656.824	1708.33
656.875	1708.52
656.927	1684.58
656.979	1696.6
657.03	1730.88
657.082	1686.19
657.134	1710.19
657.185	1750.11
657.237	1716.05
657.288	1752.61
657.34	1721.25
657.392	1739.25
657.443	1744.3
657.495	1735.47
657.547	1725.59
657.598	1760.23
657.65	1724.31
657.702	1731.93
657.753	1741.85
657.805	1770.89
657.857	1721.71
657.908	1748.63
657.96	1780.83
658.011	1763.32
658.063	1755.39
658.115	1767.68
658.166	1759.94
658.218	1753.33
658.27	1785.94
658.321	1756.96
658.373	1797.87
658.425	1802.56
658.476	1780.59
658.528	1779.8
658.579	1800.26
658.631	1780.44
658.683	1829.73
658.734	1777.04
658.786	1822.11
658.838	1839.51
658.889	1773.93
658.941	1822.16
658.992	1817.31
659.044	1808.36
659.096	1808.11
659.147	1797.35
659.199	1828.24
659.251	1822.87
659.302	1820.58
659.354	1821.32
659.406	1836.81
659.457	1805.12
659.509	1806.33
659.56	1806.29
659.612	1814.61
659.664	1819.52
659.715	1841.33
659.767	1829.88
659.818	1806.61
659.87	1832.39
659.922	1799.63
659.973	1816.02
660.025	1818.72
660.077	1828.02
660.128	1788.56
660.18	1819.57
660.231	1845.44
660.283	1838.41
660.335	1831.34
660.386	1825.16
660.438	1810.16
660.49	1841.71
660.541	1817.56
660.593	1827.33
660.644	1825.37
660.696	1836.28
660.748	1815.46
660.799	1838.36
660.851	1826.21
660.902	1806.55
660.954	1792.08
661.006	1824.16
661.057	1809.46
661.109	1795.83
661.16	1814.04
661.212	1795.24
661.264	1796.63
661.315	1813.9
661.367	1789.91
661.418	1793.43
661.47	1815.99
661.522	1793.16
661.573	1821.12
661.625	1803.74
661.676	1784.33
661.728	1847.31
661.78	1815.27
661.831	1807.49
661.883	1793.31
661.934	1829.67
661.986	1821.58
662.038	1813.33
662.089	1812.28
662.141	1794.2
662.192	1794.94
662.244	1806.12
662.296	1785.82
662.347	1812.91
662.399	1746.87
662.45	1774.42
662.502	1805.33
662.554	1821.73
662.605	1816.17
662.657	1772.83
662.708	1786.91
662.76	1765.14
662.811	1804.84
662.863	1776.34
662.915	1758.21
662.966	1776.62
663.018	1797.23
663.069	1768.07
663.121	1773.66
663.173	1780.65
663.224	1779.64
663.276	1792.37
663.327	1790.54
663.379	1798.98
663.43	1781.1
663.482	1786.84
663.534	1803.72
663.585	1798.57
663.637	1784.04
663.688	1803.92
663.74	1755.64
663.792	1780.01
663.843	1783.84
663.895	1742.41
663.946	1764.81
663.998	1774.63
664.049	1784.27
664.101	1754.18
664.153	1817.21
664.204	1806.5
664.256	1790.92
664.307	1773.7
664.359	1797.3
664.41	1785.61
664.462	1772.49
664.513	1796.52
664.565	1795.95
664.617	1774
664.668	1778.65
664.72	1783.43
664.771	1779.85
664.823	1786.24
664.874	1767.6
664.926	1796.45
664.978	1792.6
665.029	1780.51
665.081	1784
665.132	1784.94
665.184	1793.53
665.235	1770.41
665.287	1776.14
665.339	1783.83
665.39	1776.57
665.442	1788.77
665.493	1781.81
665.545	1779.38
665.596	1793.37
665.648	1788.06
665.699	1773.27
665.751	1765.32
665.802	1775.11
665.854	1771.08
665.906	1786.05
665.957	1793.54
666.009	1768.74
666.06	1772.87
666.112	1788.04
666.163	1787
666.215	1791.69
666.266	1781.66
666.318	1799.74
666.37	1798.15
666.421	1797.65
666.473	1795.33
666.524	1774.72
666.576	1784.55
666.627	1797.68
666.679	1798.07
666.73	1801.13
666.782	1772.73
666.833	1774.12
666.885	1760.88
666.937	1781.33
666.988	1777.25
667.04	1783.33
667.091	1788.77
667.143	1792.86
667.194	1793.82
667.246	1777.18
667.297	1760.92
667.349	1779.98
667.4	1786.53
667.452	1784.08
667.503	1775.6
667.555	1794.56
667.607	1807.42
667.658	1818.03
667.71	1787.54
667.761	1790.4
667.813	1783.19
667.864	1786.86
667.916	1781.22
667.967	1781.09
668.019	1792.69
668.07	1782.84
668.122	1782.42
668.173	1787.49
668.225	1784.68
668.276	1783.51
668.328	1786.61
668.379	1787.84
668.431	1801.62
668.482	1799.94
668.534	1802.34
668.586	1795.85
668.637	1799.47
668.689	1805.38
668.74	1800.52
668.792	1793.36
668.843	1815.29
668.895	1799.79
668.935	1774.12
668.987	1769.46
669.038	1836.91
669.09	1821.17
669.142	1789.75
669.194	1821.79
669.245	1821.26
669.297	1805.88
669.349	1797.7
669.401	1828.19
669.453	1802.51
669.504	1806.37
669.556	1793.82
669.608	1785.66
669.66	1830.92
669.711	1799.65
669.763	1794.28
669.815	1834.73
669.867	1812.02
669.918	1818.52
669.97	1811.4
670.022	1835.9
670.074	1821.82
670.125	1806.93
670.177	1817.41
670.229	1810.11
670.281	1838.49
670.332	1829.89
670.384	1831.54
670.436	1840.27
670.488	1822.37
670.539	1827.38
670.591	1826.95
670.643	1791.69
670.695	1853.19
670.747	1834.78
670.798	1831.18
670.85	1855.03
670.902	1831.72
670.953	1841.09
671.005	1806.37
671.057	1836.79
671.109	1843.99
671.161	1833.2
671.212	1818.04
671.264	1819.54
671.316	1824.09
671.367	1846.45
671.419	1831.09
671.471	1765.55
671.523	1835.43
671.575	1801.72
671.626	1832.1
671.678	1825.9
671.73	1796.67
671.781	1828.21
671.833	1804.1
671.885	1836.5
671.937	1838.39
671.988	1833.93
672.04	1806.43
672.092	1848.16
672.144	1818.76
672.195	1791.58
672.247	1830.48
672.299	1822.23
672.351	1812.83
672.402	1847.27
672.454	1819.67
672.506	1858.96
672.558	1843.69
672.609	1814.83
672.661	1830
672.713	1822.24
672.765	1839.62
672.816	1817.2
672.868	1833.29
672.92	1805.24
672.971	1830.21
673.023	1834.08
673.075	1823.3
673.127	1820.97
673.178	1845.97
673.23	1792.19
673.282	1858.41
673.334	1805.14
673.385	1858.03
673.437	1847.31
673.489	1847.81
673.54	1836.66
673.592	1850.33
673.644	1828.71
673.696	1857.08
673.747	1847.26
673.799	1816.88
673.851	1864.43
673.903	1843.5
673.954	1832.84
674.006	1862.49
674.058	1842.2
674.109	1829.06
674.161	1845.89
674.213	1881.26
674.265	1857.53
674.316	1855.44
674.368	1849.14
674.42	1836.6
674.471	1856.14
674.523	1823.21
674.575	1868.97
674.627	1876.89
674.678	1854.18
674.73	1842
674.782	1903.13
674.833	1849.67
674.885	1918.76
674.937	1863.8
674.989	1891.1
675.04	1860.54
675.092	1876.37
675.144	1898.53
675.195	1903.42
675.247	1905.51
675.299	1868.72
675.351	1858.87
675.402	1876.94
675.454	1899.16
675.506	1835.79
675.557	1876.58
675.609	1890.58
675.661	1894.3
675.713	1902.18
675.764	1890.48
675.816	1878.79
675.868	1901.22
675.919	1896.8
675.971	1885.18
676.023	1918.1
676.074	1878.61
676.126	1891.95
676.178	1899.1
676.23	1914.58
676.281	1914.53
676.333	1897.92
676.385	1903.17
676.436	1907.44
676.488	1909.65
676.54	1945.16
676.591	1934.83
676.643	1926.48
676.695	1916.98
676.747	1910.53
676.798	1925.93
676.85	1912.13
676.902	1899.41
676.953	1942.12
677.005	1954.64
677.057	1926.47
677.108	1933.89
677.16	1947.62
677.212	1933.05
677.263	1923.64
677.315	1962.38
677.367	1947.55
677.419	1933.65
677.47	1937.52
677.522	1920.35
677.574	1942.04
677.625	1970.09
677.677	1932.98
677.729	1918.98
677.78	1923.89
677.832	1945.58
677.884	1941.94
677.935	1924.6
677.987	1914.68
678.039	1933.34
678.091	1936.31
678.142	1949.88
678.194	1972.86
678.246	1917.49
678.297	1923.04
678.349	1942.03
678.401	1948.21
678.452	1964.99
678.504	1934.48
678.556	1934.9
678.607	1957.79
678.659	1938.53
678.711	1963.55
678.762	1988.27
678.814	1956.51
678.866	1967.7
678.917	1973.32
678.969	1970.41
679.021	1950.7
679.072	1970.26
679.124	1928.76
679.176	1948.56
679.227	1929.23
679.279	1932.93
679.331	1971.22
679.382	1947.13
679.434	1952.54
679.486	1948.56
679.537	1965.79
679.589	1994.73
679.641	1957.42
679.692	1933.76
679.744	1945.79
679.796	1945.1
679.847	1970.63
679.899	1938.4
679.951	1978.75
680.003	1937.31
680.054	1941.11
680.106	1965.91
680.157	1910.89
680.209	1966.97
680.261	1965.19
680.312	1959.07
680.364	1973.81
680.416	1930.91
680.467	1941.42
680.519	1962.39
680.571	1981.29
680.622	1958.38
680.674	1950.15
680.726	1954.5
680.777	1945.37
680.829	1970.8
680.881	1974.47
680.932	1941.79
680.984	1946.75
681.036	1953.78
681.087	1965.88
681.139	1941.23
681.191	1975.63
681.242	1922.26
681.294	1965.48
681.346	1973.37
681.397	2009.57
681.449	1956.92
681.501	1975.38
681.552	1954.83
681.604	1929.32
681.656	1999.39
681.707	1968.53
681.759	1940.46
681.81	1953.6
681.862	1970.61
681.914	1976.08
681.965	1982.66
682.017	1963.52
682.069	1975.82
682.12	1980.14
682.172	2002.38
682.224	1969.8
682.275	1982.94
682.327	1975.27
682.379	1973.69
682.43	1970.85
682.482	1976.08
682.533	1997.69
682.585	2004.52
682.637	1977.98
682.688	1979.44
682.74	1958.15
682.792	2000.35
682.843	2007.56
682.895	1968.39
682.947	1991.74
682.998	1966.49
683.05	1970.36
683.102	1980.45
683.153	1953.04
683.205	1997.28
683.256	1964.56
683.308	1990.15
683.36	2003.4
683.411	2016.82
683.463	1967.89
683.515	1996.11
683.566	1990.97
683.618	2020.14
683.669	1990.67
683.721	1991.18
683.773	1970.51
683.824	1994.5
683.876	2003.71
683.928	1974.29
683.979	1954.4
684.031	1976.52
684.082	1968.64
684.134	1986.06
684.186	1981.66
684.237	2002.32
684.289	1968.46
684.341	1965.76
684.392	1970.22
684.444	1966.24
684.495	2007.31
684.547	1964.81
684.599	1968.57
684.65	1968.35
684.702	1979.8
684.754	1985.04
684.805	1986.07
684.857	1976.51
684.908	1944.74
684.96	1967.4
685.012	1958.36
685.063	1965.96
685.115	1988.11
685.166	1984.92
685.218	2004.73
685.27	1964.59
685.321	2005.35
685.373	1972.61
685.424	1969.39
685.476	1937.94
685.528	1989.59
685.579	1954.13
685.631	1983.83
685.683	1968.32
685.734	1977.98
685.786	1973.93
685.837	1988.8
685.889	1967.97
685.941	1969.28
685.992	1984.34
686.044	1957.34
686.095	1982.91
686.147	1969.46
686.199	1916.97
686.25	1957.99
686.302	1964.2
686.353	1958.78
686.405	1990.17
686.457	1946.89
686.508	1969.89
686.56	1969.78
686.611	1986.55
686.663	1931.87
686.715	1990.87
686.766	1954.25
686.818	1934.51
686.869	1921.04
686.921	1922.14
686.973	1905.13
687.024	1939.36
687.076	1944.91
687.127	1945.03
687.179	1943.01
687.231	1928.51
687.282	1937.33
687.334	1952.68
687.385	1921.03
687.437	1937.76
687.489	1947.15
687.54	1936.52
687.592	1932.03
687.643	1938.9
687.695	1963.4
687.747	1954.2
687.798	1918.72
687.85	1927.23
687.901	1942.08
687.953	1952.91
688.004	1961.87
688.056	1953.28
688.108	1923.98
688.159	1917.78
688.211	1945.07
688.262	1954.52
688.314	1934.63
688.366	1946.09
688.417	1947.12
688.469	1946.14
688.52	1925.38
688.572	1925.59
688.623	1902.78
688.675	1935.36
688.727	1941.72
688.778	1964.75
688.83	1941.74
688.881	1954.31
688.933	1925.04
688.984	1927.14
689.036	1942.76
689.088	1923.74
689.139	1908.8
689.191	1933.56
689.242	1934.37
689.294	1943.75
689.346	1912.67
689.397	1932.09
689.449	1915.12
689.5	1914.99
689.552	1910.59
689.603	1920.67
689.655	1932.6
689.706	1919.14
689.758	1903.43
689.81	1921.21
689.861	1928.57
689.913	1943.37
689.964	1916.35
690.016	1890.43
690.067	1892.81
690.119	1911.89
690.171	1914.1
690.222	1923.57
690.274	1927.78
690.325	1904.82
690.377	1907.23
690.428	1937.19
690.48	1923.36
690.531	1891.88
690.583	1903.55
690.635	1937.27
690.686	1912.96
690.738	1905.22
690.789	1916.18
690.841	1918.57
690.892	1939.91
690.944	1908.76
690.996	1929.5
691.047	1895.73
691.099	1885.37
691.15	1913.07
691.202	1921.71
691.253	1932.29
691.305	1916.21
691.356	1868.24
691.408	1922.84
691.459	1921.43
691.511	1907.39
691.563	1918.8
691.614	1908.94
691.666	1919.03
691.717	1908.71
691.769	1924.65
691.82	1938.3
691.872	1892.5
691.923	1923.07
691.975	1900.75
692.026	1896.58
692.078	1926.49
692.13	1881.27
692.181	1908.31
692.233	1936.52
692.284	1906.43
692.336	1907.06
692.387	1890.6
692.439	1877.17
692.49	1884.89
692.542	1892.59
692.593	1860.02
692.645	1879.71
692.697	1908.16
692.748	1892.11
692.8	1886.76
692.851	1898.35
692.903	1895.87
692.954	1902.68
693.006	1896.38
693.057	1885.56
693.109	1889.52
693.16	1889.22
693.212	1868.8
693.263	1885.91
693.315	1888.36
693.366	1886.77
693.418	1897.04
693.47	1871.08
693.521	1867.42
693.573	1882.81
693.624	1876.67
693.676	1875.69
693.727	1923.67
693.779	1881.88
693.83	1883.83
693.882	1862.33
693.933	1897.5
693.985	1852.8
694.036	1885.14
694.088	1856.81
694.139	1869.13
694.191	1903.88
694.242	1911.79
694.294	1867.14
694.345	1884.27
694.397	1865.96
694.448	1859.31
694.5	1896.42
694.552	1903.63
694.603	1862.83
694.655	1894.78
694.706	1904.44
694.758	1890.8
694.809	1876.3
694.861	1873.7
694.912	1889.36
694.964	1878.26
695.015	1880.97
695.067	1860
695.118	1889.22
695.17	1850.97
695.221	1906.96
695.273	1854.87
695.324	1874.59
695.376	1905.04
695.427	1878.67
695.479	1880.09
695.53	1870.73
695.582	1898.91
695.633	1823.15
695.685	1878.37
695.736	1875.85
695.788	1864.88
695.839	1816.4
695.891	1876.42
695.942	1883.77
695.994	1863.06
696.045	1900.36
696.097	1879.51
696.148	1894.17
696.2	1846.4
696.251	1890.26
696.303	1875.99
696.354	1882.26
696.406	1873.45
696.457	1860.34
696.509	1889.37
696.56	1853.62
696.612	1882.76
696.663	1874.09
696.715	1876.24
696.766	1880.54
696.818	1873.95
696.869	1870.56
696.921	1866.06
696.972	1857.24
697.024	1902.76
697.075	1829.93
697.127	1839.64
697.178	1902.6
697.23	1878.4
697.281	1853.02
697.333	1866.83
697.384	1880.8
697.436	1857.94
697.487	1853.86
697.539	1884.92
697.59	1859.27
697.642	1822.57
697.693	1866.6
697.745	1865.53
697.796	1860.95
697.847	1895.76
697.899	1844.02
697.95	1849.48
698.002	1880.41
698.053	1822.44
698.105	1838.03
698.156	1833.6
698.208	1867.37
698.259	1856.76
698.311	1848.08
698.362	1827.13
698.414	1862.35
698.465	1838.18
698.517	1820.72
698.568	1828.68
698.62	1869.76
698.671	1843.64
698.723	1835.15
698.774	1844.31
698.826	1842.46
698.877	1802.07
698.928	1854.36
698.98	1835
699.031	1841.03
699.083	1831.6
699.134	1859.69
699.186	1839.13
699.237	1820.7
699.289	1865.15
699.34	1849.82
699.392	1857.56
699.443	1825.38
699.495	1832.85
699.546	1835.78
699.598	1809.92
699.649	1827.12
699.7	1821.19
699.752	1818.69
699.803	1835.15
699.855	1819.83
699.906	1815.78
699.958	1845.03
700.009	1822.47
700.061	1825.24
700.112	1801.28
700.164	1818.97
700.215	1856.14
700.266	1856.47
700.318	1828.93
700.369	1802.45
700.421	1824.63
700.472	1814.05
700.524	1793.95
700.575	1809.49
700.627	1828.58
700.678	1821.25
700.73	1843.5
700.781	1809.17
700.832	1800.94
700.884	1828.83
700.935	1824.72
700.987	1821.9
701.038	1806.21
701.09	1825
701.141	1812.1
701.193	1808.03
701.244	1804.88
701.295	1830.04
701.347	1810.81
701.398	1830.96
701.45	1807.02
701.501	1805.18
701.553	1825.51
701.604	1802.12
701.656	1780.05
701.707	1810.86
701.758	1848.36
701.81	1790.27
701.861	1802.49
701.913	1819.04
701.964	1828.87
702.016	1798.99
702.067	1811.79
702.119	1818.95
702.17	1819.45
702.221	1800.24
702.273	1783.38
702.324	1844.66
702.376	1819.47
702.427	1828.44
702.479	1823.17
702.53	1798.05
702.581	1804.6
702.633	1812.1
702.684	1796.49
702.736	1811.68
702.787	1818.29
702.839	1797.73
702.89	1825.7
702.941	1816.5
702.993	1824.9
703.044	1817.83
703.096	1786.42
703.147	1842.87
703.199	1827.84
703.25	1831.65
703.301	1819.2
703.353	1803.7
703.404	1822.55
703.456	1804.02
703.507	1816.28
703.558	1779.77
703.61	1840.17
703.661	1820.85
703.713	1794.8
703.764	1801.97
703.816	1811.55
703.867	1792.65
703.918	1831.57
703.97	1826.39
704.021	1814.55
704.073	1809.21
704.124	1835.83
704.175	1811.08
704.227	1826.08
704.278	1849.86
704.33	1808.06
704.381	1790.83
704.432	1773.79
704.484	1807.02
704.535	1814.79
704.587	1825.98
704.638	1824.88
704.69	1764.58
704.741	1814.72
704.792	1813.5
704.844	1812.29
704.895	1768.61
704.947	1833.5
704.998	1799.91
705.049	1807.75
705.101	1758.4
705.152	1838
705.204	1793.08
705.255	1809.91
705.306	1826.79
705.358	1808.86
705.409	1790.94
705.461	1785.45
705.512	1778.86
705.563	1793.72
705.615	1806.32
705.666	1806.43
705.718	1834.64
705.769	1818.53
705.82	1786.32
705.872	1819.51
705.923	1786.99
705.974	1797.55
706.026	1799.28
706.077	1795.67
706.129	1794.66
706.18	1815.43
706.231	1786.36
706.283	1782.16
706.334	1810.73
706.386	1808.38
706.437	1811.53
706.488	1799.82
706.54	1744.86
706.591	1798.31
706.643	1777.82
706.694	1782.52
706.745	1787.22
706.797	1794.1
706.848	1774.51
706.899	1787.92
706.951	1809.22
707.002	1792.65
707.054	1755.4
707.105	1776.53
707.156	1784.98
707.208	1753.2
707.259	1775.19
707.31	1768.43
707.362	1800.67
707.413	1764.16
707.465	1767.93
707.516	1792.49
707.567	1779.27
707.619	1764.87
707.67	1785.9
707.721	1782.54
707.773	1767.51
707.824	1732.86
707.876	1785.53
707.927	1798.13
707.978	1777.62
708.03	1768.78
708.081	1743.98
708.132	1727.28
708.184	1741.6
708.235	1771.98
708.287	1735.6
708.338	1739.4
708.389	1736.25
708.441	1750.32
708.492	1737.86
708.543	1765.6
708.595	1749.46
708.646	1743.5
708.697	1756.94
708.749	1755.3
708.8	1766.29
708.852	1762.46
708.903	1753.14
708.954	1785.55
709.006	1767.76
709.057	1762.91
709.108	1745.59
709.16	1787.06
709.211	1774.28
709.262	1726.67
709.314	1759.5
709.365	1755.13
709.416	1747.01
709.468	1743.29
709.519	1723.28
709.57	1772.42
709.622	1733.97
709.673	1752.21
709.725	1715.39
709.776	1735.37
709.827	1733.76
709.879	1735.83
709.93	1749.54
709.981	1751.66
710.033	1744.39
710.084	1733.47
710.135	1747.89
710.187	1720.67
710.238	1739.87
710.289	1745.37
710.341	1703.52
710.392	1715
710.443	1741.47
710.495	1735.24
710.546	1697.41
710.597	1758.08
710.649	1735.09
710.7	1748.16
710.751	1752.09
710.803	1758.48
710.854	1697.53
710.905	1737.73
710.957	1706.96
711.008	1736.72
711.059	1733.99
711.111	1713.99
711.162	1733.84
711.213	1737.58
711.265	1717.18
711.316	1729.19
711.367	1748.97
711.419	1744.77
711.47	1751.59
711.521	1756.58
711.573	1745.85
711.624	1732.45
711.675	1737.72
711.727	1741.4
711.778	1742.86
711.829	1718.1
711.881	1722.59
711.932	1724.07
711.983	1750.87
712.035	1708.83
712.086	1747.72
712.137	1747.63
712.189	1733.97
712.24	1725.79
712.291	1738.83
712.343	1734.38
712.394	1730.79
712.445	1724.94
712.496	1732.37
712.548	1746.65
712.599	1759.48
712.65	1729.97
712.702	1738.58
712.753	1731.22
712.804	1714.03
712.856	1716.1
712.907	1724.18
712.958	1741.93
713.01	1738.42
713.061	1722.22
713.112	1733.84
713.164	1758.35
713.215	1745.92
713.266	1712.98
713.317	1717.32
713.369	1700.41
713.42	1710.82
713.471	1716.74
713.523	1724.71
713.574	1728.74
713.625	1722.34
713.677	1703
713.728	1729.67
713.779	1717.7
713.831	1704.1
713.882	1699.92
713.933	1726.28
713.984	1717.83
714.036	1721.85
714.087	1710.53
714.138	1715.12
714.19	1714.39
714.241	1703.44
714.292	1695.99
714.343	1705.45
714.395	1706.29
714.446	1701.57
714.497	1696.32
714.549	1678.19
714.6	1688.71
714.651	1691.48
714.703	1704.89
714.754	1701.49
714.805	1700.36
714.856	1698.01
714.908	1689.21
714.959	1699.46
715.01	1707.27
715.062	1690.91
715.113	1690
715.164	1674.57
715.215	1666.43
715.267	1668.9
715.318	1682.07
715.369	1678.88
715.421	1672.94
715.472	1664.4
715.523	1680.28
715.574	1683.88
715.626	1683.97
715.677	1666.41
715.728	1687.25
715.779	1678.66
715.831	1681.11
715.882	1679.5
715.933	1671.69
715.985	1668.62
716.036	1693.15
716.087	1672.37
716.138	1660.79
716.19	1655.4
716.241	1655.76
716.292	1668.08
716.343	1651.65
716.395	1676.11
716.433	1684.8
716.485	1647.82
716.536	1664.84
716.588	1624.7
716.639	1655.61
716.691	1676.91
716.742	1620
716.794	1657.18
716.845	1639.2
716.897	1682.27
716.948	1610.26
717	1637.36
717.052	1621.72
717.103	1653.95
717.155	1671.6
717.206	1613.34
717.258	1655.46
717.309	1622.71
717.361	1653.54
717.412	1672.05
717.464	1606.01
717.515	1621.01
717.567	1641.14
717.618	1641.87
717.67	1661.14
717.721	1644.82
717.773	1632.07
717.824	1646.17
717.876	1658.85
717.927	1636.93
717.979	1596.48
718.03	1610.17
718.082	1657.21
718.133	1641.73
718.185	1611.77
718.237	1606.71
718.288	1609.26
718.34	1639.06
718.391	1630.55
718.443	1628
718.494	1635.01
718.546	1624.32
718.597	1603.4
718.649	1618.16
718.7	1622.98
718.752	1600.71
718.803	1594.75
718.855	1602.69
718.906	1624.5
718.958	1611.84
719.009	1579.42
719.061	1617.7
719.112	1638.61
719.164	1609.77
719.215	1618.05
719.267	1616.22
719.318	1589.36
719.37	1603.39
719.421	1575.05
719.473	1607.68
719.524	1606.84
719.576	1599.97
719.627	1633.19
719.679	1586.88
719.73	1591.81
719.782	1615.56
719.833	1613.11
719.885	1611.84
719.936	1599.21
719.988	1615.22
720.039	1602.27
720.091	1595.42
720.142	1604.73
720.194	1587.62
720.245	1585.55
720.297	1618.69
720.348	1611.83
720.4	1598.86
720.451	1581
720.503	1607.21
720.554	1581.86
720.606	1591.65
720.657	1597.55
720.709	1568.05
720.76	1591.39
720.812	1580.66
720.863	1563.59
720.915	1586.89
720.966	1591.21
721.018	1562.59
721.069	1588.18
721.121	1611.19
721.172	1564.71
721.224	1589.14
721.275	1572.08
721.327	1590.69
721.378	1544.94
721.43	1558.78
721.481	1570.03
721.532	1557
721.584	1598.32
721.635	1527.73
721.687	1554.83
721.738	1538.82
721.79	1578.91
721.841	1560.79
721.893	1553.07
721.944	1520.02
721.996	1587.68
722.047	1562.2
722.099	1535.2
722.15	1551.35
722.202	1557.03
722.253	1570.16
722.305	1535.84
722.356	1539.87
722.408	1565.72
722.459	1539.26
722.511	1556.45
722.562	1560.94
722.614	1534.7
722.665	1553.21
722.716	1544.69
722.768	1547.59
722.819	1572.26
722.871	1557.24
722.922	1542.38
722.974	1532.84
723.025	1535.01
723.077	1548.79
723.128	1545.79
723.18	1560.6
723.231	1525
723.283	1541.95
723.334	1538.18
723.386	1521.5
723.437	1511.3
723.488	1517.89
723.54	1539.92
723.591	1525.78
723.643	1479.28
723.694	1488.04
723.746	1526.37
723.797	1514.62
723.849	1528.84
723.9	1493.18
723.952	1518.3
724.003	1510.14
724.055	1503.34
724.106	1521.01
724.157	1536.05
724.209	1525.19
724.26	1501.38
724.312	1489.18
724.363	1510.61
724.415	1503.56
724.466	1515.85
724.518	1508.58
724.569	1501.14
724.621	1527.26
724.672	1493.74
724.723	1496.51
724.775	1499.37
724.826	1501.03
724.878	1515.75
724.929	1507.21
724.981	1493.52
725.032	1507.12
725.084	1502.62
725.135	1496.88
725.187	1478.2
725.238	1477.75
725.289	1498.11
725.341	1487.19
725.392	1494.42
725.444	1491.15
725.495	1506.06
725.547	1501.37
725.598	1487.48
725.65	1455.26
725.701	1516.94
725.752	1459.76
725.804	1520.04
725.855	1492.84
725.907	1480.08
725.958	1487.06
726.01	1504.67
726.061	1476.69
726.112	1472.37
726.164	1481.2
726.215	1492.67
726.267	1488.38
726.318	1489.25
726.37	1486.1
726.421	1457.89
726.473	1468.99
726.524	1452.45
726.575	1428.03
726.627	1501.03
726.678	1471.61
726.73	1455.55
726.781	1493.72
726.833	1472.72
726.884	1462.27
726.935	1451.74
726.987	1475.45
727.038	1493.77
727.09	1469.65
727.141	1481.36
727.193	1489.25
727.244	1500
727.295	1433.76
727.347	1467.26
727.398	1452.75
727.45	1452.68
727.501	1457.7
727.552	1467.81
727.604	1467.02
727.655	1486.11
727.707	1454.31
727.758	1469.27
727.81	1456.21
727.861	1433.96
727.912	1436.04
727.964	1482.66
728.015	1443.93
728.067	1464.44
728.118	1432.72
728.17	1481.59
728.221	1476.47
728.272	1430.56
728.324	1431.49
728.375	1469.99
728.427	1435.52
728.478	1440.24
728.529	1450.52
728.581	1435.27
728.632	1403.88
728.684	1422.67
728.735	1445.63
728.786	1456.49
728.838	1448.45
728.889	1424.16
728.941	1450.24
728.992	1443.6
729.044	1439.48
729.095	1411.84
729.146	1404.29
729.198	1425.1
729.249	1422.48
729.301	1397.94
729.352	1420.02
729.403	1431.45
729.455	1400.86
729.506	1422.6
729.558	1407.63
729.609	1416.03
729.66	1425.72
729.712	1425.56
729.763	1437.44
729.815	1454.51
729.866	1430.06
729.917	1442.68
729.969	1420.97
730.02	1380.19
730.072	1414.09
730.123	1417.98
730.174	1402.74
730.226	1386.16
730.277	1420.65
730.329	1365
730.38	1419.85
730.431	1419.05
730.483	1376.47
730.534	1404.5
730.586	1427.03
730.637	1410.88
730.688	1403.26
730.74	1394.44
730.791	1416.32
730.842	1400.69
730.894	1408.59
730.945	1389.82
730.997	1418.14
731.048	1365.43
731.099	1415.71
731.151	1387.96
731.202	1381.23
731.254	1394.19
731.305	1405.93
731.356	1364.78
731.408	1403.24
731.459	1378.89
731.51	1372.66
731.562	1391.56
731.613	1399.26
731.665	1404.11
731.716	1383.68
731.767	1395.35
731.819	1388.67
731.87	1393.07
731.922	1353.9
731.973	1365.11
732.024	1387.53
732.076	1400.18
732.127	1380.69
732.178	1396.38
732.23	1364.54
732.281	1404.37
732.333	1361.53
732.384	1373.48
732.435	1368.58
732.487	1387.53
732.538	1351.56
732.589	1366.11
732.641	1352.4
732.692	1351.27
732.744	1374.03
732.795	1370.06
732.846	1359.11
732.898	1397.54
732.949	1398.02
733	1368.95
733.052	1361
733.103	1355.82
733.154	1356.19
733.206	1374.81
733.257	1379.22
733.309	1360.99
733.36	1379.43
733.411	1348.45
733.463	1348.55
733.514	1357.12
733.565	1375.58
733.617	1351.66
733.668	1367.28
733.719	1368.78
733.771	1334.98
733.822	1387.4
733.873	1391.84
733.925	1372.34
733.976	1341.6
734.028	1368.89
734.079	1355.2
734.13	1362.67
734.182	1354.48
734.233	1334.84
734.284	1327.81
734.336	1368.86
734.387	1361.78
734.438	1346.29
734.49	1349.34
734.541	1361.02
734.592	1354.42
734.644	1370.54
734.695	1328.54
734.747	1365.9
734.798	1340.8
734.849	1382.35
734.901	1324.51
734.952	1368.87
735.003	1346.47
735.055	1316.92
735.106	1354.08
735.157	1352.83
735.209	1338.71
735.26	1342.99
735.311	1342.93
735.363	1347.07
735.414	1321.3
735.465	1372.22
735.517	1333.65
735.568	1317.87
735.619	1360.39
735.671	1343.38
735.722	1313.71
735.773	1355.17
735.825	1311.49
735.876	1323.28
735.927	1335.07
735.979	1324.06
736.03	1344.2
736.081	1322.9
736.133	1335.51
736.184	1288.18
736.235	1303.28
736.287	1366.61
736.338	1320.59
736.389	1290.33
736.441	1332.62
736.492	1339.56
736.543	1305.48
736.595	1321.17
736.646	1332.7
736.697	1367.04
736.749	1330.48
736.8	1312.41
736.851	1301.43
736.903	1311.7
736.954	1304.82
737.005	1327.68
737.057	1330.55
737.108	1319.19
737.159	1340.54
737.211	1316.45
737.262	1323.68
737.313	1303.9
737.365	1318.2
737.416	1316.75
737.467	1296.67
737.518	1277.87
737.57	1317.21
737.621	1328.06
737.672	1304.84
737.724	1301.61
737.775	1315.58
737.826	1318.39
737.878	1315.68
737.929	1278.99
737.98	1296.23
738.032	1293.51
738.083	1292.07
738.134	1299.02
738.186	1339.92
738.237	1315.49
738.288	1283.99
738.339	1296.54
738.391	1293.56
738.442	1304.84
738.493	1276.44
738.545	1284.93
738.596	1286.3
738.647	1283.37
738.699	1295.97
738.75	1304.26
738.801	1312.52
738.853	1295.26
738.904	1268.12
738.955	1277.88
739.006	1294.78
739.058	1283.42
739.109	1270.67
739.16	1282.02
739.212	1279.18
739.263	1287.66
739.314	1298.93
739.366	1283.27
739.417	1288.84
739.468	1275.98
739.519	1261.69
739.571	1295.53
739.622	1274.15
739.673	1240.09
739.725	1293.89
739.776	1292.61
739.827	1282.99
739.878	1260.73
739.93	1279.61
739.981	1282.89
740.032	1243.53
740.084	1266.41
740.135	1263.61
740.186	1262.08
740.237	1254.76
740.289	1262.95
740.34	1251.26
740.391	1248.07
740.443	1263.32
740.494	1240.41
740.545	1240.31
740.596	1244.63
740.648	1225.09
740.699	1256.73
740.75	1261.59
740.802	1256.55
740.853	1259.94
740.904	1234.79
740.956	1240.68
741.007	1235.05
741.058	1249.19
741.109	1206.52
741.161	1261.83
741.212	1222.12
741.263	1226.5
741.314	1243.74
741.366	1232.63
741.417	1232.9
741.468	1231.77
741.52	1222.1
741.571	1247.96
741.622	1209.86
741.673	1231.47
741.725	1221.82
741.776	1253.41
741.827	1209.58
741.878	1222.61
741.93	1231.31
741.981	1221.41
742.032	1218.57
742.083	1231.37
742.135	1218.59
742.186	1221.57
742.237	1194.76
742.289	1212.21
742.34	1239.71
742.391	1215.91
742.442	1224.82
742.494	1220.78
742.545	1236.58
742.596	1205.22
742.647	1219.47
742.699	1183.83
742.75	1242.4
742.801	1194.08
742.852	1187.19
742.904	1210.31
742.955	1234.87
743.006	1205.17
743.057	1198.29
743.109	1212.83
743.16	1210.26
743.211	1192
743.263	1183.78
743.314	1211.33
743.365	1188.83
743.416	1177.75
743.468	1165.21
743.519	1231.39
743.57	1203.05
743.621	1227.68
743.672	1200.7
743.724	1167.94
743.775	1201.05
743.826	1194.01
743.878	1186.98
743.929	1167.1
743.98	1220.44
744.031	1197.84
744.083	1188.15
744.134	1149.7
744.185	1202.98
744.236	1197.24
744.287	1188.49
744.339	1186.84
744.39	1201
744.441	1183.72
744.492	1183.87
744.544	1179.93
744.595	1138.83
744.646	1191.17
744.697	1196.05
744.749	1213.73
744.8	1182.32
744.851	1180.93
744.902	1177.95
744.954	1179.2
745.005	1158.85
745.056	1180.22
745.107	1172.93
745.159	1175.83
745.21	1141.51
745.261	1183.54
745.312	1176.8
745.363	1151.41
745.415	1196.52
745.466	1165.23
745.517	1161.14
745.568	1154
745.62	1161.15
745.671	1165.35
745.722	1136.45
745.773	1165.26
745.824	1174
745.876	1113.67
745.927	1174.39
745.978	1137.09
746.029	1154.47
746.081	1135.73
746.132	1148.61
746.183	1145.59
746.234	1175.68
746.285	1116.47
746.337	1161.02
746.388	1192.67
746.439	1136.53
746.49	1133.77
746.542	1161.34
746.593	1145.74
746.644	1143.13
746.695	1143.39
746.746	1119.07
746.798	1165.31
746.849	1155.18
746.9	1159.33
746.951	1124.47
747.003	1134.27
747.054	1158.53
747.105	1129.6
747.156	1135.43
747.207	1092.45
747.259	1124.54
747.31	1123.51
747.361	1116.61
747.412	1123.91
747.463	1156.89
747.515	1156.41
747.566	1096.68
747.617	1116.21
747.668	1132.96
747.719	1122.57
747.771	1122.51
747.822	1112.57
747.873	1101.28
747.924	1134.61
747.975	1123.23
748.027	1123.25
748.078	1107.35
748.129	1138.92
748.18	1084.12
748.231	1124.39
748.283	1107.12
748.334	1099.95
748.385	1121.58
748.436	1114.39
748.487	1107.17
748.539	1128.74
748.59	1107.15
748.641	1095.73
748.692	1107.47
748.743	1096.32
748.795	1111.27
748.846	1117.69
748.897	1111.2
748.948	1111.91
748.999	1111.09
749.05	1088.44
749.102	1133.55
749.153	1101.84
749.204	1117.69
749.255	1105.94
749.306	1115.81
749.358	1108.33
749.409	1079.25
749.46	1086.4
749.511	1105.23
749.562	1089.5
749.614	1111.42
749.665	1129.04
749.716	1109.03
749.767	1074.49
749.818	1071.67
749.869	1084.72
749.921	1087.63
749.972	1076.11
750.023	1079.11
750.074	1089.41
750.125	1095.42
750.177	1104.37
750.228	1094.54
750.279	1081.85
750.33	1112.66
750.381	1100.02
750.432	1093.15
750.484	1100.73
750.535	1077.76
750.586	1098.21
750.637	1053.31
750.688	1085.28
750.739	1069.41
750.791	1078.29
750.842	1082.93
750.893	1084.76
750.944	1061.97
750.995	1079.89
751.046	1054.18
751.098	1025.49
751.149	1073.84
751.2	1062.49
751.251	1074.39
751.302	1076.09
751.353	1064.7
751.404	1081.03
751.456	1046.41
751.507	1065.74
751.558	1090.94
751.609	1053.44
751.66	1056.8
751.711	1085.02
751.763	1066.59
751.814	1087.71
751.865	1073.84
751.916	1087.84
751.967	1081.35
752.018	1058.67
752.07	1053.49
752.121	1061.43
752.172	1042.88
752.223	1056.63
752.274	1086.58
752.325	1057.77
752.376	1074.57
752.428	1058.98
752.479	1028.57
752.53	1054.04
752.581	1051.41
752.632	1085.55
752.683	1051.8
752.734	1051.97
752.786	1071.35
752.837	1047.98
752.888	1071.87
752.939	1047.06
752.99	1072.47
753.041	1062.42
753.092	1042.03
753.144	1058.61
753.195	1056
753.246	1038.6
753.297	1052.25
753.348	1045.15
753.399	1040.93
753.45	1038.11
753.502	1063.37
753.553	1048.57
753.604	1032.27
753.655	1036.69
753.706	1048.54
753.757	1063.41
753.808	1026.54
753.859	1043.1
753.911	1040.55
753.962	1041.08
754.013	1028.34
754.064	1026.02
754.115	1011.78
754.166	1048.01
754.217	1023.22
754.269	1029.57
754.32	1003.13
754.371	1054.06
754.422	1014.17
754.473	1026.37
754.524	993.857
754.575	1031.35
754.626	1015.16
754.678	1031.76
754.729	988.721
754.78	1024.76
754.831	1041.48
754.882	1043.36
754.933	1012.45
754.984	1021.9
755.035	1032.86
755.086	1007.94
755.138	1029.3
755.189	1025.17
755.24	1002.99
755.291	1022.64
755.342	1036.26
755.393	1009.42
755.444	1006.55
755.495	1036.67
755.547	1011.44
755.598	999.765
755.649	995.672
755.7	988.648
755.751	996.672
755.802	979.174
755.853	994.673
755.904	990.572
755.955	981.864
756.006	967.044
756.058	991.244
756.109	995.823
756.16	1009.37
756.211	977.752
756.262	997.257
756.313	967.138
756.364	1006.26
756.415	979.284
756.466	990.026
756.518	987.338
756.569	1001.29
756.62	992.679
756.671	991.57
756.722	996.419
756.773	977.063
756.824	968.192
756.875	992.471
756.926	986.591
756.977	1003.37
757.029	990.016
757.08	975.174
757.131	972.422
757.182	956.086
757.233	982.052
757.284	995.954
757.335	979.641
757.386	979.957
757.437	960.602
757.488	985.097
757.539	976.28
757.59	978.033
757.642	967.667
757.693	973.977
757.744	963.663
757.795	970.065
757.846	965.903
757.897	954.175
757.948	956.084
757.999	965.543
758.05	955.199
758.101	994.904
758.152	976.841
758.203	937.48
758.255	946.753
758.306	956.075
758.357	963.935
758.408	936.862
758.459	976.727
758.51	966.434
758.561	972.795
758.612	956.424
758.663	950.107
758.714	948.181
758.765	932.798
758.816	958.066
758.867	936.078
758.919	952.222
758.97	911.015
759.021	941.634
759.072	936.268
759.123	948.485
759.174	928.719
759.225	956.345
759.276	952.583
759.327	952.971
759.378	941.347
759.429	927.235
759.48	937.944
759.531	952.031
759.582	934.425
759.633	949.239
759.685	958.296
759.736	939.67
759.787	921.045
759.838	947.895
759.889	944.701
759.94	931.073
759.991	948.963
760.042	945.768
760.093	934.735
760.144	957.315
760.195	937.717
760.246	927.468
760.297	928.165
760.348	909.693
760.399	945.326
760.45	941.65
760.501	954.308
760.552	939.492
760.603	938.775
760.655	928.691
760.706	926.667
760.757	921.454
760.808	896.775
760.859	916.333
760.91	934.81
760.961	912.893
761.012	913.283
761.063	918.587
761.114	920.16
761.165	915.545
761.216	921.86
761.267	920.94
761.318	914.922
761.369	908.136
761.42	914.128
761.471	907.406
761.522	915.9
761.573	919.223
761.624	922.806
761.675	900.36
761.726	904.393
761.777	912.504
761.828	916.233
761.88	911.184
761.931	887.897
761.982	896.805
762.033	899.735
762.084	902.887
762.135	913.491
762.186	909.484
762.237	911.022
762.288	909.063
762.339	906.321
762.39	904.319
762.441	911.73
762.492	899.118
762.543	913.44
762.594	886.556
762.645	894.974
762.696	877.421
762.747	886.358
762.798	891.632
762.849	871.092
762.9	890.4
762.951	893.176
763.002	891.343
763.053	897.341
763.104	894.601
763.155	886.424
763.206	882.421
763.257	879.984
763.308	872.909
763.359	870.085
763.41	893.809
763.461	904.188
763.512	898.962
763.563	903.239
763.614	893.456
763.665	885.894
763.678	884.732
763.729	873.438
763.78	878.023
763.832	881.337
763.883	889.682
763.934	893.46
763.986	881.385
764.037	870.593
764.088	879.967
764.139	852.852
764.191	869.876
764.242	854.019
764.293	843.219
764.345	872.13
764.396	857.018
764.447	867.064
764.498	883.18
764.55	889.517
764.601	853.001
764.652	855.976
764.704	857.551
764.755	868.882
764.806	856.757
764.857	843.13
764.909	878.454
764.96	867.636
765.011	847.015
765.062	842.009
765.114	865.43
765.165	862.077
765.216	849.499
765.268	853.038
765.319	856.812
765.37	876.536
765.421	850.233
765.473	861.814
765.524	839.846
765.575	843.097
765.626	835.18
765.678	841.591
765.729	854.464
765.78	854.755
765.831	878.974
765.883	844.4
765.934	828.836
765.985	865.68
766.036	827.621
766.088	854.733
766.139	846.806
766.19	865.988
766.242	834.33
766.293	834.633
766.344	841.41
766.395	845.047
766.447	842.276
766.498	823.451
766.549	826.851
766.6	820.588
766.652	849.431
766.703	844.806
766.754	829.117
766.805	842.318
766.857	806.056
766.908	833.793
766.959	845.501
767.01	825.068
767.062	863.783
767.113	844.693
767.164	836.745
767.215	849.618
767.267	817.63
767.318	856.246
767.369	835.616
767.42	792.597
767.472	812.23
767.523	820.721
767.574	824.465
767.625	836.292
767.677	823.991
767.728	811.627
767.779	862.007
767.83	830.124
767.882	820.697
767.933	814.426
767.984	842.005
768.035	830.903
768.087	815.023
768.138	815.366
768.189	815.795
768.24	825.98
768.292	811.93
768.343	789.736
768.394	809.548
768.445	805.001
768.497	808.487
768.548	779.536
768.599	808.951
768.65	799.527
768.701	803.161
768.753	824.739
768.804	820.41
768.855	793.336
768.906	803.619
768.958	826.885
769.009	778.454
769.06	813.014
769.111	819.856
769.163	798.968
769.214	794.383
769.265	806.126
769.316	806.459
769.367	810.052
769.419	789.113
769.47	813.884
769.521	787.955
769.572	825.764
769.624	793.259
769.675	803.289
769.726	790.439
769.777	805.431
769.828	797.521
769.88	779.788
769.931	811.227
769.982	832.893
770.033	800.508
770.085	771.441
770.136	827.804
770.187	797.158
770.238	796.05
770.289	778.411
770.341	795.231
770.392	785.619
770.443	767.704
770.494	781.078
770.546	792.846
770.597	776.65
770.648	755.555
770.699	795.559
770.75	786.093
770.802	774.975
770.853	790.297
770.904	784.124
770.955	792.823
771.006	781.626
771.058	793.57
771.109	783.93
771.16	752.692
771.211	774.487
771.263	783.031
771.314	779.989
771.365	776.977
771.416	777.311
771.467	774.334
771.519	787.974
771.57	753.379
771.621	761.993
771.672	760.613
771.723	770.882
771.775	796.159
771.826	806.486
771.877	783.521
771.928	727.218
771.979	779.374
772.031	771.512
772.082	782.054
772.133	744.143
772.184	768.123
772.235	785.471
772.287	771.026
772.338	790.118
772.389	770.602
772.44	764.429
772.491	749.738
772.543	766.861
772.594	758.649
772.645	768.867
772.696	763.933
772.747	792.707
772.799	767.718
772.85	771.449
772.901	743.252
772.952	770.719
773.003	747.598
773.055	775.067
773.106	772.096
773.157	785.959
773.208	725.38
773.259	756.059
773.31	773.198
773.362	778.482
773.413	748.203
773.464	756.836
773.515	773.934
773.566	763.954
773.618	772.653
773.669	762.789
773.72	773.356
773.771	746.675
773.822	731.882
773.873	720.449
773.925	765.05
773.976	741.585
774.027	762.283
774.078	754.039
774.129	761.133
774.18	717.164
774.232	756.692
774.283	739.988
774.334	760.769
774.385	740.576
774.436	723.766
774.488	749.653
774.539	743.158
774.59	733.309
774.641	735.482
774.692	768.493
774.743	753.578
774.795	718.03
774.846	737.244
774.897	727.256
774.948	724.087
774.999	765.538
775.05	716.044
775.102	726.692
775.153	715.077
775.204	739.638
775.255	738.46
775.306	720.063
775.357	722.294
775.409	721.013
775.46	719.654
775.511	723.403
775.562	715.022
775.613	691.077
775.664	722.433
775.716	715.798
775.767	709.174
775.818	697.356
775.869	720.146
775.92	706.578
775.971	724.186
776.023	710.624
776.074	705.752
776.125	733.854
776.176	716.85
776.227	713.701
776.278	731.368
776.329	722.963
776.381	712.815
776.432	678.329
776.483	727.372
776.534	731.227
776.585	696.771
776.636	723.254
776.688	730.528
776.739	702.855
776.79	696.034
776.841	697.892
776.892	691.016
776.943	733.035
776.994	722.754
777.046	700.307
777.097	697.118
777.148	678.227
777.199	699.549
777.25	682.383
777.301	700.184
777.352	677.701
777.404	681.471
777.455	690.519
777.506	697.86
777.557	707.012
777.608	710.951
777.659	671.001
777.71	687.232
777.762	680.572
777.813	670.314
777.864	677.572
777.915	702.379
777.966	699.003
778.017	678.04
778.068	702.934
778.12	682.106
778.171	686.021
778.222	698.805
778.273	718.662
778.324	676.654
778.375	691.09
778.426	673.634
778.477	680.876
778.529	682.797
778.58	674.119
778.631	674.326
778.682	692.291
778.733	666.039
778.784	673.478
778.835	679.185
778.886	693.792
778.938	672.911
778.989	687.522
779.04	677.229
779.091	682.879
779.142	661.791
779.193	633.521
779.244	669.29
779.295	683.709
779.347	658.977
779.398	660.986
779.449	664.811
779.5	665.093
779.551	672.514
779.602	651.379
779.653	680.201
779.704	664.383
779.755	668.201
779.807	639.857
779.858	645.48
779.909	695.86
779.96	644.319
780.011	667.993
780.062	672.049
780.113	676.166
780.164	664.163
780.216	655.72
780.267	661.589
780.318	658.379
780.369	644.265
780.42	664.259
780.471	648.202
780.522	644.744
780.573	657.539
780.624	650.584
780.675	663.527
780.727	645.869
780.778	660.714
780.829	626.811
780.88	657.92
780.931	656.488
780.982	645.982
781.033	626.394
781.084	623.081
781.135	648.763
781.187	643.659
781.238	634.934
781.289	620.761
781.34	621.084
781.391	637.723
781.442	656.146
781.493	618.174
781.544	638.341
781.595	647.582
781.646	636.803
781.698	646.036
781.749	631.614
781.8	662.714
781.851	655.612
781.902	628.513
781.953	643.374
782.004	634.613
782.055	618.602
782.106	628.16
782.157	641.369
782.208	669.161
782.26	620.07
782.311	620.264
782.362	633.213
782.413	642.489
782.464	637.141
782.515	646.479
782.566	637.545
782.617	595.639
782.668	641.713
782.719	618.118
782.77	631.196
782.821	625.931
782.872	631.694
782.924	631.971
782.975	632.263
783.026	623.364
783.077	629.164
783.128	616.548
783.179	627.846
783.23	628.111
783.281	613.661
783.332	617.681
783.383	606.995
783.434	624.029
783.485	628.174
783.536	611.981
783.588	603.139
783.639	609.05
783.69	616.767
783.741	633.698
783.792	604.247
783.843	611.815
783.894	611.94
783.945	634.317
783.996	584.377
784.047	603.123
784.098	627.529
784.149	605.6
784.2	641.342
784.252	610.207
784.303	618.131
784.354	620.458
784.405	602.245
784.456	621.291
784.507	588.066
784.558	599.618
784.609	592.478
784.66	587.169
784.711	613.606
784.762	625.022
784.813	593.323
784.864	593.388
784.915	625.264
784.966	597.258
785.017	599.256
785.068	584.456
785.12	592.183
785.171	601.824
785.222	600.232
785.273	609.898
785.324	595.16
785.375	578.524
785.426	599.45
785.477	588.426
785.528	613.113
785.579	568.191
785.63	604.153
785.681	608.129
785.732	600.814
785.783	619.889
785.834	597.539
785.885	605.378
785.936	596.286
785.987	623.105
786.038	587.654
786.089	595.676
786.141	611.288
786.192	609.846
786.243	596.955
786.294	616.174
786.345	604.943
786.396	593.608
786.447	584.114
786.498	593.585
786.549	584.14
786.6	572.873
786.651	597.74
786.702	580.937
786.753	579.368
786.804	596.831
786.855	601.004
786.906	589.934
786.957	599.755
787.008	603.82
787.059	581.163
787.11	587.046
787.161	587.202
787.212	587.375
787.263	572.327
787.314	568.773
787.365	574.819
787.416	561.805
787.467	556.44
787.518	577.847
787.57	580.1
787.621	574.642
787.672	565.289
787.723	557.797
787.774	561.77
787.825	540.801
787.876	556.273
787.927	552.587
787.978	552.762
788.029	585.604
788.08	551.261
788.131	570.701
788.182	578.619
788.233	549.994
788.284	563.655
788.335	565.766
788.386	537.072
788.437	568.058
788.488	554.776
788.539	560.778
788.59	561.027
788.641	569.008
788.692	565.419
788.743	552.156
788.794	577.48
788.845	569.947
788.896	535.333
788.947	576.096
788.998	539.56
789.049	559.148
789.1	538.156
789.151	565.607
789.202	573.733
789.253	545.016
789.304	543.405
789.355	555.335
789.406	543.902
789.457	555.71
789.508	555.8
789.559	561.678
789.61	559.776
789.661	557.912
789.712	538.628
789.763	548.615
789.814	533.411
789.865	537.74
789.916	544.043
789.967	544.461
790.018	540.894
790.069	537.237
790.12	564.792
790.171	543.493
790.222	543.743
790.273	536.241
790.324	554.25
790.375	535.057
790.426	558.933
790.477	547.413
790.528	549.51
790.579	531.895
790.63	539.769
790.681	528.052
790.732	524.27
790.783	520.587
790.834	530.747
790.885	540.975
790.936	545.326
790.987	533.901
791.038	524.386
791.089	548.333
791.14	538.694
791.191	534.909
791.242	519.226
791.293	531.151
791.344	545.051
791.395	497.756
791.446	525.576
791.497	527.795
791.548	524.153
791.599	524.508
791.65	536.738
791.701	533.066
791.752	517.417
791.803	529.471
791.854	505.824
791.905	515.933
791.956	486.411
792.007	544.342
792.058	514.945
792.109	525.335
792.16	513.834
792.211	506.265
792.262	510.595
792.313	528.833
792.363	497.112
792.414	519.235
792.465	501.379
792.516	535.442
792.567	531.555
792.618	521.698
792.669	531.88
792.72	530.126
792.771	496.394
792.822	530.746
792.873	525.061
792.924	507.32
792.975	493.551
793.026	499.832
793.077	492.077
793.128	512.486
793.179	496.771
793.23	515.29
793.281	515.73
793.332	516.161
793.383	532.702
793.434	520.952
793.485	515.199
793.536	509.395
793.587	529.839
793.638	523.966
793.689	507.945
793.74	526.318
793.79	512.31
793.841	504.398
793.892	506.65
793.943	504.884
793.994	521.391
794.045	515.576
794.096	515.814
794.147	518.045
794.198	512.122
794.249	508.226
794.3	488.081
794.351	496.432
794.402	474.277
794.453	468.388
794.504	503.21
794.555	489.108
794.606	530.013
794.657	507.74
794.708	499.78
794.758	526.583
794.809	492.217
794.86	496.671
794.911	480.656
794.962	495.252
795.013	483.15
795.064	483.243
795.115	468.965
795.166	497.724
795.217	510.202
795.268	500.273
795.319	484.298
795.37	488.908
795.421	485.305
795.472	493.974
795.523	510.778
795.573	504.804
795.624	506.973
795.675	486.43
795.726	488.575
795.777	515.523
795.828	480.669
795.879	489.167
795.93	460.504
795.981	489.624
796.032	485.641
796.083	496.07
796.134	481.669
796.185	485.889
796.236	498.439
796.286	500.734
796.337	480.337
796.388	466.185
796.439	485.21
796.49	460.678
796.541	481.762
796.592	475.818
796.643	457.35
796.694	457.548
796.745	468.122
796.796	476.602
796.847	480.91
796.897	470.637
796.948	485.357
796.999	487.597
797.05	494.024
797.101	485.88
797.152	477.749
797.203	457.104
797.254	486.572
797.305	465.938
797.356	468.286
797.407	468.547
797.458	487.636
797.508	479.5
797.559	475.514
797.61	461.009
797.661	463.235
797.712	471.741
797.763	444.614
797.814	488.842
797.865	457.608
797.916	462.115
797.967	460.385
798.018	465.004
798.068	471.745
798.119	451.069
798.17	453.51
798.221	462.216
798.272	466.638
798.323	460.447
798.374	477.468
798.425	488.169
798.476	469.326
798.526	458.996
798.577	459.313
798.628	480.876
798.679	436.781
798.73	452.018
798.781	460.857
798.832	459
798.883	467.684
798.934	463.547
798.984	463.634
799.035	431.831
799.086	457.516
799.137	474.771
799.188	434.58
799.239	447.648
799.29	458.58
799.341	463.075
799.392	463.248
799.443	474.053
799.493	465.624
799.544	455.065
799.595	455.217
799.646	459.68
799.697	455.613
799.748	451.537
799.799	451.708
799.85	436.837
799.9	451.884
799.951	458.317
800.002	447.598
800.053	428.329
800.104	441.235
800.155	439.219
800.206	428.696
800.257	428.932
800.307	457.081
800.358	438.015
800.409	468.317
800.46	442.751
800.511	449.416
800.562	460.407
800.613	445.6
800.664	439.4
800.714	448.265
800.765	463.57
800.816	429.231
800.867	427.198
800.918	431.627
800.969	438.233
801.02	429.761
801.07	453.727
801.121	445.318
801.172	452.046
801.223	426.313
801.274	452.502
801.325	444.051
801.376	450.767
801.427	409.803
801.477	433.89
801.528	421.105
801.579	438.694
801.63	443.227
801.681	456.412
801.732	460.87
801.783	430.521
801.833	432.788
801.884	419.854
801.935	435.233
801.986	409.285
802.037	442.125
802.088	446.645
802.139	438.057
802.189	420.718
802.24	427.353
802.291	416.565
802.342	410.157
802.393	408.124
802.444	412.637
802.495	404.031
802.545	410.692
802.596	415.163
802.647	439.318
802.698	419.795
802.749	452.796
802.8	433.344
802.85	424.842
802.901	440.435
802.952	418.763
803.003	416.795
803.054	423.593
803.105	421.609
803.155	426.208
803.206	404.421
803.257	393.586
803.308	422.303
803.359	429.005
803.41	398.285
803.46	420.382
803.511	418.302
803.562	438.289
803.613	431.898
803.664	407.896
803.715	410.351
803.765	415.011
803.816	404.199
803.867	419.873
803.918	406.807
803.969	418.052
804.02	418.239
804.07	411.779
804.121	400.875
804.172	416.535
804.223	414.46
804.274	403.505
804.325	410.284
804.375	377.141
804.426	412.783
804.477	388.517
804.528	399.765
804.579	404.341
804.63	422.229
804.68	388.974
804.731	424.602
804.782	406.876
804.833	398.055
804.884	409.278
804.934	431.668
804.985	409.582
805.036	387.483
805.087	400.993
805.138	389.968
805.188	381.132
805.239	423.539
805.29	379.003
805.341	416.972
805.392	374.694
805.443	392.658
805.493	395.075
805.544	390.692
805.595	415.147
805.646	402.517
805.697	410.856
805.747	406.122
805.798	400.723
805.849	395.092
805.9	400.923
805.951	386.771
806.001	399.153
806.052	414.692
806.103	412.573
806.154	396.477
806.205	398.004
806.255	385.574
806.306	404.216
806.357	386.624
806.408	405.28
806.459	374.565
806.509	402.762
806.56	384.838
806.611	390.35
806.662	394.997
806.713	398.885
806.763	369.999
806.814	384.18
806.865	382.79
806.916	379.721
806.967	385.13
807.017	396.523
807.068	388.978
807.119	390.416
807.17	388.49
807.22	377.545
807.271	393.583
807.322	383.539
807.373	399.265
807.424	376.63
807.474	387.616
807.525	381.554
807.576	378.023
807.627	393.705
807.678	374.364
807.728	370.462
807.779	383.506
807.83	370.695
807.881	399.672
807.931	375.679
807.982	374.777
808.033	386.542
808.084	377.036
808.135	378.818
808.185	377.536
808.236	384.477
808.287	375.223
808.338	372.63
808.388	376.349
808.439	374.242
808.49	374.317
808.541	378.157
808.591	372.928
808.642	391.244
808.693	377.68
808.744	369.767
808.795	386.336
808.845	372.887
808.896	366.585
808.947	376.477
808.998	370.642
809.048	381.542
809.099	367.533
809.15	356.779
809.201	356.105
809.251	374.912
809.302	369.946
809.353	378.259
809.404	364.792
809.454	355.592
809.505	362.27
809.556	356.842
809.607	377.778
809.658	383.743
809.708	367.283
809.759	361.174
809.81	373.632
809.861	353.772
809.911	368.375
809.962	357.942
810.013	382.451
810.064	372.751
810.114	350.441
810.165	371.666
810.216	365.613
810.267	369.139
810.317	350.658
810.368	344.845
810.419	374.795
810.469	362.329
810.52	349.015
810.571	363.961
810.622	351.783
810.627	350.031
810.678	347.928
810.729	357.422
810.78	359.941
810.831	374.05
810.882	360.252
810.933	360.37
810.984	360.47
811.035	351.251
811.086	353.65
811.137	372.333
811.188	342.145
811.239	339.893
811.29	367.936
811.341	349.436
811.392	361.243
811.443	347.425
811.494	354.585
811.545	359.404
811.596	347.869
811.648	336.321
811.699	345.799
811.75	331.927
811.801	353.141
811.852	334.608
811.903	344.143
811.954	365.375
812.005	337.383
812.056	344.484
812.107	356.234
812.158	360.924
812.209	363.258
812.26	351.544
812.311	351.585
812.362	349.337
812.413	361.226
812.464	354.408
812.515	338.215
812.566	333.743
812.617	357.428
812.668	359.882
812.719	359.898
812.77	345.738
812.821	343.318
812.872	352.678
812.923	340.94
812.974	352.799
813.025	352.985
813.076	360.291
813.127	322.85
813.178	332.497
813.229	339.747
813.28	346.948
813.331	325.778
813.382	344.72
813.433	330.613
813.484	325.972
813.535	316.63
813.586	356.943
813.637	342.907
813.688	343.056
813.739	343.206
813.79	329.157
813.841	348.285
813.892	324.792
813.943	329.765
813.994	315.764
814.045	337.367
814.096	339.932
814.147	354.311
814.198	349.576
814.249	339.997
814.3	330.365
814.351	337.359
814.402	330.136
814.453	332.496
814.504	320.71
814.555	335.164
814.606	325.932
814.657	323.869
814.708	333.715
814.759	341.15
814.81	329.429
814.861	358.222
814.912	305.75
814.963	341.613
815.014	341.629
815.065	341.65
815.116	310.632
815.167	341.77
815.217	327.532
815.268	342.002
815.319	327.778
815.37	332.68
815.421	313.623
815.472	342.424
815.523	313.734
815.574	347.291
815.625	304.189
815.676	342.501
815.727	323.304
815.778	323.236
815.829	337.502
815.88	339.784
815.931	313.376
815.982	313.338
816.033	320.553
816.084	320.684
816.135	320.898
816.186	318.773
816.237	319.064
816.288	316.934
816.339	314.744
816.39	334.11
816.441	319.746
816.492	331.759
816.543	338.928
816.594	300.434
816.645	324.474
816.696	312.525
816.747	307.852
816.798	329.703
816.849	322.714
816.9	334.996
816.951	308.681
817.001	316.077
817.052	321.022
817.103	313.86
817.154	328.399
817.205	304.282
817.256	321.212
817.307	314
817.358	340.637
817.409	314.178
817.46	309.523
817.511	304.926
817.562	302.786
817.613	317.619
817.664	313.025
817.715	315.63
817.766	301.143
817.817	298.717
817.868	305.958
817.919	313.192
817.97	337.45
818.021	325.346
818.071	313.292
818.122	310.982
818.173	320.834
818.224	301.509
818.275	313.775
818.326	309.003
818.377	304.224
818.428	323.793
818.479	304.42
818.53	328.901
818.581	314.417
818.632	307.248
818.683	312.279
818.734	314.882
818.785	305.281
818.836	324.992
818.887	315.38
818.938	332.65
818.988	308.319
819.039	318.221
819.09	313.423
819.141	313.511
819.192	308.694
819.243	289.169
819.294	296.6
819.345	301.59
819.396	323.767
819.447	279.731
819.498	294.603
819.549	307.068
819.6	297.459
819.651	287.858
819.702	293.029
819.753	320.386
819.803	305.84
819.854	296.183
819.905	296.357
819.956	294.023
820.007	301.533
820.058	281.814
820.109	331.277
820.16	279.353
820.211	313.942
820.262	296.627
820.313	321.368
820.364	289.299
820.415	294.368
820.465	306.916
820.516	309.6
820.567	285.021
820.618	305.02
820.669	305.144
820.72	300.259
820.771	270.525
820.822	282.982
820.873	273.125
820.924	303.046
820.975	288.301
821.026	303.405
821.076	298.617
821.127	291.304
821.178	283.941
821.229	306.426
821.28	291.511
821.331	289.041
821.382	279.101
821.433	301.579
821.484	306.64
821.535	299.253
821.586	294.365
821.637	276.997
821.687	269.597
821.738	277.17
821.789	287.248
821.84	289.843
821.891	284.953
821.942	272.57
821.993	310.219
822.044	272.814
822.095	282.941
822.146	295.561
822.196	275.594
822.247	278.15
822.298	290.721
822.349	260.692
822.4	270.794
822.451	278.441
822.502	288.662
822.553	278.852
822.604	281.626
822.655	286.92
822.706	294.709
822.756	294.893
822.807	267.28
822.858	287.527
822.909	282.531
822.96	297.712
823.011	272.528
823.062	302.863
823.113	300.378
823.164	297.854
823.214	280.147
823.265	275.039
823.316	267.411
823.367	282.507
823.418	277.459
823.469	287.589
823.52	275.046
823.571	277.655
823.622	282.784
823.672	290.418
823.723	290.446
823.774	275.293
823.825	280.329
823.876	265.158
823.927	295.451
823.978	272.728
824.029	277.801
824.08	250.058
824.13	298.109
824.181	288.073
824.232	290.678
824.283	265.476
824.334	273.14
824.385	270.693
824.436	293.557
824.487	270.875
824.537	270.974
824.588	276.137
824.639	278.757
824.69	283.892
824.741	276.328
824.792	258.604
824.843	263.69
824.893	263.715
824.944	271.367
824.995	261.285
825.046	279.124
825.097	276.67
825.148	264.05
825.199	269.189
825.25	269.244
825.3	274.386
825.351	277.007
825.402	287.283
825.453	277.243
825.504	269.75
825.555	272.43
825.606	277.638
825.657	277.719
825.707	282.857
825.758	275.219
825.809	257.363
825.86	272.624
825.911	290.435
825.962	254.763
826.013	264.968
826.063	270.093
826.114	282.868
826.165	270.148
826.216	252.309
826.267	247.19
826.318	277.727
826.369	264.938
826.419	267.44
826.47	257.219
826.521	277.571
826.572	280.108
826.623	252.096
826.674	259.74
826.725	247.021
826.775	257.234
826.826	270.017
826.877	264.99
826.928	254.878
826.979	267.713
827.03	265.253
827.08	260.231
827.131	262.854
827.182	262.923
827.233	275.762
827.284	280.955
827.335	255.501
827.386	260.697
827.436	268.434
827.487	271.022
827.538	250.551
827.589	268.382
827.64	260.617
827.691	278.398
827.741	255.346
827.792	263.004
827.843	232.436
827.894	276.035
827.945	253.262
827.996	248.407
828.046	253.796
828.097	264.292
828.148	259.334
828.199	244.018
828.25	254.311
828.301	285.09
828.351	243.924
828.402	256.69
828.453	230.989
828.504	264.37
828.555	267.006
828.606	269.688
828.656	251.841
828.707	251.977
828.758	254.672
828.809	254.773
828.86	249.696
828.911	257.465
828.961	254.917
829.012	270.382
829.063	247.215
829.114	260.098
829.165	260.106
829.216	260.119
829.266	249.835
829.317	260.164
829.368	265.353
829.419	252.517
829.47	260.301
829.52	265.513
829.571	255.257
829.622	260.464
829.673	265.67
829.724	252.821
829.774	247.719
829.825	232.31
829.876	260.813
829.927	240.276
829.978	237.822
830.029	250.878
830.079	250.987
830.13	240.714
830.181	264.066
830.232	253.749
830.283	230.478
830.333	246.056
830.384	230.559
830.435	256.509
830.486	243.582
830.537	248.771
830.587	240.979
830.638	274.625
830.689	259.039
830.74	227.93
830.791	233.11
830.841	253.866
830.892	248.753
830.943	228.113
830.994	243.777
831.045	249.079
831.095	251.775
831.146	236.272
831.197	249.298
831.248	246.719
831.299	238.932
831.349	257.12
831.4	241.562
831.451	249.405
831.502	236.483
831.553	233.959
831.603	234.026
831.654	249.678
831.705	236.696
831.756	247.102
831.807	223.685
831.857	247.091
831.908	231.498
831.959	228.928
832.01	247.187
832.061	244.637
832.111	242.08
832.162	244.716
832.213	244.74
832.264	223.933
832.315	229.174
832.365	237.042
832.416	237.123
832.467	232.008
832.518	226.896
832.568	213.944
832.619	234.894
832.67	237.556
832.721	242.806
832.772	234.983
832.822	229.764
832.873	227.159
832.924	237.622
832.975	211.543
833.025	253.39
833.076	229.95
833.127	245.715
833.178	219.654
833.229	251.118
833.279	217.175
833.33	225.076
833.381	243.438
833.432	206.82
833.482	230.413
833.533	238.302
833.584	227.864
833.635	230.523
833.685	235.803
833.736	243.701
833.787	235.875
833.838	230.669
833.889	225.468
833.939	215.029
833.99	230.823
834.041	254.497
834.092	225.686
834.142	228.34
834.193	233.594
834.244	228.329
834.295	215.187
834.345	212.554
834.396	238.818
834.447	228.379
834.498	210.087
834.548	231.205
834.599	236.569
834.65	215.619
834.701	228.821
834.751	226.217
834.802	215.706
834.853	220.975
834.904	226.25
834.954	231.532
835.005	242.077
835.056	218.403
835.107	199.974
835.157	231.521
835.208	231.485
835.259	236.716
835.31	228.819
835.36	226.213
835.411	223.631
835.462	218.43
835.513	223.75
835.563	239.582
835.614	213.262
835.665	250.106
835.716	234.289
835.766	221.122
835.817	229.046
835.868	244.917
835.919	231.856
835.969	234.62
836.02	229.475
836.071	221.666
836.122	229.661
836.172	216.504
836.223	232.361
836.274	227.073
836.325	224.407
836.375	224.368
836.426	229.592
836.477	229.524
836.528	232.084
836.578	237.279
836.629	216.125
836.68	237.164
836.73	245.05
836.781	213.438
836.832	218.734
836.883	208.229
836.933	224.089
836.984	221.503
837.035	234.744
837.086	216.335
837.136	213.744
837.187	224.331
837.238	232.248
837.288	219.015
837.339	224.221
837.39	218.863
837.441	234.614
837.491	210.868
837.542	210.905
837.593	208.361
837.643	213.766
837.694	211.257
837.745	237.775
837.796	214.043
837.846	211.386
837.897	208.684
837.948	227.086
837.999	200.604
838.049	213.743
838.1	221.629
838.151	205.792
838.201	208.435
838.252	213.709
838.303	213.688
838.354	229.47
838.404	232.041
838.455	200.336
838.506	231.904
838.556	202.876
838.607	218.665
838.658	208.127
838.708	231.853
838.759	202.889
838.81	218.718
838.861	197.653
838.911	205.575
838.962	216.138
839.013	213.529
839.063	208.287
839.114	218.871
839.165	187.265
839.216	221.607
839.266	190
839.317	211.172
839.368	192.744
839.418	221.829
839.469	213.921
839.52	221.832
839.57	198.036
839.621	208.562
839.672	213.817
839.722	229.654
839.773	203.283
839.824	203.333
839.875	203.398
839.925	216.679
839.976	195.603
840.027	208.88
840.077	214.222
840.128	219.56
840.179	195.789
840.229	195.816
840.28	209.063
840.331	206.418
840.381	211.699
840.432	209.036
840.483	219.604
840.534	187.85
840.584	214.321
840.635	195.827
840.686	201.162
840.736	201.214
840.787	211.863
840.838	196.028
840.888	206.679
840.939	204.082
840.99	204.133
841.04	182.972
841.091	209.544
841.142	212.252
841.192	214.958
841.243	204.389
841.294	212.392
841.344	193.838
841.395	196.52
841.446	217.794
841.496	220.482
841.547	209.894
841.598	196.655
841.648	196.709
841.699	191.451
841.75	202.152
841.8	207.531
841.851	202.253
841.902	210.255
841.952	215.566
842.003	196.896
842.054	194.172
842.104	204.73
842.155	201.991
842.206	193.954
842.256	180.631
842.307	196.554
842.358	212.501
842.408	201.902
842.459	209.906
842.51	201.967
842.56	196.678
842.611	199.354
842.662	199.367
842.712	217.984
842.763	194.064
842.814	207.358
842.864	194.061
842.915	207.343
842.966	202.015
843.016	194.036
843.067	180.755
843.118	194.076
843.168	194.126
843.219	180.888
843.269	191.591
843.32	204.952
843.371	189.017
843.421	191.7
843.472	194.38
843.523	186.419
843.573	178.474
843.624	205.187
843.675	191.949
843.725	184.033
843.776	194.773
843.827	186.809
843.877	189.489
843.928	194.812
843.979	197.45
844.029	184.076
844.08	178.713
844.13	205.364
844.181	197.353
844.232	186.685
844.282	192.03
844.333	197.39
844.384	194.764
844.434	205.492
844.485	181.529
844.536	192.263
844.586	205.664
844.637	200.357
844.687	189.691
844.738	181.687
844.789	179.024
844.839	187.051
844.89	187.066
844.941	179.066
844.991	203.139
845.042	173.753
845.092	195.156
845.143	192.503
845.194	187.179
845.244	179.182
845.295	176.533
845.346	184.581
845.396	203.326
845.447	173.909
845.497	176.598
845.548	203.38
845.599	179.333
845.649	192.773
845.7	184.807
845.75	187.553
845.801	195.648
845.852	176.921
845.902	195.7
845.953	187.658
846.004	190.338
846.054	160.857
846.105	168.92
846.155	182.36
846.206	179.715
846.257	193.159
846.307	190.495
846.358	190.502
846.409	169.042
846.459	177.106
846.51	174.454
846.56	158.397
846.611	177.254
846.661	196.122
846.712	190.797
846.763	185.439
846.813	177.361
846.864	169.26
846.915	177.269
846.965	182.593
847.016	177.196
847.066	179.879
847.117	179.899
847.168	193.361
847.218	166.538
847.269	188.054
847.319	182.692
847.37	180.005
847.421	169.253
847.471	161.193
847.522	177.324
847.572	174.664
847.623	180.079
847.674	161.308
847.724	177.485
847.775	174.836
847.825	177.558
847.876	174.891
847.926	180.29
847.977	158.777
848.028	172.251
848.078	166.892
848.129	193.847
848.179	164.272
848.23	185.869
848.281	177.839
848.331	177.884
848.382	183.308
848.432	169.849
848.483	161.772
848.534	186.054
848.584	175.297
848.635	169.951
848.685	172.716
848.736	170.094
848.786	170.167
848.837	178.329
848.888	178.367
848.938	181.091
848.989	183.812
849.039	170.323
849.09	189.3
849.14	173.139
849.191	156.972
849.242	170.565
849.292	173.309
849.343	170.609
849.393	176.009
849.444	184.114
849.494	178.699
849.545	167.899
849.596	173.378
849.646	159.911
849.697	173.553
849.747	165.492
849.798	170.97
849.848	168.278
849.899	179.133
849.95	184.543
850	181.809
850.051	160.088
850.101	184.505
850.152	160.092
850.202	165.531
850.253	168.258
850.303	157.415
850.354	170.999
850.405	173.73
850.455	168.322
850.506	171.067
850.556	176.535
850.607	179.294
850.657	165.75
850.708	146.762
850.758	165.821
850.809	182.163
850.86	182.189
850.91	168.61
850.961	176.776
851.011	149.575
851.062	171.316
851.112	160.421
851.163	171.285
851.213	157.697
851.264	171.326
851.314	157.79
851.365	160.6
851.416	166.151
851.466	174.437
851.517	160.902
851.567	166.43
851.618	161.023
851.668	166.511
851.719	171.986
851.769	182.914
851.82	147.428
851.87	166.549
851.921	158.373
851.971	158.398
852.022	174.822
852.073	163.941
852.123	150.325
852.174	155.835
852.224	172.274
852.275	161.354
852.325	145.137
852.376	158.932
852.426	164.01
852.477	161.996
852.527	156.367
852.578	151.037
852.628	161.067
852.679	162.984
852.729	169.023
852.78	163.863
852.831	152.146
852.881	160.422
852.932	166.397
852.982	160.247
853.033	181.015
853.083	146.043
853.134	163.126
853.184	161.604
853.235	164.268
853.285	147.832
853.336	158.42
853.386	167.908
853.437	155.319
853.487	158.409
853.538	154.216
853.588	149.323
853.639	151.242
853.689	155.705
853.74	156.924
853.79	161.676
853.841	149.637
853.891	150.1
853.942	163.842
853.992	170.632
854.043	160.215
854.093	153.342
854.144	151.266
854.194	153.389
854.245	159.608
854.295	152.195
854.346	153.4
854.396	162.905
854.447	147.106
854.497	160.687
854.548	154.918
854.598	161.396
854.649	155.457
854.699	159.844
854.75	155.601
854.8	159.582
854.851	158.988
854.901	154.723
854.952	161.241
855.002	158.116
855.053	164.56
855.103	168.324
855.154	155.598
855.204	155.706
855.255	149.438
855.305	148.093
855.356	153.763
855.406	146.16
855.457	151.224
855.507	160.359
855.558	154.347
855.608	148.79
855.659	146.136
855.709	148.306
855.76	150.874
855.81	143.4
855.861	146.661
855.911	155.545
855.962	155.78
856.012	138.433
856.063	149.6
856.113	151.271
856.164	158.281
856.214	154.811
856.265	153.065
856.315	144.79
856.366	143.934
856.416	147.858
856.467	139.419
856.517	140.358
856.568	154.452
856.618	151.369
856.668	146.864
856.719	156.345
856.769	148.614
856.82	150.747
856.87	155.518
856.921	151.466
856.971	149.936
857.022	144.596
857.072	143.189
857.123	156.277
857.173	152.524
857.224	143.913
857.274	147.035
857.325	146.849
857.352	146.9
857.403	133.051
857.453	152.464
857.504	158.016
857.555	152.477
857.606	155.252
857.656	146.933
857.707	149.699
857.758	138.601
857.809	124.732
857.859	144.131
857.91	152.452
857.961	146.927
858.012	133.096
858.063	160.871
858.113	149.822
858.164	135.985
858.215	144.334
858.266	163.769
858.316	174.854
858.367	144.295
858.418	155.356
858.469	144.224
858.519	146.969
858.57	138.633
858.621	163.575
858.672	152.478
858.722	146.925
858.773	135.823
858.824	141.35
858.875	141.336
858.925	138.558
858.976	141.337
859.027	152.444
859.078	149.701
859.128	138.636
859.179	133.101
859.23	146.96
859.281	152.484
859.331	155.227
859.382	130.26
859.433	146.882
859.483	141.349
859.534	146.914
859.585	133.078
859.636	149.73
859.686	146.961
859.737	138.634
859.788	146.939
859.839	146.933
859.889	144.17
859.94	146.97
859.991	127.593
860.042	130.403
860.092	135.98
860.143	127.664
860.194	133.206
860.245	144.28
860.295	133.152
860.346	144.223
860.397	146.988
860.447	149.777
860.498	155.365
860.549	144.32
860.6	138.825
860.65	161.092
860.701	144.458
860.752	130.575
860.802	144.452
860.853	138.87
860.904	141.618
860.955	141.594
861.005	136.033
861.056	147.144
861.107	124.951
861.158	130.531
861.208	133.339
861.259	147.264
861.31	130.623
861.36	133.432
861.411	130.681
861.462	166.859
861.513	130.726
861.563	141.864
861.614	141.868
861.665	150.208
861.715	125.162
861.766	147.391
861.817	136.241
861.868	141.766
861.918	133.385
861.969	133.337
862.02	144.394
862.07	133.239
862.121	138.752
862.172	138.728
862.223	124.85
862.273	141.506
862.324	141.528
862.375	133.226
862.425	149.901
862.476	144.359
862.527	130.472
862.577	136
862.628	147.063
862.679	127.599
862.73	130.336
862.78	135.858
862.831	155.268
862.882	138.666
862.932	130.406
862.983	130.488
863.034	130.577
863.084	119.537
863.135	127.933
863.186	144.647
863.237	133.509
863.287	147.369
863.338	116.728
863.389	144.447
863.439	133.275
863.49	130.458
863.541	141.541
863.591	130.446
863.642	149.907
863.693	130.519
863.744	125.017
863.794	138.966
863.845	136.234
863.896	130.704
863.946	127.935
863.997	152.963
864.048	133.486
864.098	139.044
864.149	133.491
864.2	155.77
864.25	141.904
864.301	133.599
864.352	155.904
864.402	142.001
864.453	139.212
864.504	130.841
864.555	128.032
864.605	144.705
864.656	130.774
864.707	147.454
864.757	153.004
864.808	155.766
864.859	150.173
864.909	139.012
864.96	125.08
865.011	144.517
865.061	144.522
865.112	127.871
865.163	133.471
865.213	122.388
865.264	130.765
865.315	136.347
865.365	139.128
865.416	130.767
865.467	122.405
865.517	130.743
865.568	147.443
865.619	133.56
865.669	125.25
865.72	122.51
865.771	130.908
865.821	136.519
865.872	133.763
865.923	133.786
865.973	125.444
866.024	128.253
866.075	125.486
866.125	131.086
866.176	122.737
866.227	128.327
866.277	128.328
866.328	128.322
866.379	139.468
866.429	133.88
866.48	105.985
866.531	136.668
866.581	131.098
866.632	108.791
866.683	133.9
866.733	125.529
866.784	142.257
866.835	114.355
866.885	122.721
866.936	145.047
866.987	139.5
867.037	108.85
867.088	131.237
867.138	145.265
867.189	117.375
867.24	117.403
867.29	134.184
867.341	125.787
867.392	125.765
867.442	125.743
867.493	136.906
867.544	136.908
867.594	125.751
867.645	117.397
867.696	134.208
867.746	120.264
867.797	123.093
867.848	142.703
867.898	120.334
867.949	117.546
867.999	131.548
868.05	128.758
868.101	131.568
868.151	128.781
868.202	120.395
868.253	120.407
868.303	120.42
868.354	103.63
868.405	106.447
868.455	106.469
868.506	134.524
868.556	131.766
868.607	109.38
868.658	131.868
868.708	131.914
868.759	115.106
868.81	115.131
868.86	117.957
868.911	117.972
868.961	129.225
869.012	120.815
869.063	129.267
869.113	134.911
869.164	112.445
869.215	126.52
869.265	126.538
869.316	115.305
869.367	115.317
869.417	123.764
869.468	120.952
869.518	137.82
869.569	137.802
869.62	129.346
869.67	129.332
869.721	126.517
869.771	112.468
869.822	126.546
869.873	135.005
869.923	129.394
869.974	120.958
870.025	129.388
870.075	126.561
870.126	109.678
870.176	126.553
870.227	129.385
870.278	126.606
870.328	123.836
870.379	109.807
870.43	118.3
870.48	126.798
870.531	124.026
870.581	115.612
870.632	112.834
870.683	124.161
870.733	110.086
870.784	112.939
870.834	112.962
870.885	127.1
870.936	135.585
870.986	107.343
871.037	127.116
871.087	124.285
871.138	121.451
871.189	129.911
871.239	121.43
871.29	121.431
871.34	110.148
871.391	121.474
871.442	124.341
871.492	132.872
871.543	121.614
871.593	113.172
871.644	124.529
871.695	113.236
871.745	116.086
871.796	133.086
871.846	127.426
871.897	133.085
871.948	130.25
871.998	118.925
872.049	118.937
872.099	124.624
872.15	116.155
872.201	113.348
872.251	130.369
872.302	133.204
872.352	119.021
872.403	124.67
872.453	127.487
872.504	124.649
872.555	99.1592
872.605	121.839
872.656	124.685
872.706	104.852
872.757	121.848
872.808	124.665
872.858	107.651
872.909	124.64
872.959	116.148
873.01	121.835
873.06	119.033
873.111	102.06
873.162	119.105
873.212	110.624
873.263	127.662
873.313	119.157
873.364	130.5
873.415	116.304
873.465	116.293
873.516	102.106
873.566	104.949
873.617	104.968
873.667	124.862
873.718	107.87
873.769	130.613
873.819	122.108
873.87	110.735
873.92	107.856
873.971	121.981
874.021	113.4
874.072	104.835
874.123	96.2962
874.173	127.43
874.224	113.28
874.274	113.313
874.325	99.1915
874.375	130.43
874.426	119.147
874.477	105.01
874.527	102.212
874.578	122.125
874.628	124.991
874.679	116.479
874.729	124.998
874.78	116.458
874.83	127.794
874.881	124.928
874.932	116.393
874.982	127.742
875.033	113.553
875.083	102.209
875.134	105.061
875.184	113.584
875.235	110.735
875.285	99.3616
875.336	102.185
875.387	116.369
875.437	113.539
875.488	93.6896
875.538	107.919
875.589	113.636
875.639	110.824
875.69	119.362
875.74	125.037
875.791	127.85
875.841	124.971
875.892	122.097
875.943	119.239
875.993	119.24
876.044	110.745
876.094	99.4186
876.145	110.822
876.195	116.545
876.246	110.885
876.296	96.6779
876.347	108.049
876.397	110.881
876.448	105.183
876.499	99.4918
876.549	130.763
876.6	119.406
876.65	113.739
876.701	113.763
876.751	113.787
876.802	113.808
876.852	102.444
876.903	113.843
876.953	119.55
877.004	119.566
877.054	105.347
877.105	99.6682
877.155	122.472
877.206	116.798
877.257	91.1777
877.307	96.8936
877.358	116.858
877.408	111.165
877.459	102.613
877.509	114.008
877.56	116.847
877.61	94.0397
877.661	116.831
877.711	111.132
877.762	116.837
877.812	113.996
877.863	102.606
877.913	114.018
877.964	111.181
878.014	99.792
878.065	114.07
878.115	119.803
878.166	116.986
878.216	108.463
878.267	102.792
878.318	111.4
878.368	100.012
878.419	111.484
878.469	108.665
878.52	117.284
878.57	108.736
878.621	105.901
878.671	114.508
878.722	111.656
878.772	114.518
878.823	100.193
878.873	111.623
878.924	108.736
878.974	108.711
879.025	108.691
879.075	108.684
879.126	117.274
879.176	97.2779
879.227	111.633
879.277	103.105
879.328	103.171
879.378	100.37
879.429	131.99
879.479	126.307
879.53	114.858
879.58	114.876
879.631	112.01
879.681	103.393
879.732	120.621
879.782	112.002
879.833	100.514
879.883	120.619
879.934	106.264
879.984	97.6534
880.035	106.279
880.085	120.655
880.136	91.9428
880.186	97.7116
880.237	112.114
880.287	106.402
880.338	117.952
880.388	115.121
880.439	120.924
880.489	106.567
880.54	103.722
880.59	115.286
880.641	103.794
880.691	106.716
880.742	98.0979
880.792	103.898
880.842	115.463
880.893	106.809
880.943	101.03
880.994	101.02
881.044	109.673
881.095	121.224
881.145	101.041
881.196	86.6362
881.246	121.343
881.297	112.727
881.347	95.4226
881.398	115.701
881.448	118.624
881.499	98.3919
881.549	95.5185
881.6	107.123
881.65	110.047
881.701	107.18
881.751	104.308
881.802	101.427
881.852	115.927
881.902	113.032
881.953	101.441
882.003	107.243
882.054	113.052
882.104	113.072
882.155	95.6946
882.205	107.311
882.256	104.418
882.306	101.513
882.357	84.0988
882.407	107.279
882.458	107.265
882.508	104.366
882.559	101.483
882.609	118.918
882.659	104.462
882.71	110.32
882.76	119.087
882.811	107.514
882.861	113.364
882.912	98.8568
882.962	93.0614
883.013	110.53
883.063	107.637
883.114	96.0154
883.164	116.401
883.214	119.334
883.265	107.716
883.315	96.0963
883.366	99.0353
883.416	107.8
883.467	116.562
883.517	99.0878
883.568	107.834
883.618	110.748
883.669	99.0929
883.719	102.019
883.769	104.957
883.82	96.2408
883.87	110.861
883.921	105.058
883.971	113.84
884.022	108.019
884.072	105.112
884.123	96.3654
884.173	110.988
884.223	93.49
884.274	102.288
884.324	96.473
884.375	105.268
884.425	105.281
884.476	96.5096
884.526	96.5056
884.577	105.275
884.627	102.354
884.677	102.366
884.728	84.8367
884.778	102.418
884.829	105.377
884.879	96.6212
884.93	99.569
884.98	93.7219
885.03	84.9353
885.081	99.568
885.131	96.6186
885.182	102.444
885.232	99.4855
885.283	96.5323
885.333	111.139
885.383	99.4398
885.434	93.6061
885.484	108.264
885.535	108.301
885.585	108.329
885.635	111.262
885.686	102.467
885.736	111.228
885.787	108.283
885.837	108.28
885.888	111.224
885.938	114.188
885.988	93.731
886.039	111.349
886.089	99.655
886.14	108.459
886.19	111.383
886.241	84.99
886.291	96.6985
886.341	111.344
886.392	99.6329
886.442	102.587
886.493	90.8915
886.543	99.7179
886.593	114.407
886.644	85.079
886.694	93.8762
886.745	114.399
886.795	105.59
886.845	99.726
886.896	90.9431
886.946	99.7786
886.997	96.8898
887.047	105.754
887.097	102.871
887.148	94.0984
887.198	100.02
887.249	82.3965
887.299	100.079
887.349	103.043
887.4	97.1669
887.45	108.952
887.501	97.1745
887.551	106.008
887.602	97.177
887.652	100.132
887.702	114.88
887.753	97.2335
887.803	88.4234
887.853	97.2973
887.904	97.3234
887.954	85.5426
888.005	94.4027
888.055	115.063
888.105	118.026
888.156	97.3898
888.206	97.4178
888.257	91.5485
888.307	97.4966
888.357	94.5807
888.408	85.7411
888.458	94.628
888.509	106.46
888.559	97.5799
888.609	100.523
888.66	88.6852
888.71	115.286
888.76	94.6001
888.811	91.6604
888.861	106.472
888.912	91.7091
888.962	106.527
889.012	97.6669
889.063	94.7173
889.113	106.563
889.163	85.8452
889.214	85.8501
889.264	97.7016
889.315	94.7559
889.365	94.775
889.415	97.7583
889.466	97.7787
889.516	100.76
889.566	94.8455
889.617	97.8198
889.667	91.9009
889.718	88.9482
889.768	94.8963
889.818	100.854
889.869	94.9534
889.919	103.895
889.969	95.027
890.02	106.944
890.07	101.033
890.12	101.056
890.171	86.2066
890.221	86.2133
890.272	98.1101
890.322	92.1717
890.372	104.082
890.423	98.1633
890.473	101.183
890.523	107.197
890.574	107.27
890.624	95.4201
890.674	95.4851
890.725	83.5973
890.775	89.6062
890.826	83.6531
890.876	101.588
890.926	92.6235
890.977	86.6428
891.027	104.565
891.077	104.568
891.128	86.6538
891.178	104.607
891.228	101.652
891.279	83.7436
891.329	95.7398
891.379	86.7878
891.43	86.8023
891.48	98.7816
891.53	89.8015
891.581	95.788
891.631	95.7942
891.681	77.8478
891.732	77.8755
891.782	95.8964
891.832	107.952
891.883	90.0226
891.933	87.0797
891.983	93.1374
892.034	105.198
892.084	87.1837
892.134	84.1846
892.185	102.225
892.235	93.2087
892.286	96.2298
892.336	96.2607
892.386	81.2608
892.437	93.3589
892.487	90.4091
892.537	93.4825
892.587	99.5662
892.638	99.6064
892.688	87.5603
892.738	84.5655
892.789	84.5938
892.839	81.6064
892.889	90.718
892.94	102.866
892.99	96.8579
893.04	75.6943
893.091	81.7625
893.141	93.8755
893.191	90.8381
893.242	93.8535
893.292	87.7896
893.342	93.8415
893.393	93.8466
893.443	84.7751
893.493	93.8741
893.544	87.8358
893.594	84.8272
893.644	90.9115
893.695	87.9091
893.745	81.8747
893.795	81.9029
893.846	81.929
893.896	94.0928
893.946	106.26
893.996	97.176
894.047	88.0898
894.097	91.1556
894.147	85.1055
894.198	82.0883
894.248	88.1836
894.298	88.1866
894.349	100.343
894.399	94.2519
894.449	91.2087
894.5	91.2201
894.55	100.373
894.6	88.2472
894.65	79.1602
894.701	82.2471
894.751	94.4743
894.801	73.1695
894.852	60.9971
894.902	91.5341
894.952	97.6865
895.003	97.7462
895.053	82.5284
895.103	91.7586
895.153	97.9337
895.204	85.7338
895.254	85.7663
895.304	91.919
895.355	82.7454
895.405	91.9563
895.455	82.7745
895.505	104.252
895.556	82.8037
895.606	85.8882
895.656	85.9078
895.707	92.0659
895.757	92.087
895.807	76.7554
895.858	82.9116
895.908	79.8554
895.958	98.3043
896.008	73.7468
896.059	89.1363
896.109	104.536
896.159	86.1132
896.21	92.2883
896.26	92.3098
896.31	86.1741
896.36	89.2702
896.411	86.2095
896.461	86.2252
896.511	76.9971
896.561	92.4018
896.612	89.3199
896.662	86.2343
896.712	104.709
896.763	80.0778
896.813	77.018
896.863	86.3008
896.913	83.2727
896.964	83.334
897.014	83.3924
897.064	98.8901
897.115	83.4661
897.165	80.3824
897.215	86.5571
897.265	86.5384
897.316	80.3366
897.366	74.1395
897.416	86.4797
897.466	89.5555
897.517	86.4594
897.567	74.1062
897.617	74.1121
897.667	92.6619
897.718	98.8812
897.768	77.2977
897.818	77.3541
897.868	95.991
897.919	86.7579
897.969	92.9961
898.019	93.012
898.069	86.8017
898.12	83.6724
898.17	89.8248
898.22	89.7749
898.27	95.919
898.321	80.4224
898.371	98.9756
898.421	86.6256
898.471	89.7704
898.522	96.0407
898.572	86.8307
898.622	86.9157
898.672	71.4554
898.723	87.0426
898.773	74.6341
898.823	83.9738
898.873	93.303
898.924	77.7493
898.974	90.1908
899.024	74.6494
899.074	80.8861
899.125	88.6821
899.175	87.1379
899.225	80.9127
899.275	99.5663
899.326	65.319
899.376	83.9494
899.426	90.1384
899.476	80.8006
899.527	77.6988
899.577	96.3785
899.627	90.2101
899.677	77.8209
899.728	77.878
899.778	96.6357
899.828	87.3355
899.878	78.0141
899.928	74.9182
899.979	84.3013
