#Acq. time (s)=	5
#Accumulations=	2
#Range (nm)=	520...900
#Windows=	8
#Auto scanning=	Off
#Autofocus=	Off
#AutoExposure=	Off
#Spike filter=	Multiple accum.
#Delay time (s)=	0
#Binning=	1
#Readout mode=	Signal
#DeNoise=	Off
#ICS correction=	On
#Dark correction=	Off
#Inst. Process=	Off
#Detector temperature (°C)=	-59.98
#Instrument=	LabRAM HR Evol
#Detector=	Syncerity OE
#Objective=	x50_VIS
#Grating=	600 (500nm)
#ND Filter=	10%
#Laser=	514nm_Edge
#Hole=	199.981
#Range=	Auto
#StageXY=	Marzhauser
#StageZ=	Marzhauser
#X (µm)=	-1976
#Y (µm)=	7193.7
#Z (µm)=	-4.7
#Full time(mm:ss)=	1:47
#Project=	
#Sample=	
#Site=	
#Title=	LT_191023_M1_centro
#Remark=	
#Date=	27.10.2023 13:25
#Acquired=	27.10.2023 13:25:25
520.044	23.4223
520.097	35.9548
520.149	34.0831
520.201	34.0124
520.254	28.5865
520.306	33.8871
520.359	35.6173
520.411	24.9031
520.464	30.2161
520.516	39.0893
520.569	35.5379
520.621	35.5532
520.674	21.3475
520.726	33.8324
520.778	30.3035
520.831	32.1211
520.883	28.5807
520.936	33.9658
520.988	35.7726
521.041	30.4155
521.093	26.8396
521.146	32.206
521.198	35.7799
521.25	30.4072
521.303	35.7633
521.355	37.5356
521.408	33.9392
521.46	30.34
521.513	35.6554
521.565	33.8318
521.617	35.57
521.67	31.979
521.722	35.5018
521.775	28.3831
521.827	30.1428
521.88	28.3595
521.932	31.8958
521.984	33.6624
522.037	28.3478
522.089	26.5834
522.142	31.9189
522.194	31.947
522.247	31.982
522.299	24.9041
522.352	37.3986
522.404	32.0882
522.456	24.9789
522.509	32.1393
522.561	25.0138
522.614	30.3932
522.666	30.4116
522.719	30.428
522.771	34.0217
522.823	32.2379
522.876	23.2818
522.928	26.8538
522.981	32.2011
523.033	30.3781
523.086	26.7639
523.138	26.7152
523.19	31.9941
523.243	26.609
523.295	26.562
523.348	31.8296
523.4	33.5638
523.453	37.0706
523.505	24.6997
523.557	29.9744
523.61	29.9521
523.662	29.9261
523.715	24.6239
523.767	33.3964
523.82	36.9023
523.872	28.1226
523.924	26.3836
523.977	33.4553
524.029	31.7351
524.082	28.2468
524.134	30.0511
524.186	35.3974
524.239	33.6668
524.291	31.9315
524.344	31.9683
524.396	35.5615
524.449	37.382
524.501	33.858
524.553	37.4578
524.606	30.3472
524.658	35.724
524.711	28.5896
524.763	21.4441
524.815	35.7328
524.868	33.9294
524.92	33.9041
524.973	32.0903
525.025	35.6207
525.078	33.8078
525.13	24.8909
525.182	40.8673
525.235	30.1946
525.287	37.2923
525.34	31.9637
525.392	35.5169
525.444	33.7428
525.497	33.7428
525.549	23.0854
525.602	35.5111
525.654	33.7309
525.706	30.1792
525.759	24.8579
525.811	30.1993
525.864	35.5586
525.916	32.0409
525.969	28.5225
526.021	39.2818
526.073	30.4042
526.126	30.4523
526.178	32.2908
526.231	34.1304
526.283	37.7696
526.335	25.2095
526.388	28.8429
526.44	36.0903
526.493	28.8978
526.545	28.9183
526.597	34.3582
526.65	34.3688
526.702	39.7995
526.755	27.1335
526.807	32.5508
526.859	32.5359
526.912	34.323
526.964	28.8839
527.017	34.2761
527.069	27.0435
527.121	37.8424
527.174	32.4252
527.226	34.2191
527.279	36.0143
527.331	30.607
527.383	30.5998
527.436	34.1885
527.488	35.973
527.54	28.765
527.593	34.1425
527.645	35.9239
527.698	37.7065
527.75	28.7212
527.802	26.9227
527.855	44.8731
527.907	32.3163
527.96	35.9231
528.012	32.3515
528.064	37.7733
528.117	37.8071
528.169	27.0309
528.222	39.6856
528.274	37.9232
528.326	32.5451
528.379	27.1579
528.431	39.891
528.484	27.2408
528.536	38.195
528.588	29.1411
528.641	34.6456
528.693	38.3293
528.745	36.5334
528.798	27.4198
528.85	36.5851
528.903	40.2706
528.955	38.4625
529.007	27.4837
529.06	42.1451
529.112	40.3017
529.164	32.9548
529.217	32.9286
529.269	42.0388
529.322	38.3509
529.374	32.8465
529.426	32.8213
529.479	36.4375
529.531	38.2215
529.584	30.9057
529.636	30.8676
529.688	38.0852
529.741	34.4231
529.793	36.2076
529.845	28.9519
529.898	37.9884
529.95	37.9806
530.003	36.1642
530.055	34.3463
530.107	45.1771
530.16	39.7424
530.212	36.1201
530.264	37.9224
530.317	39.7328
530.369	41.5536
530.422	36.1551
530.474	39.8028
530.526	32.5981
530.579	39.8874
530.631	32.6763
530.683	38.1751
530.736	34.5916
530.788	38.2953
530.841	36.5345
530.893	34.7679
530.945	38.4904
530.998	31.203
531.05	34.9131
531.102	36.7805
531.155	36.8018
531.207	40.501
531.259	34.996
531.312	40.5484
531.364	38.7379
531.417	33.2368
531.469	38.8165
531.521	44.4045
531.574	37.0334
531.626	40.7606
531.678	33.3632
531.731	38.9359
531.783	33.3842
531.835	31.5422
531.888	35.2718
531.94	48.2976
531.992	37.1777
532.045	31.6218
532.097	31.6393
532.15	37.2382
532.202	39.112
532.254	35.3964
532.307	33.544
532.359	46.6102
532.411	35.4468
532.464	26.1407
532.516	39.2495
532.568	33.6768
532.621	33.7089
532.673	28.1126
532.726	35.6284
532.778	43.1409
532.83	39.3915
532.883	39.3876
532.935	41.2567
532.987	41.2508
533.04	35.6223
533.092	35.6203
533.144	41.2423
533.197	41.2383
533.249	41.2317
533.301	39.3499
533.354	43.0899
533.406	37.4658
533.458	31.8462
533.511	33.7224
533.563	41.2195
533.615	43.0915
533.668	35.5887
533.72	37.444
533.773	44.9034
533.825	41.1316
533.877	33.6299
533.93	39.212
533.982	41.0585
534.034	39.1721
534.087	39.1465
534.139	46.5615
534.191	48.3687
534.244	39.0158
534.296	44.5307
534.348	48.1866
534.401	38.8879
534.453	40.7215
534.505	40.7171
534.558	40.7224
534.61	44.4351
534.662	46.2985
534.715	48.1617
534.767	46.3202
534.819	48.1874
534.872	38.9377
534.924	40.8172
534.976	48.2769
535.029	44.6035
535.081	48.3638
535.133	46.5397
535.186	50.291
535.238	42.854
535.29	44.7222
535.343	46.5864
535.395	48.452
535.447	46.5972
535.5	37.292
535.552	42.9102
535.604	50.4075
535.657	46.7073
535.709	41.1309
535.761	50.5118
535.814	43.0569
535.866	44.9617
535.918	43.1246
535.971	43.1653
536.023	50.7201
536.075	41.3598
536.128	41.3782
536.18	54.5427
536.232	35.7164
536.285	48.8304
536.337	39.396
536.389	50.5977
536.442	52.4284
536.494	39.3033
536.546	54.2705
536.599	46.7906
536.651	50.5409
536.703	48.6665
536.755	48.6473
536.808	50.4785
536.86	50.4218
536.912	50.3562
536.965	48.4299
537.017	48.3789
537.069	53.9132
537.122	55.7251
537.174	55.6736
537.226	59.3223
537.279	57.3994
537.331	59.1755
537.383	70.1845
537.436	73.7998
537.488	62.6789
537.54	71.8572
537.593	66.3072
537.645	86.5462
537.697	86.5212
537.75	77.2837
537.802	80.9144
537.854	88.2028
537.906	88.1293
537.959	82.5561
538.011	88.0046
538.063	97.1345
538.116	86.1294
538.168	82.4779
538.22	78.8416
538.273	89.8872
538.325	80.7571
538.377	91.8123
538.43	97.3562
538.482	91.8676
538.534	104.744
538.586	88.2136
538.639	95.5739
538.691	113.971
538.743	110.32
538.796	104.837
538.848	119.596
538.9	119.64
538.953	123.36
539.005	127.065
539.057	134.432
539.109	128.884
539.162	138.043
539.214	123.263
539.266	128.719
539.319	126.823
539.371	112.076
539.423	104.698
539.476	101.006
539.528	100.993
539.58	93.6394
539.633	91.7938
539.685	104.631
539.737	91.7649
539.789	88.0738
539.842	77.0427
539.894	89.8535
539.946	67.8239
539.999	73.2952
540.051	76.9308
540.103	78.7341
540.155	65.8956
540.208	71.368
540.26	75.0151
540.312	64.0351
540.365	67.7046
540.417	60.4074
540.469	64.1053
540.521	78.8149
540.574	64.2006
540.626	62.4081
540.678	56.9284
540.731	69.7992
540.783	67.9643
540.835	56.9396
540.888	56.9391
540.94	64.2962
540.992	51.456
541.044	45.968
541.097	64.3962
541.149	55.2314
541.201	57.104
541.254	57.1303
541.306	53.4654
541.358	57.1729
541.41	62.7261
541.463	57.2068
541.515	59.0626
541.567	53.5286
541.62	62.7556
541.672	47.9874
541.724	51.6809
541.776	49.8461
541.829	44.3265
541.881	49.8962
541.933	64.7197
541.985	44.4011
542.038	46.2626
542.09	51.8104
542.142	61.0378
542.195	46.2094
542.247	64.6364
542.299	59.0387
542.351	57.1376
542.404	55.2432
542.456	49.6766
542.508	60.6704
542.56	60.6315
542.613	56.9267
542.665	56.9021
542.717	62.3864
542.77	56.8635
542.822	53.1777
542.874	58.6577
542.926	53.1363
542.979	54.9421
543.031	54.9132
543.083	51.2249
543.135	56.6856
543.188	54.8365
543.24	58.4809
543.292	54.828
543.344	62.1569
543.397	58.5319
543.449	62.2335
543.501	62.2794
543.554	56.8205
543.606	60.5114
543.658	60.5187
543.71	58.675
543.763	65.985
543.815	58.6277
543.867	56.7749
543.919	58.5953
543.972	64.0902
544.024	65.9352
544.076	54.9642
544.128	76.9788
544.181	60.506
544.233	60.5275
544.285	64.2181
544.337	64.241
544.39	62.4282
544.442	67.9605
544.494	60.6322
544.547	60.647
544.599	68.0097
544.651	64.3407
544.703	56.9919
544.755	69.865
544.808	60.6742
544.86	64.3501
544.912	62.5056
544.965	58.8185
545.017	62.4804
545.069	64.3035
545.121	58.7817
545.174	66.1227
545.226	62.4443
545.278	53.253
545.33	62.4123
545.383	58.7034
545.435	62.3149
545.487	64.077
545.539	58.5199
545.591	69.4282
545.644	67.5593
545.696	52.9358
545.748	65.7072
545.8	63.8778
545.853	52.9159
545.905	54.7143
545.957	61.9631
546.009	60.0849
546.062	58.2078
546.114	69.0609
546.166	65.3784
546.218	67.1551
546.271	61.679
546.323	58.0222
546.375	68.8654
546.427	65.2056
546.48	65.1727
546.532	70.5757
546.584	70.5592
546.636	63.3192
546.689	66.9453
546.741	63.3419
546.793	66.9829
546.845	77.8733
546.898	70.656
546.95	61.6203
547.002	87.0218
547.054	74.3494
547.106	67.1043
547.159	70.7306
547.211	76.1603
547.263	72.5165
547.315	83.3725
547.368	70.671
547.42	77.9122
547.472	76.1048
547.524	76.1205
547.577	83.397
547.629	74.3597
547.681	59.8709
547.733	76.2179
547.785	79.858
547.838	83.4919
547.89	81.6773
547.942	76.2333
547.994	79.8694
548.047	78.0659
548.099	78.0826
548.151	79.9166
548.203	74.4808
548.255	72.6688
548.308	79.9289
548.36	83.5423
548.412	87.1432
548.464	79.8467
548.517	79.811
548.569	72.5259
548.621	81.5652
548.673	67.0505
548.725	77.9166
548.778	79.7306
548.83	81.5508
548.882	81.5599
548.934	76.125
548.987	77.9264
549.039	72.4611
549.091	74.2225
549.143	81.3893
549.195	79.4973
549.248	90.245
549.3	75.7402
549.352	77.4958
549.404	81.0704
549.456	79.2517
549.509	81.0356
549.561	84.6072
549.613	80.9602
549.665	86.29
549.718	86.214
549.77	71.7851
549.822	82.4991
549.874	77.0873
549.926	80.6577
549.979	75.2756
550.031	84.2301
550.083	77.0444
550.135	94.9198
550.187	75.1685
550.24	94.7731
550.292	85.7493
550.344	91.0226
550.396	92.7336
550.448	87.3362
550.501	85.534
550.553	87.3217
550.605	92.6934
550.657	94.5076
550.709	90.9624
550.762	92.7463
550.814	94.504
550.866	101.586
550.918	83.7126
550.97	105.025
551.023	96.0811
551.075	92.4929
551.127	97.8047
551.179	104.888
551.231	104.847
551.284	108.345
551.336	104.732
551.388	101.129
551.44	117.058
551.492	122.368
551.545	108.195
551.597	115.32
551.649	133.093
551.701	133.107
551.753	147.294
551.806	138.391
551.858	156.089
551.91	159.6
551.962	191.499
552.014	196.824
552.067	244.732
552.119	283.795
552.171	344.156
552.223	500.336
552.275	897.904
552.327	1867.23
552.38	3799.76
552.432	7160.98
552.484	12725
552.536	17465.7
552.588	13079.3
552.641	6307.02
552.693	2475.97
552.745	906.704
552.797	545.454
552.849	367.542
552.901	273.286
552.954	232.381
553.006	189.771
553.058	189.765
553.11	164.95
553.162	149.014
553.215	138.411
553.267	136.694
553.319	131.438
553.371	131.516
553.423	119.144
553.475	128.094
553.528	113.888
553.58	113.882
553.632	108.508
553.684	115.559
553.736	103.048
553.788	104.764
553.841	104.725
553.893	111.814
553.945	92.3061
553.997	99.4413
554.049	94.1527
554.102	103.071
554.154	97.7611
554.206	101.323
554.258	95.9862
554.31	94.1988
554.362	90.6321
554.414	90.6175
554.467	106.586
554.519	104.778
554.571	97.6388
554.623	104.697
554.675	90.4669
554.727	95.7601
554.78	99.2864
554.832	97.4983
554.884	93.9358
554.936	88.593
554.988	102.723
555.04	92.0444
555.093	111.445
555.145	90.1617
555.197	98.9463
555.249	107.728
555.301	105.911
555.353	93.503
555.406	89.9125
555.458	93.3581
555.51	98.5436
555.562	93.164
555.614	101.845
555.666	101.749
555.719	105.178
555.771	91.1048
555.823	101.584
555.875	94.5653
555.927	96.3125
555.979	94.5573
556.031	101.547
556.084	106.765
556.136	101.462
556.188	99.649
556.24	90.8477
556.292	108.259
556.344	97.7504
556.396	97.7444
556.449	109.981
556.501	111.758
556.553	101.308
556.605	97.8298
556.657	94.3339
556.709	108.29
556.762	101.275
556.814	108.228
556.866	106.457
556.918	104.696
556.97	97.7142
557.022	99.4702
557.074	90.7675
557.127	111.757
557.179	108.32
557.231	101.392
557.283	111.951
557.335	105.02
557.387	101.578
557.439	101.631
557.492	110.445
557.544	106.988
557.596	101.775
557.648	105.339
557.7	112.426
557.752	101.95
557.804	105.534
557.856	109.123
557.909	110.953
557.961	103.972
558.013	116.375
558.065	118.209
558.117	118.283
558.169	100.695
558.221	107.832
558.273	113.198
558.326	109.698
558.378	109.703
558.43	109.67
558.482	107.842
558.534	125.439
558.586	105.95
558.638	109.457
558.691	116.531
558.743	127.171
558.795	113.093
558.847	118.437
558.899	95.4675
558.951	118.429
559.003	114.841
559.055	107.705
559.108	114.682
559.16	114.589
559.212	105.68
559.264	121.41
559.316	119.516
559.368	110.593
559.42	96.4334
559.472	113.845
559.525	113.748
559.577	113.681
559.629	120.627
559.681	115.341
559.733	108.299
559.785	113.458
559.837	108.111
559.889	113.2
559.941	113.044
559.994	119.839
560.046	114.488
560.098	110.902
560.15	115.992
560.202	122.803
560.254	120.945
560.306	119.067
560.358	122.338
560.41	115.258
560.463	125.374
560.515	106.321
560.567	121.593
560.619	119.744
560.671	123.041
560.723	128.04
560.775	138.136
560.827	117.536
560.879	112.293
560.932	130.864
560.984	118.858
561.036	122.171
561.088	110.242
561.14	118.681
561.192	132.194
561.244	132.128
561.296	125.271
561.348	130.255
561.4	126.788
561.453	123.35
561.505	121.639
561.557	116.584
561.609	128.451
561.661	118.354
561.713	116.696
561.765	131.936
561.817	128.554
561.869	130.238
561.921	125.161
561.974	128.554
562.026	130.27
562.078	133.683
562.13	120.168
562.182	138.797
562.234	123.561
562.286	125.247
562.338	126.941
562.39	133.733
562.442	130.393
562.494	130.461
562.547	140.713
562.599	140.8
562.651	132.389
562.703	142.636
562.755	122.303
562.807	139.334
562.859	139.38
562.911	141.131
562.963	127.58
563.015	132.74
563.067	141.31
563.12	132.852
563.172	156.753
563.224	141.459
563.276	155.125
563.328	146.616
563.38	138.092
563.432	151.719
563.484	138.062
563.536	138.041
563.588	148.242
563.64	148.218
563.692	148.186
563.744	137.924
563.797	156.583
563.849	153.092
563.901	146.199
563.953	141.021
564.005	171.535
564.057	149.425
564.109	154.513
564.161	152.822
564.213	152.822
564.265	144.308
564.317	152.736
564.369	152.639
564.421	162.682
564.474	152.373
564.526	147.152
564.578	147.008
564.63	150.235
564.682	139.953
564.734	154.942
564.786	148.011
564.838	166.286
564.89	144.264
564.942	152.476
564.994	159.029
565.046	140.511
565.098	152.123
565.15	150.354
565.202	150.237
565.255	150.09
565.307	143.248
565.359	151.372
565.411	154.48
565.463	159.242
565.515	168.977
565.567	145.616
565.619	157.04
565.671	153.598
565.723	158.43
565.775	156.669
565.827	158.213
565.879	156.46
565.931	148.119
565.983	148.001
566.035	146.228
566.087	151.015
566.139	175.471
566.192	144.182
566.244	158.796
566.296	150.498
566.348	160.202
566.4	153.558
566.452	158.344
566.504	169.637
566.556	162.975
566.608	154.695
566.66	164.333
566.712	149.585
566.764	167.377
566.816	155.94
566.868	168.894
566.92	157.51
566.972	164.01
567.024	157.535
567.076	164.064
567.128	168.975
567.18	147.885
567.232	169.04
567.285	173.935
567.337	162.567
567.389	162.581
567.441	167.484
567.493	161.02
567.545	159.45
567.597	170.91
567.649	177.494
567.701	156.381
567.753	166.202
567.805	169.502
567.857	164.655
567.909	163.076
567.961	169.667
568.013	173.012
568.065	179.627
568.117	173.176
568.169	184.606
568.221	176.553
568.273	170.218
568.325	176.475
568.377	177.912
568.429	173.226
568.481	179.059
568.533	176.467
568.585	188.759
568.637	166.763
568.69	178.731
568.742	174.032
568.794	190.74
568.846	187.283
568.898	177.81
568.95	178.12
569.002	186.751
569.054	183.624
569.106	194.342
569.158	188.805
569.21	186.102
569.262	191.528
569.314	191.302
569.366	194.407
569.418	195.024
569.47	199.029
569.522	188.808
569.574	192.906
569.626	194.968
569.678	202.209
569.73	191.519
569.782	194.64
569.834	195.936
569.886	207.408
569.938	192.04
569.99	209.607
570.042	201.104
570.094	206.236
570.146	203.812
570.198	196.15
570.25	197.834
570.302	205.288
570.354	202.462
570.406	204.132
570.458	208.298
570.51	209.542
570.562	211.197
570.614	213.344
570.666	222.008
570.718	218.236
570.77	222.252
570.822	221.055
570.874	224.079
570.926	214.24
570.978	224.36
571.03	233.438
571.082	227.887
571.134	228.305
571.186	234.698
571.238	225.588
571.29	228.918
571.342	230.067
571.394	238.036
571.446	238.229
571.498	231.927
571.55	230.161
571.602	243.304
571.654	240.718
571.706	253.005
571.758	252.004
571.81	251.896
571.862	253.773
571.914	250.143
571.966	256.671
572.018	259.372
572.07	262.157
572.122	262.713
572.174	271.351
572.226	276.725
572.278	264.335
572.33	285.134
572.382	288.612
572.434	289.463
572.486	290.033
572.538	290.847
572.59	295.004
572.642	288.212
572.694	286.043
572.746	306.672
572.798	313.997
572.85	306.235
572.902	304.875
572.954	315.394
573.006	328.785
573.058	323.437
573.11	320.563
573.162	331.257
573.214	343.131
573.266	354.783
573.312	360.252
573.364	357.153
573.416	361.797
573.469	355.629
573.521	355.654
573.573	383.517
573.625	391.265
573.677	386.606
573.73	380.35
573.782	391.041
573.834	389.326
573.886	384.525
573.938	399.853
573.991	421.457
574.043	420.037
574.095	411.004
574.147	425.206
574.199	442.489
574.252	445.738
574.304	431.782
574.356	442.398
574.408	446.666
574.46	463.216
574.513	459.725
574.565	467.117
574.617	479.195
574.669	488.219
574.721	474.147
574.774	460.068
574.826	473.658
574.878	477.993
574.93	479.253
574.982	500.485
575.035	497.163
575.087	498.455
575.139	515.076
575.191	519.418
575.243	500.786
575.296	495.962
575.348	498.812
575.4	507.791
575.452	490.761
575.504	502.744
575.556	493.283
575.609	506.69
575.661	498.727
575.713	512.166
575.765	487.592
575.817	501.21
575.87	531.647
575.922	481.351
575.974	494.978
576.026	493.281
576.078	486.929
576.131	488.133
576.183	469.576
576.235	464.753
576.287	452.412
576.339	449.249
576.391	459.79
576.444	453.656
576.496	470.273
576.548	433.777
576.6	462.468
576.652	462.31
576.705	448.484
576.757	422.531
576.809	432.916
576.861	429.671
576.913	443.071
576.965	412.644
577.018	432.127
577.07	403.288
577.122	410.73
577.174	395.544
577.226	415.096
577.279	399.943
577.331	401.405
577.383	395.328
577.435	392.273
577.487	390.72
577.539	399.71
577.592	375.497
577.644	388.957
577.696	369.226
577.748	372.089
577.8	371.933
577.852	368.774
577.905	356.606
577.957	344.462
578.009	381.959
578.061	363.812
578.113	359.192
578.165	345.548
578.218	343.919
578.27	357.298
578.322	352.659
578.374	345.022
578.426	346.381
578.478	350.718
578.531	364.011
578.583	354.797
578.635	368.001
578.687	351.263
578.739	340.511
578.791	337.232
578.844	347.376
578.896	347.079
578.948	348.27
579	325.664
579.052	341.721
579.104	345.86
579.157	347.008
579.209	330.352
579.261	329.98
579.313	335.494
579.365	324.734
579.417	337.581
579.47	343.043
579.522	342.641
579.574	345.227
579.626	349.333
579.678	330.023
579.73	344.493
579.782	339.92
579.835	338.27
579.887	332.201
579.939	340.722
579.991	327.275
580.043	335.723
580.095	345.612
580.148	345.304
580.2	333.388
580.252	343.353
580.304	340.251
580.356	345.889
580.408	328.277
580.46	341.161
580.513	336.611
580.565	345.122
580.617	346.397
580.669	347.705
580.721	340.357
580.773	334.489
580.826	341.667
580.878	335.819
580.93	350.234
580.982	332.81
581.034	345.777
581.086	341.387
581.138	352.914
581.191	354.317
581.243	345.602
581.295	341.237
581.347	348.461
581.399	368.731
581.451	344.203
581.503	373.2
581.556	377.599
581.608	361.704
581.66	355.886
581.712	367.39
581.764	354.299
581.816	362.934
581.868	360.06
581.92	347.12
581.973	367.482
582.025	361.797
582.077	369.082
582.129	373.397
582.181	367.51
582.233	352.908
582.285	383.141
582.338	367.143
582.39	371.446
582.442	364.241
582.494	396.1
582.546	367.246
582.598	381.738
582.65	384.62
582.703	372.995
582.755	387.353
582.807	382.9
582.859	356.786
582.911	400.025
582.963	392.744
583.015	378.275
583.067	376.815
583.12	363.795
583.172	386.834
583.224	379.517
583.276	393.807
583.328	390.761
583.38	394.922
583.432	386.118
583.484	387.398
583.537	398.726
583.589	394.156
583.641	399.575
583.693	413.519
583.745	384.355
583.797	422.584
583.849	397.817
583.901	396.06
583.953	400.112
584.006	391.373
584.058	409.792
584.11	389.627
584.162	406.494
584.214	404.711
584.266	407.114
584.318	400.92
584.37	400.402
584.423	431.106
584.475	420.712
584.527	403.327
584.579	407.243
584.631	429.566
584.683	429.291
584.735	395.15
584.787	420.273
584.839	414.331
584.892	419.633
584.944	412.232
584.996	403.41
585.048	426.884
585.1	430.67
585.152	420.458
585.204	428.515
585.256	421.225
585.308	419.596
585.361	437.582
585.413	412.252
585.465	409.285
585.517	421.653
585.569	411.652
585.621	430.932
585.673	429.293
585.725	431.877
585.777	434.529
585.83	424.731
585.882	428.942
585.934	444.362
585.986	447.288
586.038	434.888
586.09	416.878
586.142	447.622
586.194	444.849
586.246	421.121
586.298	432.243
586.351	451.759
586.403	454.606
586.455	429.636
586.507	443.788
586.559	456.591
586.611	448.435
586.663	438.812
586.715	445.868
586.767	443.057
586.819	449.978
586.872	452.704
586.924	437.312
586.976	442.952
587.028	469.635
587.08	450.249
587.132	451.844
587.184	447.819
587.236	445.14
587.288	452.2
587.34	464.812
587.392	466.195
587.445	454.972
587.497	464.755
587.549	442.351
587.601	461.941
587.653	480.114
587.705	449.27
587.757	453.39
587.809	468.681
587.861	471.376
587.913	461.502
587.965	461.449
588.018	464.223
588.07	469.811
588.122	453.022
588.174	464.167
588.226	452.888
588.278	449.932
588.33	458.08
588.382	470.347
588.434	470.007
588.486	468.268
588.538	447.056
588.59	470.451
588.642	477.17
588.695	463.057
588.747	444.798
588.799	455.722
588.851	462.446
588.903	460.805
588.955	475.783
589.007	467.145
589.059	495.881
589.111	458.088
589.163	476.994
589.215	469.564
589.267	460.738
589.319	473.98
589.372	474.851
589.424	477.176
589.476	489.208
589.528	464.224
589.58	479.12
589.632	466.558
589.684	486.885
589.736	467.374
589.788	462.891
589.84	467.946
589.892	452.472
589.944	480.751
589.996	472.19
590.048	488.261
590.101	475.756
590.153	461.942
590.205	467.215
590.257	462.926
590.309	455.875
590.361	450.153
590.413	459.378
590.465	455.048
590.517	445.378
590.569	461.603
590.621	456.192
590.673	450.828
590.725	452.254
590.777	449.562
590.829	440.001
590.881	464.293
590.933	465.405
590.986	461.025
591.038	452.559
591.09	448.185
591.142	445.228
591.194	445.06
591.246	443.622
591.298	442.246
591.35	439.542
591.402	446.29
591.454	457.053
591.506	456.951
591.558	435.194
591.61	443.169
591.662	429.545
591.714	422.709
591.766	434.803
591.818	441.503
591.87	441.451
591.923	430.593
591.975	431.885
592.027	430.487
592.079	423.709
592.131	433.139
592.183	438.525
592.235	426.359
592.287	435.755
592.339	412.75
592.391	435.592
592.443	434.162
592.495	434.107
592.547	417.914
592.599	419.282
592.651	443.595
592.703	442.296
592.755	426.147
592.807	419.411
592.859	451.755
592.911	432.829
592.963	434.111
593.015	431.331
593.068	437.966
593.12	417.631
593.172	418.832
593.224	437.511
593.276	411.752
593.328	420.978
593.38	430.195
593.432	438.062
593.484	441.899
593.536	436.345
593.588	426.786
593.64	437.386
593.692	431.921
593.744	451.979
593.796	433.177
593.848	423.779
593.9	442.537
593.952	429.081
594.004	447.759
594.056	435.555
594.108	459.496
594.16	439.211
594.212	435.01
594.264	442.872
594.316	444.061
594.368	437.243
594.42	425.087
594.472	445.007
594.524	426.169
594.576	443.399
594.628	439.261
594.68	440.468
594.732	438.999
594.784	436.174
594.837	451.971
594.889	455.699
594.941	454.035
594.993	456.329
595.045	459.954
595.097	455.657
595.149	450.133
595.201	459.33
595.253	447.391
595.305	447.471
595.357	439.605
595.409	447.649
595.461	434.381
595.513	438.311
595.565	442.181
595.617	464.602
595.669	457.818
595.721	448.42
595.773	448.367
595.825	440.409
595.877	457.668
595.929	460.295
595.981	462.841
596.033	452.029
596.085	445.114
596.137	456.674
596.189	466.86
596.241	467.779
596.293	474.003
596.345	461.785
596.397	479.951
596.449	465.195
596.501	472.896
596.553	492.5
596.605	480.56
596.657	493.694
596.709	472.635
596.761	463.433
596.813	471.328
596.865	446.279
596.917	452.798
596.969	434.299
597.021	471.082
597.073	452.619
597.125	472.332
597.177	469.676
597.229	466.992
597.281	456.37
597.333	445.704
597.385	450.79
597.437	458.507
597.489	461.009
597.541	466.206
597.593	447.835
597.645	449.211
597.697	446.656
597.749	486.11
597.801	467.692
597.853	450.517
597.905	471.376
597.957	459.391
598.009	456.633
598.061	469.693
598.113	468.413
598.165	465.902
598.217	468.683
598.269	474.084
598.321	478.12
598.373	466.319
598.425	464.964
598.477	453.075
598.529	462.214
598.581	458.267
598.633	464.878
598.685	489.912
598.737	476.858
598.789	469.022
598.841	472.968
598.893	450.62
598.945	465.079
598.997	478.296
599.049	450.871
599.101	480.069
599.153	469.882
599.205	471.542
599.257	475.793
599.309	489.195
599.361	478.768
599.413	464.302
599.465	473.535
599.517	462.973
599.569	473.537
599.62	470.95
599.672	465.768
599.724	472.507
599.776	462.121
599.828	450.424
599.88	474.393
599.932	489.099
599.984	485.25
600.036	466.79
600.088	477.365
600.14	468.073
600.192	464.074
600.244	457.467
600.296	453.559
600.348	473.511
600.4	488.218
600.452	469.847
600.504	479.231
600.556	471.342
600.608	470
600.66	464.623
600.712	479.059
600.764	468.343
600.816	472.206
600.868	468.179
600.92	474.788
600.972	468.219
601.024	482.842
601.076	469.688
601.128	471.064
601.18	480.354
601.232	476.391
601.284	468.438
601.335	496.19
601.387	477.597
601.439	481.448
601.491	495.811
601.543	487.624
601.595	478.062
601.647	489.58
601.699	460.18
601.751	499.331
601.803	477.874
601.855	469.621
601.907	485.064
601.959	497.889
602.011	485.794
602.063	479.01
602.115	473.588
602.167	469.509
602.219	460.178
602.271	470.459
602.323	485.874
602.375	486.757
602.427	460.089
602.478	463.453
602.53	457.684
602.582	493.666
602.634	463.305
602.686	473.407
602.738	473.182
602.79	482.099
602.842	467.634
602.894	473.929
602.946	499.64
602.998	487.66
603.05	471.772
603.102	466.253
603.154	463.336
603.206	488.901
603.258	466.636
603.31	485.765
603.362	481.646
603.413	483.985
603.465	459.225
603.517	475.739
603.569	471.62
603.621	470.099
603.673	475.053
603.725	469.761
603.777	481.259
603.829	472.221
603.881	486.38
603.933	495.399
603.985	478.66
604.037	488.892
604.089	477.195
604.141	477.032
604.193	489.71
604.244	480.565
604.296	462.495
604.348	480.479
604.4	486.972
604.452	476.802
604.504	480.776
604.556	486.02
604.608	493.817
604.66	483.605
604.712	491.421
604.764	483.838
604.816	478.864
604.868	481.632
604.92	476.663
604.971	481.964
605.023	493.67
605.075	466.675
605.127	482.223
605.179	488.783
605.231	482.502
605.283	493.047
605.335	472.636
605.387	470.28
605.439	502.77
605.491	495.131
605.543	484.838
605.594	490.026
605.646	493.935
605.698	484.97
605.75	473.496
605.802	489.273
605.854	499.937
605.906	483.397
605.958	504.383
606.01	490.262
606.062	483.799
606.114	492.794
606.166	495.231
606.217	489.87
606.269	496.194
606.321	485.733
606.373	498.651
606.425	481.832
606.477	485.747
606.529	503.891
606.581	489.609
606.633	489.524
606.685	497.163
606.737	494.416
606.789	495.547
606.84	475.997
606.892	482.347
606.944	499.067
606.996	488.66
607.048	491.194
607.1	478.215
607.152	496.234
607.204	492.246
607.256	481.752
607.308	478.957
607.359	505.792
607.411	491.297
607.463	481.965
607.515	494.557
607.567	494.301
607.619	501.812
607.671	492.634
607.723	477.053
607.775	489.761
607.827	507.585
607.878	489.408
607.93	504.611
607.982	499.253
608.034	499.015
608.086	505.168
608.138	510.003
608.19	485.345
608.242	496.53
608.294	514.094
608.345	497.162
608.397	508.412
608.449	504.406
608.501	504.302
608.553	513.176
608.605	491.421
608.657	506.65
608.709	502.68
608.761	510.132
608.812	504.785
608.864	507.072
608.916	500.456
608.968	506.615
609.02	507.731
609.072	503.811
609.124	493.576
609.176	506.271
609.228	506.262
609.279	503.716
609.331	511.345
609.383	504.978
609.435	502.423
609.487	511.311
609.539	484.588
609.591	517.648
609.643	501.116
609.694	501.129
609.746	501.151
609.798	515.166
609.85	524.084
609.902	517.714
609.954	525.299
610.006	532.837
610.058	533.964
610.109	489.291
610.161	519.569
610.213	512.974
610.265	519.068
610.317	515.014
610.369	512.253
610.421	512.061
610.473	523.314
610.524	506.733
610.576	505.394
610.628	504.081
610.68	525.574
610.732	511.604
610.784	522.952
610.836	525.431
610.887	517.787
610.939	507.631
610.991	513.957
611.043	534.228
611.095	513.992
611.147	516.526
611.199	524.083
611.25	518.926
611.302	536.487
611.354	537.539
611.406	509.472
611.458	528.16
611.51	522.827
611.562	536.443
611.614	519.787
611.665	544.786
611.717	531.965
611.769	531.754
611.821	525.222
611.873	540.061
611.925	530.948
611.977	518.065
612.028	536.635
612.08	531.363
612.132	527.401
612.184	539.794
612.236	533.347
612.288	535.629
612.339	527.782
612.391	533.619
612.443	528.101
612.495	525.069
612.547	540.82
612.599	542.922
612.651	550.146
612.702	536.292
612.754	553.7
612.806	548.676
612.858	562.307
612.91	529.719
612.962	556.854
613.013	536.562
613.065	510.032
613.117	544.449
613.169	535.37
613.221	538.759
613.273	552.105
613.325	536.928
613.376	550.257
613.428	554.865
613.48	549.522
613.532	530.55
613.584	537.545
613.635	560.59
613.687	536.737
613.739	519.109
613.791	536.022
613.843	536.905
613.895	559.925
613.947	560.764
613.998	556.686
614.05	552.637
614.102	548.643
614.154	541.042
614.206	547.008
614.258	557.939
614.309	564.005
614.361	555.378
614.413	570.046
614.465	566.315
614.517	561.345
614.568	563.711
614.62	559.927
614.672	558.565
614.724	553.497
614.776	555.746
614.828	545.739
614.879	574.883
614.931	557.566
614.983	569.638
615.035	581.746
615.087	548.669
615.139	571.811
615.19	555.838
615.242	553.274
615.294	577.544
615.346	584.689
615.398	589.386
615.449	578.231
615.501	571.968
615.553	577.899
615.605	566.744
615.657	589.684
615.709	584.57
615.76	569.712
615.812	573.128
615.864	575.348
615.916	581.242
615.968	584.719
616.019	582.023
616.071	575.793
616.123	594.332
616.175	578.228
616.227	577.074
616.278	575.337
616.33	582.197
616.382	588.841
616.434	583.096
616.486	578.7
616.537	586.175
616.589	594.951
616.641	581.733
616.693	577.424
616.745	598.532
616.797	586.659
616.848	583.434
616.9	602.023
616.952	591.78
617.004	586.708
617.056	581.229
617.107	612.339
617.159	594.151
617.211	566.543
617.263	575.045
617.315	576.587
617.366	580.757
617.418	584.237
617.47	593.436
617.522	571.963
617.573	584.105
617.625	588.541
617.677	587.573
617.729	578.455
617.781	590.096
617.832	588.745
617.884	581.628
617.936	596.928
617.988	598.664
618.04	587.349
618.091	601.044
618.143	588.338
618.195	597.901
618.247	599.642
618.299	574.493
618.35	594.883
618.402	603.653
618.454	604.182
618.506	592.494
618.557	597.416
618.609	593.549
618.661	609.715
618.713	590.625
618.765	597.532
618.816	599.454
618.868	606.952
618.92	604.703
618.972	590.745
619.023	596.115
619.075	607.205
619.127	612.197
619.179	597.136
619.231	597.558
619.282	591.344
619.334	613.991
619.386	601.682
619.438	593.506
619.49	596.442
619.541	610.21
619.593	604.305
619.645	606.919
619.697	596.883
619.748	606.384
619.8	606.806
619.852	603.433
619.904	609.219
619.955	600.654
620.007	610.432
620.059	608.656
620.111	604.51
620.162	604.186
620.214	590.464
620.266	598.483
620.318	585.179
620.37	586.758
620.421	600.155
620.473	615.173
620.525	615.447
620.577	611.921
620.628	608.765
620.68	607.402
620.732	605.898
620.784	595.17
620.835	612.852
620.887	601.488
620.939	604.207
620.991	613.398
621.042	620.682
621.094	610.315
621.146	611.222
621.198	619.93
621.249	616.388
621.269	612.652
621.321	602.87
621.373	608.308
621.425	604.343
621.477	620.352
621.529	629.363
621.581	613.826
621.633	600.707
621.685	633.311
621.737	612.124
621.789	609.726
621.841	613.231
621.893	612.097
621.945	633.228
621.997	629.791
622.049	614.634
622.101	611.147
622.153	619.307
622.205	605.147
622.257	633.029
622.309	624.54
622.361	614.819
622.413	609.746
622.465	607.018
622.517	604.344
622.569	615.717
622.621	603.813
622.673	628.062
622.725	606.865
622.776	626.422
622.828	636.634
622.88	624.729
622.932	614.013
622.984	616.125
623.036	605.493
623.088	615.81
623.14	622.646
623.192	623.651
623.244	630.414
623.296	627.829
623.348	619.395
623.4	623.694
623.452	641.896
623.504	613.789
623.556	633.216
623.608	629.527
623.66	637.431
623.712	644.159
623.764	618.469
623.816	633.176
623.868	623.547
623.92	626.568
623.972	624.944
624.024	630.235
624.076	643.603
624.128	619.028
624.18	646.285
624.232	640.245
624.284	637.719
624.336	622.614
624.388	604.104
624.44	628.093
624.492	611.861
624.544	636.891
624.596	623.967
624.648	636.196
624.699	641.477
624.751	635.276
624.803	615.366
624.855	642.38
624.907	629.419
624.959	629.07
625.011	612.771
625.063	645.544
625.115	645.233
625.167	634.677
625.219	623.011
625.271	629.602
625.323	622.566
625.375	629.221
625.427	642.717
625.479	643.697
625.531	642.382
625.583	631.943
625.635	640.793
625.687	641.661
625.739	635.707
625.791	656.997
625.843	641.99
625.895	629.281
625.946	649.47
625.998	649.268
626.05	628.697
626.102	647.804
626.154	646.56
626.206	648.755
626.258	630.609
626.31	650.98
626.362	646.451
626.414	648.704
626.466	655.46
626.518	630.483
626.57	641.681
626.622	650.551
626.674	648.04
626.726	648.865
626.778	667.737
626.83	653.864
626.882	654.758
626.934	643.366
626.985	654.694
627.037	658.24
627.089	634.738
627.141	639.44
627.193	648.571
627.245	658.703
627.297	665.321
627.349	670.727
627.401	660.312
627.453	652.198
627.505	662.207
627.557	665.508
627.609	667.716
627.661	664.278
627.713	649.521
627.765	670.783
627.817	662.675
627.868	648.914
627.92	645.315
627.972	665.395
628.024	666.365
628.076	670.727
628.128	664.957
628.18	670.417
628.232	656.741
628.284	673.431
628.336	657.554
628.388	664.224
628.44	679.955
628.492	667.647
628.544	678.966
628.596	676.786
628.647	676.82
628.699	668.944
628.751	667.791
628.803	665.514
628.855	659.885
628.907	686.881
628.959	666.678
629.011	692.568
629.063	677.964
629.115	667.831
629.167	674.536
629.219	671.106
629.271	701.387
629.322	688.944
629.374	684.354
629.426	678.613
629.478	697.548
629.53	695.095
629.582	704.956
629.634	697.952
629.686	703.279
629.738	689.532
629.79	700.446
629.842	687.819
629.894	702.075
629.945	679.395
629.997	681.377
630.049	685.645
630.101	697.799
630.153	699.941
630.205	705.467
630.257	704.285
630.309	717.599
630.361	681.685
630.413	673.67
630.465	694.667
630.517	706.719
630.568	678.614
630.62	716.413
630.672	687.313
630.724	692.848
630.776	700.631
630.828	715.095
630.88	701.625
630.932	715.974
630.984	719.088
631.036	713.206
631.088	709.495
631.14	701.295
631.191	712.01
631.243	731.635
631.295	733.512
631.347	717.685
631.399	726.376
631.451	706.253
631.503	710.604
631.555	733.846
631.607	709.35
631.659	752.56
631.71	728.048
631.762	719.065
631.814	721.156
631.866	742.068
631.918	715.23
631.97	736.009
632.022	726.797
632.074	737.497
632.126	730.499
632.178	733.54
632.229	744.445
632.281	731.155
632.333	741.217
632.385	721.478
632.437	760.399
632.489	751.682
632.541	753.948
632.593	750.591
632.645	756.029
632.696	758.125
632.748	769.087
632.8	731.39
632.852	751.254
632.904	746.772
632.956	772.126
633.008	749.854
633.06	785.016
633.112	789.147
633.164	773.371
633.215	760.955
633.267	762.974
633.319	781.64
633.371	778.303
633.423	779.43
633.475	792.706
633.527	779.449
633.579	779.375
633.63	785.856
633.682	780.144
633.734	804.203
633.786	785.252
633.838	819.272
633.89	790.47
633.942	819.003
633.994	789.092
634.046	804.323
634.097	817.3
634.149	800.524
634.201	794.804
634.253	816.696
634.305	810.1
634.357	809.147
634.409	830.332
634.461	838.375
634.512	815.567
634.564	824.662
634.616	844.701
634.668	848.097
634.72	844.769
634.772	839.138
634.824	860.988
634.876	892.689
634.927	869.263
634.979	873.413
635.031	864.421
635.083	885.266
635.135	873.189
635.187	873.304
635.239	895.473
635.291	902.185
635.342	891.18
635.394	907.603
635.446	925.029
635.498	925.884
635.55	927.847
635.602	941.969
635.654	934.152
635.705	953.907
635.757	981.397
635.809	969.276
635.861	979.124
635.913	982.323
635.965	999.782
636.017	998.537
636.068	997.333
636.12	1014.9
636.172	1014.98
636.224	998.654
636.276	1031.85
636.328	1036.4
636.38	1045.2
636.431	1044.99
636.483	1046.76
636.535	1027.48
636.587	1071.87
636.639	1077.87
636.691	1113.68
636.743	1090.49
636.794	1090.61
636.846	1082.14
636.898	1096.79
636.95	1097.15
637.002	1099.57
637.054	1106.19
637.106	1111.51
637.157	1113.35
637.209	1123.88
637.261	1098.18
637.313	1107.64
637.365	1127.07
637.417	1131.24
637.469	1120.15
637.52	1112.39
637.572	1129.84
637.624	1108.92
637.676	1113.2
637.728	1129.55
637.78	1133.89
637.831	1108.71
637.883	1095.65
637.935	1105.65
637.987	1110.19
638.039	1120.21
638.091	1110.47
638.143	1110.53
638.194	1082
638.246	1102.69
638.298	1087.1
638.35	1077.98
638.402	1054.55
638.454	1080.37
638.505	1055.86
638.557	1073
638.609	1071.63
638.661	1062.71
638.713	1064.83
638.765	1065.93
638.816	1039.75
638.868	1046.38
638.92	1046.42
638.972	1026.7
639.024	1035.3
639.076	1037.21
639.127	1021.55
639.179	1001.49
639.231	1032.79
639.283	1039.08
639.335	1008.4
639.387	1002.95
639.438	999.761
639.49	1006.41
639.542	994.47
639.594	958.463
639.646	984.645
639.698	988.988
639.749	999.894
639.801	976.968
639.853	979.122
639.905	977.933
639.957	966.823
640.008	969.802
640.06	969.447
640.112	964.739
640.164	984.094
640.216	978.53
640.268	992.765
640.319	962.497
640.371	979.235
640.423	958.967
640.475	992.158
640.527	948.866
640.578	958.932
640.63	977.58
640.682	965.484
640.734	969.64
640.786	976.986
640.838	948.297
640.889	954.569
640.941	965.274
640.993	967.333
641.045	970.54
641.097	958.488
641.148	966.015
641.2	940.746
641.252	965.524
641.304	952.096
641.356	976.799
641.408	941.695
641.459	964.429
641.511	949.202
641.563	977.611
641.615	976.638
641.667	958.162
641.718	960.234
641.77	955.629
641.822	952.014
641.874	933.154
641.926	931.766
641.977	950.066
642.029	931.55
642.081	960.987
642.133	956.803
642.185	962.419
642.236	960.381
642.288	971.319
642.34	949.538
642.392	966.834
642.444	957.977
642.495	976.282
642.547	979.373
642.599	962.925
642.651	963.893
642.703	946.394
642.754	972.333
642.806	962.368
642.858	964.288
642.91	968.316
642.962	964.705
643.013	971.936
643.065	980.268
643.117	975.622
643.169	962.339
643.221	957.74
643.272	965.041
643.324	963.639
643.376	994.675
643.428	966.168
643.479	975.564
643.531	953.669
643.583	989.185
643.635	951.312
643.687	981.661
643.738	1007.76
643.79	985.172
643.842	994.926
643.894	961.276
643.946	970.727
643.997	947.631
644.049	987.13
644.101	961.824
644.153	998.107
644.205	981.604
644.256	982.461
644.308	989.858
644.36	973.574
644.412	991.813
644.463	966.954
644.515	975.551
644.567	968.03
644.619	969.182
644.671	973.593
644.722	990.935
644.774	984.516
644.826	999.619
644.878	985.581
644.929	984.491
644.981	998.526
645.033	999.646
645.085	988.89
645.136	982.388
645.188	988.735
645.24	1020.87
645.292	1002.31
645.344	989.188
645.395	1004.2
645.447	1003.2
645.499	1007.71
645.551	983.199
645.602	978.093
645.654	985.906
645.706	1021.76
645.758	1008
645.81	1024.54
645.861	999.057
645.913	1017.94
645.965	1031.48
646.017	1008.22
646.068	1002.14
646.12	1026.22
646.172	1026.33
646.224	1016.53
646.275	993.634
646.327	1031.27
646.379	1019.09
646.431	1029.64
646.482	1024.03
646.534	1020.68
646.586	1020.66
646.638	1005.59
646.689	1037.05
646.741	1025.25
646.793	1010.14
646.845	1024.17
646.896	1015.46
646.948	1026.21
647	1025.11
647.052	1037.05
647.104	1050.11
647.155	1029.63
647.207	1050.16
647.259	1029.46
647.31	1034.58
647.362	1034.17
647.414	1063.97
647.466	1040.88
647.518	1049.23
647.569	1032.88
647.621	1043.65
647.673	1018.87
647.724	1048.06
647.776	1044.82
647.828	1046.87
647.88	1022.92
647.931	1053.93
647.983	1041.78
648.035	1056.66
648.087	1053.32
648.138	1046.88
648.19	1052.39
648.242	1038.54
648.294	1044.09
648.345	1063.59
648.397	1056.03
648.449	1049.44
648.501	1079.42
648.552	1065.11
648.604	1064.78
648.656	1042.87
648.708	1051.13
648.759	1051.86
648.811	1077.37
648.863	1049.14
648.915	1084.47
648.966	1062.86
649.018	1072.5
649.07	1106.9
649.121	1092.84
649.173	1087.3
649.225	1104.25
649.277	1071.68
649.328	1073.51
649.38	1089.35
649.432	1066.59
649.484	1093.3
649.535	1059.91
649.587	1093.07
649.639	1096.09
649.69	1112.96
649.742	1102.91
649.794	1111.07
649.846	1108.52
649.897	1091.05
649.949	1107.99
650.001	1127.18
650.053	1104.66
650.104	1101.48
650.156	1105.81
650.208	1113.37
650.259	1109.13
650.311	1086.7
650.363	1120.05
650.415	1139.53
650.466	1135.5
650.518	1130.46
650.57	1099.71
650.621	1111.86
650.673	1116.47
650.725	1128.5
650.777	1142.57
650.828	1127.52
650.88	1127.4
650.932	1159.42
650.984	1139.91
651.035	1146.21
651.087	1134.37
651.139	1134.43
651.19	1121.71
651.242	1143.37
651.294	1139.25
651.345	1142.59
651.397	1146.94
651.449	1145.89
651.501	1150.25
651.552	1165.44
651.604	1143.16
651.656	1163.97
651.707	1145.07
651.759	1141.17
651.811	1179.12
651.863	1148.04
651.914	1150.16
651.966	1184.44
652.018	1196.1
652.069	1184.14
652.121	1163.67
652.173	1174.49
652.224	1185.4
652.276	1163
652.328	1191.2
652.38	1187.16
652.431	1183.15
652.483	1160.89
652.535	1193.6
652.586	1163.84
652.638	1196.52
652.69	1195.65
652.741	1181.64
652.793	1201.93
652.845	1210.21
652.897	1205.49
652.948	1206.23
653	1216.8
653.052	1193.1
653.103	1220.16
653.155	1202.07
653.207	1225.93
653.258	1224.88
653.31	1230.09
653.362	1209.25
653.413	1214.11
653.465	1251.15
653.517	1234.4
653.568	1218.82
653.62	1203.36
653.672	1258.92
653.724	1203.89
653.775	1234.79
653.827	1232.34
653.879	1211.54
653.93	1244.29
653.982	1254.44
654.034	1253.89
654.085	1251.3
654.137	1234.93
654.189	1212.26
654.24	1247.45
654.292	1250.44
654.344	1266.1
654.395	1239.81
654.447	1222.99
654.499	1229.61
654.55	1238.39
654.602	1248.33
654.654	1253.03
654.705	1275.93
654.757	1257.23
654.809	1281.07
654.86	1264.35
654.912	1283.77
654.964	1240.51
655.016	1270.74
655.067	1251.22
655.119	1254.19
655.17	1282.76
655.222	1258.25
655.274	1303.76
655.326	1290.75
655.377	1292.45
655.429	1297.2
655.481	1312.44
655.532	1279.92
655.584	1279.2
655.635	1308.19
655.687	1344.73
655.739	1265.11
655.79	1332.75
655.842	1313.82
655.894	1320.34
655.945	1305.62
655.997	1324.58
656.049	1309.47
656.1	1319.58
656.152	1346.51
656.204	1329.09
656.255	1331.87
656.307	1337.95
656.359	1335.67
656.41	1329.17
656.462	1335.26
656.514	1335.95
656.565	1372.41
656.617	1346.61
656.669	1362
656.72	1360.65
656.772	1371.06
656.824	1383.73
656.875	1384.94
656.927	1356.73
656.979	1399.24
657.03	1365.93
657.082	1386.52
657.134	1388.21
657.185	1370.94
657.237	1359.95
657.288	1365.73
657.34	1395.6
657.392	1391.4
657.443	1381.7
657.495	1381.4
657.547	1396.96
657.598	1408.4
657.65	1384.09
657.702	1359.97
657.753	1392
657.805	1388.17
657.857	1412.9
657.908	1401.66
657.96	1400.97
658.011	1369.59
658.063	1402.83
658.115	1389.57
658.166	1408.17
658.218	1411.99
658.27	1393.54
658.321	1428.06
658.373	1407.3
658.425	1417.21
658.476	1416.4
658.528	1403.87
658.579	1430.65
658.631	1429.87
658.683	1423.83
658.734	1424.18
658.786	1417.08
658.838	1388.67
658.889	1437.86
658.941	1433.9
658.992	1424.69
659.044	1426.25
659.096	1417.31
659.147	1439.38
659.199	1441.27
659.251	1454.88
659.302	1466.28
659.354	1411.36
659.406	1451.3
659.457	1422.73
659.509	1480.53
659.56	1440.98
659.612	1438.66
659.664	1432.98
659.715	1449.58
659.767	1450.03
659.818	1406.68
659.87	1465.7
659.922	1440.55
659.973	1416.6
660.025	1409.83
660.077	1449
660.128	1437.23
660.18	1407.53
660.231	1425.88
660.283	1410.22
660.335	1393.48
660.386	1429.86
660.438	1439.39
660.49	1412.44
660.541	1443.83
660.593	1425.04
660.644	1416.89
660.696	1419.47
660.748	1434.94
660.799	1437.74
660.851	1401.26
660.902	1392.35
660.954	1442.79
661.006	1425.16
661.057	1415.96
661.109	1402.53
661.16	1420.93
661.212	1408.66
661.264	1450.43
661.315	1373.66
661.367	1414.37
661.418	1416.98
661.47	1399.52
661.522	1403.25
661.573	1450.35
661.625	1401.39
661.676	1386.29
661.728	1410.29
661.78	1421.61
661.831	1373.82
661.883	1406.17
661.934	1423.66
661.986	1383.05
662.038	1388.71
662.089	1401.59
662.141	1406.95
662.192	1410.08
662.244	1427.88
662.296	1407.87
662.347	1405.84
662.399	1415.53
662.45	1390.82
662.502	1391.46
662.554	1389.08
662.605	1423.4
662.657	1379.1
662.708	1433.08
662.76	1408.35
662.811	1391.8
662.863	1417.94
662.915	1378.17
662.966	1400.02
663.018	1403.17
663.069	1374.24
663.121	1387.26
663.173	1392.24
663.224	1411.01
663.276	1390.36
663.327	1387.44
663.379	1395.85
663.43	1390.51
663.482	1396.36
663.534	1393.64
663.585	1389.76
663.637	1405.6
663.688	1411.13
663.74	1387.75
663.792	1392.91
663.843	1392.63
663.895	1403.15
663.946	1396.25
663.998	1405.46
664.049	1413.68
664.101	1386.72
664.153	1378.04
664.204	1387.25
664.256	1369.04
664.307	1389.11
664.359	1401.55
664.41	1416.39
664.462	1407.22
664.513	1415.45
664.565	1419.16
664.617	1367.81
664.668	1414.73
664.72	1395.83
664.771	1427.37
664.823	1415.63
664.874	1383.19
664.926	1362.63
664.978	1411.47
665.029	1395.22
665.081	1407.63
665.132	1391.36
665.184	1405.55
665.235	1391.13
665.287	1408.56
665.339	1417.77
665.39	1405.31
665.442	1401.78
665.493	1390.01
665.545	1422.93
665.596	1397.19
665.648	1402.66
665.699	1393.17
665.751	1405.96
665.802	1401.16
665.854	1396.4
665.906	1399.55
665.957	1403.61
666.009	1398.99
666.06	1409.46
666.112	1415.46
666.163	1410.63
666.215	1395.51
666.266	1390.5
666.318	1409.25
666.37	1405.93
666.421	1406.68
666.473	1401.84
666.524	1416.3
666.576	1402.09
666.627	1396.4
666.679	1400.56
666.73	1401.4
666.782	1394.24
666.833	1398.27
666.885	1418.46
666.937	1403.02
666.988	1408.67
667.04	1412.43
667.091	1408.37
667.143	1408.05
667.194	1397.45
667.246	1393.73
667.297	1413.03
667.349	1415.64
667.4	1421.24
667.452	1421.99
667.503	1419.05
667.555	1410.03
667.607	1416.06
667.658	1408.19
667.71	1419.16
667.761	1427.77
667.813	1411.54
667.864	1399
667.916	1419.29
667.967	1413.23
668.019	1409.57
668.07	1417.66
668.122	1426.54
668.173	1419.66
668.225	1412.19
668.276	1411.68
668.328	1396.3
668.379	1407.75
668.431	1432.28
668.482	1419.31
668.534	1423.9
668.586	1415.94
668.637	1418.98
668.689	1390.72
668.74	1435.82
668.792	1429.07
668.843	1410.39
668.895	1404.62
668.935	1412.84
668.987	1419.52
669.038	1406.6
669.09	1412.53
669.142	1421.58
669.194	1426.34
669.245	1460.14
669.297	1431.14
669.349	1436.49
669.401	1453.36
669.453	1427.59
669.504	1437.57
669.556	1426.9
669.608	1451.96
669.66	1467.67
669.711	1423.59
669.763	1420.12
669.815	1415.36
669.867	1421.93
669.918	1412.66
669.97	1434.85
670.022	1433.05
670.074	1434.58
670.125	1426.86
670.177	1414.01
670.229	1451.66
670.281	1421.99
670.332	1446.86
670.384	1428.39
670.436	1443.37
670.488	1430.74
670.539	1430.53
670.591	1452.3
670.643	1443.45
670.695	1470.35
670.747	1402.63
670.798	1450.65
670.85	1435.68
670.902	1454.45
670.953	1435.46
671.005	1453.29
671.057	1454.3
671.109	1422.66
671.161	1433.99
671.212	1410.53
671.264	1446.81
671.316	1415.82
671.367	1419.45
671.419	1422.08
671.471	1427.95
671.523	1427.67
671.575	1419.15
671.626	1458.97
671.678	1439.13
671.73	1446.56
671.781	1439.3
671.833	1420.43
671.885	1447.6
671.937	1446.39
671.988	1441.99
672.04	1440.74
672.092	1444.79
672.144	1457.31
672.195	1464.69
672.247	1467.95
672.299	1417.76
672.351	1453.41
672.402	1428.15
672.454	1457.21
672.506	1460.98
672.558	1465.74
672.609	1462.12
672.661	1464.84
672.713	1456.12
672.765	1456.85
672.816	1449.16
672.868	1447.61
672.92	1441.69
672.971	1470.01
673.023	1431.38
673.075	1456.34
673.127	1468.86
673.178	1439.92
673.23	1469.56
673.282	1454.68
673.334	1443.07
673.385	1441.9
673.437	1452.05
673.489	1445.39
673.54	1479.1
673.592	1458.66
673.644	1461.1
673.696	1478.19
673.747	1443.56
673.799	1486.91
673.851	1485.73
673.903	1461.73
673.954	1474.99
674.006	1472.57
674.058	1438.93
674.109	1459.11
674.161	1461.59
674.213	1488.86
674.265	1444.63
674.316	1480.01
674.368	1497.71
674.42	1475.07
674.471	1475.21
674.523	1498.19
674.575	1460.52
674.627	1512.85
674.678	1438.59
674.73	1470.71
674.782	1501.87
674.833	1475.2
674.885	1478.27
674.937	1463.6
674.989	1503.4
675.04	1516.26
675.092	1492.03
675.144	1484.42
675.195	1495.55
675.247	1463.64
675.299	1503.01
675.351	1494.1
675.402	1506.91
675.454	1501.18
675.506	1531.55
675.557	1527.88
675.609	1494.3
675.661	1513.37
675.713	1515.96
675.764	1506.19
675.816	1515.02
675.868	1530.07
675.919	1514.13
675.971	1520.97
676.023	1495.77
676.074	1490.25
676.126	1514.8
676.178	1529.03
676.23	1504.9
676.281	1536.82
676.333	1539.73
676.385	1542.69
676.436	1551.94
676.488	1537.29
676.54	1541.35
676.591	1555.78
676.643	1504.51
676.695	1536.51
676.747	1567.43
676.798	1521.13
676.85	1540.56
676.902	1523.49
676.953	1532.59
677.005	1545.94
677.057	1540.55
677.108	1554.02
677.16	1554.95
677.212	1539.1
677.263	1555.68
677.315	1550.19
677.367	1525.72
677.419	1551.54
677.47	1540.57
677.522	1551.62
677.574	1551.11
677.625	1534.86
677.677	1547.01
677.729	1562.33
677.78	1535.53
677.832	1559.2
677.884	1559.66
677.935	1582.24
677.987	1572.21
678.039	1570.7
678.091	1568.24
678.142	1536.27
678.194	1591.8
678.246	1561.66
678.297	1539.7
678.349	1516.45
678.401	1553.29
678.452	1518.35
678.504	1534.28
678.556	1553.62
678.607	1515.09
678.659	1580.2
678.711	1569.15
678.762	1534.57
678.814	1555.69
678.866	1541.59
678.917	1510.38
678.969	1558.37
679.021	1546.2
679.072	1552.14
679.124	1580.38
679.176	1533.73
679.227	1537.68
679.279	1545.71
679.331	1540.9
679.382	1548.64
679.434	1551.08
679.486	1570.44
679.537	1522.52
679.589	1561.05
679.641	1591.19
679.692	1570.79
679.744	1556.63
679.796	1572.9
679.847	1562.84
679.899	1544.41
679.951	1557.59
680.003	1556.14
680.054	1568.42
680.106	1536.62
680.157	1548.86
680.209	1547.35
680.261	1556.21
680.312	1571.24
680.364	1546.36
680.416	1558.13
680.467	1557.32
680.519	1536.65
680.571	1572.48
680.622	1529.92
680.674	1554.27
680.726	1567.15
680.777	1533.13
680.829	1551.39
680.881	1572.9
680.932	1563.24
680.984	1540.09
681.036	1541.97
681.087	1558.32
681.139	1568.2
681.191	1562.18
681.242	1542.38
681.294	1554.71
681.346	1566.02
681.397	1571.31
681.449	1552.04
681.501	1567.43
681.552	1530.22
681.604	1540.97
681.656	1554.85
681.707	1557.16
681.759	1559.22
681.81	1572.43
681.862	1571.92
681.914	1561.98
681.965	1577
682.017	1557.96
682.069	1554.73
682.12	1523.75
682.172	1547.96
682.224	1576.47
682.275	1561.44
682.327	1559.86
682.379	1579.99
682.43	1597.88
682.482	1578.17
682.533	1587.35
682.585	1552.73
682.637	1577.2
682.688	1575.67
682.74	1563.82
682.792	1559.41
682.843	1569.74
682.895	1586.54
682.947	1541.29
682.998	1597.9
683.05	1556.97
683.102	1570.02
683.153	1592.36
683.205	1569.96
683.256	1584.96
683.308	1586.51
683.36	1593.36
683.411	1565.98
683.463	1573.06
683.515	1579.17
683.566	1571.71
683.618	1611.1
683.669	1589.82
683.721	1573.52
683.773	1574.74
683.824	1558
683.876	1554.73
683.928	1538.92
683.979	1578.55
684.031	1551.56
684.082	1527.91
684.134	1558.76
684.186	1569.86
684.237	1534.94
684.289	1565.77
684.341	1594.37
684.392	1592.5
684.444	1592.66
684.495	1575.08
684.547	1583.78
684.599	1568.57
684.65	1562.94
684.702	1574.2
684.754	1586.57
684.805	1571.65
684.857	1562.95
684.908	1584.57
684.96	1575.6
685.012	1566.48
685.063	1579.28
685.115	1584.61
685.166	1557.25
685.218	1557.13
685.27	1573.78
685.321	1574.65
685.373	1557.71
685.424	1555.56
685.476	1550.35
685.528	1562.05
685.579	1520.23
685.631	1546.72
685.683	1558.48
685.734	1540.77
685.786	1548.24
685.837	1548.36
685.889	1565.33
685.941	1541.36
685.992	1574.22
686.044	1540.84
686.095	1571.6
686.147	1558.11
686.199	1558.19
686.25	1575.02
686.302	1548.63
686.353	1543.25
686.405	1547.33
686.457	1545.1
686.508	1556.56
686.56	1550.17
686.611	1528.03
686.663	1556.43
686.715	1553.36
686.766	1578.76
686.818	1549.5
686.869	1550.72
686.921	1562.33
686.973	1537.99
687.024	1536.55
687.076	1566.44
687.127	1527.86
687.179	1568.06
687.231	1545.33
687.282	1525.93
687.334	1519.33
687.385	1551.72
687.437	1541.18
687.489	1547.44
687.54	1580.89
687.592	1543.95
687.643	1520.5
687.695	1547.24
687.747	1523.54
687.798	1537.49
687.85	1525.24
687.901	1513.07
687.953	1518.81
688.004	1554.01
688.056	1503.65
688.108	1563.23
688.159	1527.74
688.211	1492.26
688.262	1539.36
688.314	1515.29
688.366	1515.25
688.417	1547.66
688.469	1559.21
688.52	1524.82
688.572	1500.93
688.623	1542.93
688.675	1533.64
688.727	1531.61
688.778	1523.26
688.83	1552.55
688.881	1525.36
688.933	1545.26
688.984	1543.17
689.036	1545.21
689.088	1523.09
689.139	1516.58
689.191	1521.54
689.242	1538.08
689.294	1534.93
689.346	1530.97
689.397	1536.67
689.449	1522.68
689.5	1537.02
689.552	1523.03
689.603	1524.59
689.655	1543.77
689.706	1537.62
689.758	1514.57
689.81	1483.1
689.861	1507.22
689.913	1515.7
689.964	1509.59
690.016	1538.13
690.067	1491.18
690.119	1547.97
690.171	1519.74
690.222	1528.16
690.274	1523.97
690.325	1540.85
690.377	1547.39
690.428	1532.12
690.48	1529.66
690.531	1524.22
690.583	1534.61
690.635	1519.73
690.686	1519.43
690.738	1529.44
690.789	1525.58
690.841	1538.44
690.892	1502.85
690.944	1523.22
690.996	1500.6
691.047	1531.98
691.099	1519.27
691.15	1536.16
691.202	1492.79
691.253	1523.21
691.305	1536.57
691.356	1525.48
691.408	1524.94
691.459	1532.91
691.511	1513.41
691.563	1486.51
691.614	1526.31
691.666	1542.64
691.717	1511.06
691.769	1512.15
691.82	1531.13
691.872	1517.18
691.923	1510.68
691.975	1506.39
692.026	1514.93
692.078	1505.57
692.13	1514.35
692.181	1526.43
692.233	1536.49
692.284	1529.6
692.336	1492.95
692.387	1501.86
692.439	1493.66
692.49	1507.7
692.542	1531.29
692.593	1509.27
692.645	1530.99
692.697	1472.07
692.748	1527.1
692.8	1488.54
692.851	1499.93
692.903	1514.35
692.954	1472.05
693.006	1484.91
693.057	1477.32
693.109	1506.93
693.16	1470.46
693.212	1502.29
693.263	1495.94
693.315	1469.55
693.366	1476.37
693.418	1504.63
693.47	1474.25
693.521	1497.14
693.573	1510.31
693.624	1514.79
693.676	1492.44
693.727	1524.42
693.779	1451.71
693.83	1484.65
693.882	1488.79
693.933	1510.1
693.985	1485.65
694.036	1472.03
694.088	1492.71
694.139	1477.15
694.191	1478.66
694.242	1517.46
694.294	1516.59
694.345	1493.09
694.397	1515.43
694.448	1506.68
694.5	1481.88
694.552	1501.97
694.603	1488.98
694.655	1505.99
694.706	1475.06
694.758	1506.23
694.809	1493.77
694.861	1463.26
694.912	1474.49
694.964	1504.96
695.015	1475.46
695.067	1477.94
695.118	1483.55
695.17	1483.78
695.221	1519.36
695.273	1462.91
695.324	1481.46
695.376	1501.1
695.427	1491.79
695.479	1482.42
695.53	1475.15
695.582	1482.89
695.633	1487.48
695.685	1435.33
695.736	1483.08
695.788	1466.57
695.839	1476.96
695.891	1479.86
695.942	1483.79
695.994	1479.05
696.045	1473.16
696.097	1503.82
696.148	1507.58
696.2	1471.52
696.251	1510.91
696.303	1499.72
696.354	1483.16
696.406	1496.82
696.457	1473.8
696.509	1477.79
696.56	1498.03
696.612	1490.2
696.663	1470.49
696.715	1484.32
696.766	1489.48
696.818	1501.11
696.869	1498.62
696.921	1497.19
696.972	1495.78
697.024	1475.94
697.075	1487.63
697.127	1485.19
697.178	1490.31
697.23	1520.35
697.281	1487.2
697.333	1474.73
697.384	1473.25
697.436	1483.95
697.487	1463.23
697.539	1469.93
697.59	1461.4
697.642	1460.46
697.693	1507.52
697.745	1485.41
697.796	1458.73
697.847	1469.24
697.899	1476.53
697.95	1493.85
698.002	1472.91
698.053	1471.8
698.105	1456.34
698.156	1471.5
698.208	1495.22
698.259	1460.3
698.311	1473.61
698.362	1453.78
698.414	1463.67
698.465	1464.81
698.517	1481.47
698.568	1453.03
698.62	1456.58
698.671	1459.05
698.723	1469.23
698.774	1471.7
698.826	1442.22
698.877	1407.24
698.928	1477.09
698.98	1474.18
699.031	1442.58
699.083	1458.44
699.134	1474.28
699.186	1473.51
699.237	1472.69
699.289	1460.74
699.34	1443.17
699.392	1434.33
699.443	1444.17
699.495	1462.74
699.546	1465.75
699.598	1436.68
699.649	1483.78
699.7	1464.68
699.752	1445.68
699.803	1469.88
699.855	1437.99
699.906	1448.21
699.958	1474.04
700.009	1443.61
700.061	1466.16
700.112	1455.39
700.164	1438.82
700.215	1440.72
700.266	1429.07
700.318	1444.82
700.369	1468.21
700.421	1438.76
700.472	1441.54
700.524	1436.92
700.575	1445.83
700.627	1426.27
700.678	1445.32
700.73	1457.6
700.781	1432.12
700.832	1444.94
700.884	1461.96
700.935	1444.8
700.987	1443.21
701.038	1449.59
701.09	1456.25
701.141	1427.88
701.193	1444.66
701.244	1439.28
701.295	1432.54
701.347	1434.34
701.398	1455.74
701.45	1442.98
701.501	1440.18
701.553	1402.38
701.604	1419.72
701.656	1425.14
701.707	1439.46
701.758	1449.46
701.81	1437.49
701.861	1434.3
701.913	1447.54
701.964	1447.49
702.016	1406.66
702.067	1421.74
702.119	1398.26
702.17	1435.14
702.221	1431.41
702.273	1432.19
702.324	1414.5
702.376	1425.5
702.427	1422.36
702.479	1442.29
702.53	1451.17
702.581	1455.53
702.633	1456.48
702.684	1424.46
702.736	1436.4
702.787	1448.49
702.839	1427.86
702.89	1435.97
702.941	1425.52
702.993	1426.08
703.044	1444.15
703.096	1413.75
703.147	1456.92
703.199	1440.72
703.25	1433.42
703.301	1431.81
703.353	1411.69
703.404	1419.26
703.456	1428
703.507	1443.31
703.558	1434.19
703.61	1465.73
703.661	1403.2
703.713	1428.99
703.764	1427.2
703.816	1430
703.867	1455.15
703.918	1415.21
703.97	1440.72
704.021	1423.02
704.073	1409.63
704.124	1424.91
704.175	1438.86
704.227	1414.85
704.278	1451.87
704.33	1432.21
704.381	1407.08
704.432	1433.27
704.484	1419.56
704.535	1429.33
704.587	1449.19
704.638	1431.13
704.69	1428.63
704.741	1422.74
704.792	1455.94
704.844	1424.34
704.895	1431.89
704.947	1442.84
704.998	1461.66
705.049	1416.62
705.101	1434.3
705.152	1444.15
705.204	1437.16
705.255	1418.94
705.306	1434.45
705.358	1396.01
705.409	1420.6
705.461	1435.12
705.512	1419.25
705.563	1456.41
705.615	1422.48
705.666	1429.11
705.718	1423.17
705.769	1421.58
705.82	1426.57
705.872	1443.84
705.923	1445.21
705.974	1410.42
706.026	1429.01
706.077	1410.48
706.129	1411.46
706.18	1414.9
706.231	1432.04
706.283	1443.46
706.334	1403.55
706.386	1435.09
706.437	1415.29
706.488	1427.33
706.54	1421.19
706.591	1417.44
706.643	1394.42
706.694	1394.27
706.745	1432.97
706.797	1422.47
706.848	1415.26
706.899	1406.75
706.951	1423.33
707.002	1412.36
707.054	1396.76
707.105	1400.59
707.156	1413.54
707.208	1408.06
707.259	1418.54
707.31	1406.03
707.362	1399.25
707.413	1412.02
707.465	1397.36
707.516	1374.78
707.567	1393.57
707.619	1383.65
707.67	1424.13
707.721	1406.96
707.773	1404.59
707.824	1399.84
707.876	1397.42
707.927	1382.47
707.978	1406.71
708.03	1410.43
708.081	1380.94
708.132	1410.09
708.184	1393.28
708.235	1397.12
708.287	1365.25
708.338	1385.08
708.389	1385.32
708.441	1417.75
708.492	1379.93
708.543	1397.28
708.595	1408.77
708.646	1382.14
708.697	1397.96
708.749	1402.17
708.8	1394.87
708.852	1395.71
708.903	1378.37
708.954	1378.54
709.006	1399.71
709.057	1380.87
709.108	1380.59
709.16	1397.62
709.211	1363.86
709.262	1365.65
709.314	1366.07
709.365	1369.71
709.416	1376.61
709.468	1392.56
709.519	1354.17
709.57	1416.09
709.622	1410.01
709.673	1387.94
709.725	1387.99
709.776	1389.45
709.827	1376.17
709.879	1390.75
709.93	1391.55
709.981	1378.45
710.033	1409.15
710.084	1362.26
710.135	1392.76
710.187	1400.14
710.238	1360.17
710.289	1351.59
710.341	1402.21
710.392	1377.56
710.443	1384.12
710.495	1382.39
710.546	1359.56
710.597	1388.82
710.649	1372.74
710.7	1371.81
710.751	1390.75
710.803	1350.53
710.854	1377.79
710.905	1394.6
710.957	1341.6
711.008	1354.92
711.059	1363.67
711.111	1376.09
711.162	1373.55
711.213	1396.83
711.265	1381.71
711.316	1376.98
711.367	1388.52
711.419	1406.26
711.47	1377.56
711.521	1386.02
711.573	1394.5
711.624	1379.88
711.675	1381.96
711.727	1377.82
711.778	1377.56
711.829	1391.24
711.881	1356.46
711.932	1388.51
711.983	1372.58
712.035	1384.5
712.086	1378.22
712.137	1360.56
712.189	1387.84
712.24	1365.92
712.291	1372.18
712.343	1375.85
712.394	1370.15
712.445	1380.23
712.496	1350.93
712.548	1384.67
712.599	1377.73
712.65	1386.07
712.702	1361.84
712.753	1380.56
712.804	1378.89
712.856	1348.38
712.907	1379.87
712.958	1368.54
713.01	1361.39
713.061	1347.88
713.112	1378.57
713.164	1370.72
713.215	1365.38
713.266	1342.43
713.317	1366.54
713.369	1376.11
713.42	1362.3
713.471	1365.22
713.523	1375.9
713.574	1356.06
713.625	1349.14
713.677	1365.65
713.728	1368.51
713.779	1349.89
713.831	1352.01
713.882	1352.45
713.933	1349.29
713.984	1342.83
714.036	1337.46
714.087	1354.79
714.138	1353.31
714.19	1354.61
714.241	1358.7
714.292	1339.97
714.343	1350.02
714.395	1351.89
714.446	1346.56
714.497	1335.77
714.549	1341.13
714.6	1356.47
714.651	1362.64
714.703	1336.4
714.754	1337.9
714.805	1329.65
714.856	1326.19
714.908	1344.16
714.959	1340.31
715.01	1335.17
715.062	1321.15
715.113	1339.43
715.164	1324.13
715.215	1317.11
715.267	1335.39
715.318	1333.9
715.369	1335.83
715.421	1337.58
715.472	1329.64
715.523	1336.3
715.574	1337.22
715.626	1321.66
715.677	1321.9
715.728	1314.79
715.779	1321.78
715.831	1322.81
715.882	1326.28
715.933	1341.63
715.985	1336.55
716.036	1329.79
716.087	1321.09
716.138	1317.84
716.19	1292.71
716.241	1303.56
716.292	1309.05
716.343	1301.37
716.395	1308.52
716.433	1307.28
716.485	1308.24
716.536	1311.84
716.588	1326.63
716.639	1295.17
716.691	1304.13
716.742	1342.46
716.794	1328.19
716.845	1296.68
716.897	1315.23
716.948	1312.92
717	1315.52
717.052	1323.08
717.103	1312.38
717.155	1304.21
717.206	1314.44
717.258	1340.54
717.309	1297.92
717.361	1304.2
717.412	1303.07
717.464	1287.26
717.515	1269.1
717.567	1301.39
717.618	1273.73
717.67	1280.54
717.721	1308.24
717.773	1306.4
717.824	1328.99
717.876	1291.17
717.927	1307.33
717.979	1287.76
718.03	1302.65
718.082	1297.96
718.133	1256.53
718.185	1302.72
718.237	1274.03
718.288	1280.01
718.34	1286.07
718.391	1292.09
718.443	1267.05
718.494	1265.21
718.546	1272.98
718.597	1260.7
718.649	1271.76
718.7	1256.82
718.752	1255.58
718.803	1297.83
718.855	1294.53
718.906	1272.86
718.958	1286
719.009	1280.65
719.061	1271.58
719.112	1257.51
719.164	1273.16
719.215	1276.29
719.267	1276.82
719.318	1283.43
719.37	1273.75
719.421	1271.48
719.473	1285.4
719.524	1272.03
719.576	1267.53
719.627	1239.53
719.679	1251.55
719.73	1282.43
719.782	1279.71
719.833	1274.49
719.885	1239.21
719.936	1303.89
719.988	1257.12
720.039	1270.29
720.091	1269.57
720.142	1272.5
720.194	1267.84
720.245	1241.84
720.297	1273.62
720.348	1251.55
720.4	1263.52
720.451	1255.5
720.503	1292.81
720.554	1278.58
720.606	1235.29
720.657	1235.96
720.709	1294.52
720.76	1253.44
720.812	1243.84
720.863	1265.76
720.915	1280.12
720.966	1243.92
721.018	1289.73
721.069	1229.35
721.121	1220.71
721.172	1237.36
721.224	1237.69
721.275	1209.1
721.327	1251.54
721.378	1237.22
721.43	1254.62
721.481	1252.98
721.532	1239.77
721.584	1255.55
721.635	1225.49
721.687	1271.56
721.738	1246.56
721.79	1249.65
721.841	1198.26
721.893	1257.73
721.944	1235.89
721.996	1240.82
722.047	1232.91
722.099	1245.27
722.15	1220.38
722.202	1224.66
722.253	1237.71
722.305	1231.49
722.356	1245.71
722.408	1244.65
722.459	1243.69
722.511	1207.02
722.562	1257.46
722.614	1222.12
722.665	1263.59
722.716	1217.81
722.768	1218.07
722.819	1231.13
722.871	1208.34
722.922	1207.47
722.974	1220.88
723.025	1215.16
723.077	1205.61
723.128	1230.71
723.18	1215.8
723.231	1204.55
723.283	1235.62
723.334	1233.12
723.386	1217.72
723.437	1193.34
723.488	1212.77
723.54	1202.58
723.591	1163.97
723.643	1172.87
723.694	1198.41
723.746	1163.44
723.797	1208.35
723.849	1217.41
723.9	1207.42
723.952	1233.7
724.003	1213.78
724.055	1183.59
724.106	1190.75
724.157	1187.53
724.209	1186.84
724.26	1178.36
724.312	1198.32
724.363	1205.38
724.415	1196.9
724.466	1188.34
724.518	1187.44
724.569	1168.27
724.621	1217.66
724.672	1151.72
724.723	1195.91
724.775	1192.23
724.826	1180.86
724.878	1181.23
724.929	1204.99
724.981	1166.53
725.032	1186.49
725.084	1214.3
725.135	1174.64
725.187	1183.08
725.238	1183.76
725.289	1218.27
725.341	1181.15
725.392	1181.72
725.444	1188.75
725.495	1189.2
725.547	1173.96
725.598	1195.21
725.65	1174.65
725.701	1195.8
725.752	1152.92
725.804	1185.73
725.855	1175.47
725.907	1177.01
725.958	1170.83
726.01	1173.93
726.061	1182.4
726.112	1167.42
726.164	1183.91
726.215	1163.73
726.267	1157.92
726.318	1169.1
726.37	1193.34
726.421	1176.82
726.473	1179.92
726.524	1155.39
726.575	1190.03
726.627	1182.67
726.678	1159.65
726.73	1188.15
726.781	1162.81
726.833	1181.08
726.884	1175.63
726.935	1155.57
726.987	1172.42
727.038	1177.27
727.09	1171.48
727.141	1178.99
727.193	1162.73
727.244	1137.29
727.295	1134.5
727.347	1182.33
727.398	1155.53
727.45	1167.21
727.501	1182.71
727.552	1180.66
727.604	1151.71
727.655	1157.35
727.707	1137.52
727.758	1160.44
727.81	1163.37
727.861	1134.32
727.912	1145.62
727.964	1150.5
728.015	1153
728.067	1135.58
728.118	1171.98
728.17	1147.86
728.221	1165.28
728.272	1154.15
728.324	1153.55
728.375	1155.47
728.427	1170.83
728.478	1128.15
728.529	1149.06
728.581	1145.78
728.632	1166.96
728.684	1144.91
728.735	1147.28
728.786	1152.43
728.838	1152.24
728.889	1146.67
728.941	1143.85
728.992	1121.89
729.044	1131.12
729.095	1160.6
729.146	1137.91
729.198	1139.54
729.249	1112.29
729.301	1128.74
729.352	1127.54
729.403	1112.9
729.455	1114.94
729.506	1093.99
729.558	1137.61
729.609	1110.04
729.66	1126.29
729.712	1145.12
729.763	1133.45
729.815	1129.76
729.866	1127.25
729.917	1113.67
729.969	1102.9
730.02	1136.38
730.072	1103.98
730.123	1097.97
730.174	1115.57
730.226	1113.9
730.277	1145.37
730.329	1118.58
730.38	1095.71
730.431	1110.02
730.483	1111.71
730.534	1109.18
730.586	1117.77
730.637	1109.84
730.688	1100.67
730.74	1122.22
730.791	1106.37
730.842	1114.16
730.894	1100.99
730.945	1090.41
730.997	1072.66
731.048	1096.52
731.099	1096.61
731.151	1110.65
731.202	1082.96
731.254	1100.01
731.305	1110.24
731.356	1112.2
731.408	1070.93
731.459	1105.06
731.51	1087.5
731.562	1089.48
731.613	1078.83
731.665	1094.73
731.716	1093.78
731.767	1110.96
731.819	1100.01
731.87	1100.16
731.922	1110.03
731.973	1103.02
732.024	1108.62
732.076	1077.81
732.127	1083.53
732.178	1075.33
732.23	1089.67
732.281	1108.35
732.333	1045.71
732.384	1102.43
732.435	1069.29
732.487	1099.34
732.538	1118.1
732.589	1097.39
732.641	1079.39
732.692	1089.46
732.744	1065.72
732.795	1081.41
732.846	1099.96
732.898	1107.32
732.949	1117.57
733	1078.52
733.052	1101.5
733.103	1072.24
733.154	1093.7
733.206	1081.22
733.257	1081.36
733.309	1070.15
733.36	1104.11
733.411	1099.94
733.463	1068.95
733.514	1088.8
733.565	1094.53
733.617	1053.65
733.668	1084.78
733.719	1090.5
733.771	1089.17
733.822	1092.12
733.873	1071.08
733.925	1068.48
733.976	1094.2
734.028	1053.54
734.079	1113.3
734.13	1066.93
734.182	1071.41
734.233	1080.04
734.284	1065.93
734.336	1041.86
734.387	1081.5
734.438	1030.6
734.49	1070.41
734.541	1055.11
734.592	1083.82
734.644	1067.23
734.695	1070.49
734.747	1060.94
734.798	1040.01
734.849	1071.53
734.901	1091.69
734.952	1047.95
735.003	1079.45
735.055	1089.62
735.106	1069.91
735.157	1071.46
735.209	1070.11
735.26	1071.55
735.311	1041.66
735.363	1052.93
735.414	1072.67
735.465	1059.71
735.517	1063.8
735.568	1102.01
735.619	1057.92
735.671	1070.73
735.722	1065.17
735.773	1068.23
735.825	1052.89
735.876	1066.01
735.927	1072.04
735.979	1068.06
736.03	1059.71
736.081	1065.43
736.133	1058.16
736.184	1052.15
736.235	1030.4
736.287	1068.28
736.338	1077.77
736.389	1033.4
736.441	1065.81
736.492	1038.73
736.543	1044.38
736.595	1061.47
736.646	1064.46
736.697	1061.83
736.749	1064.95
736.8	1026.92
736.851	1065.58
736.903	1055.9
736.954	1060.34
737.005	1067.54
737.057	1078.94
737.108	1051.94
737.159	1046.27
737.211	1036.38
737.262	1063.49
737.313	1039.42
737.365	1060.82
737.416	1087.81
737.467	1056.39
737.518	1040.49
737.57	1062.87
737.621	1052.5
737.672	1047.84
737.724	1061.73
737.775	1061.55
737.826	1043.08
737.878	1063.05
737.929	1036.25
737.98	1053.45
738.032	1046.45
738.083	1035.08
738.134	1059.09
738.186	1056.04
738.237	1057.22
738.288	1041.38
738.339	1028.44
738.391	1036.83
738.442	1046.7
738.493	1019.73
738.545	1029.65
738.596	1031.03
738.647	1032.36
738.699	1033.66
738.75	1053.33
738.801	1034.71
738.853	1030.25
738.904	1054.17
738.955	1024.28
739.006	1032.71
739.058	1029.85
739.109	1002.94
739.16	1028.45
739.212	1000.12
739.263	1024.18
739.314	1012.8
739.366	1035.4
739.417	1018.33
739.468	989.913
739.519	1003.97
739.571	1042.08
739.622	998.085
739.673	1019.25
739.725	1023.5
739.776	1000.96
739.827	1022.43
739.878	1011.42
739.93	1008.95
739.981	1037.65
740.032	1025.17
740.084	1005.47
740.135	995.573
740.186	994.064
740.237	979.704
740.289	1013.48
740.34	1010.36
740.391	984.571
740.443	1015.47
740.494	968.541
740.545	984.032
740.596	994.007
740.648	1005.57
740.699	996.035
740.75	992.262
740.802	989.923
740.853	984.683
740.904	1007.7
740.956	1007.87
741.007	996.555
741.058	963.861
741.109	1000.7
741.161	983.633
741.212	976.562
741.263	972.4
741.314	947
741.366	1008.25
741.417	999.958
741.468	968.932
741.52	991.89
741.571	983.585
741.622	989.496
741.673	972.665
741.725	968.634
741.776	1001.59
741.827	987.588
741.878	986.347
741.93	995.01
741.981	953.783
742.032	993.648
742.083	952.356
742.135	960.922
742.186	985.226
742.237	959.796
742.289	968.629
742.34	981.795
742.391	980.712
742.442	931.09
742.494	956.94
742.545	942.766
742.596	971.309
742.647	947.054
742.699	951.345
742.75	979.943
742.801	931.58
742.852	934.625
742.904	971.957
742.955	986.469
743.006	956.709
743.057	962.629
743.109	942.837
743.16	955.918
743.211	963.319
743.263	962.177
743.314	925.3
743.365	928.459
743.416	947.351
743.468	941.901
743.519	953.611
743.57	930.935
743.621	941.176
743.672	937.065
743.724	951.546
743.775	943.065
743.826	941.731
743.878	976.249
743.929	963.507
743.98	972.334
744.031	962.572
744.083	949.947
744.134	950.186
744.185	963.243
744.236	940.279
744.287	955.957
744.339	947.173
744.39	961.372
744.441	944.109
744.492	937.05
744.544	934.473
744.595	932.035
744.646	945.462
744.697	932.976
744.749	931.866
744.8	921.981
744.851	926.333
744.902	924.816
744.954	914.598
745.005	923.052
745.056	931.528
745.107	922.823
745.159	904.157
745.21	931.611
745.261	930.436
745.312	902.022
745.363	911.051
745.415	917.192
745.466	916.055
745.517	907.592
745.568	927.813
745.62	890.308
745.671	927.672
745.722	936.243
745.773	918.955
745.824	947.844
745.876	935.023
745.927	896.281
745.978	935.323
746.029	889.274
746.081	908.007
746.132	935.319
746.183	913.588
746.234	897.611
746.285	906.141
746.337	906.06
746.388	898.826
746.439	910.378
746.49	894.625
746.542	897.659
746.593	918.033
746.644	911.048
746.695	938.65
746.746	882.568
746.798	879.753
746.849	881.164
746.9	885.362
746.951	899.577
747.003	915.201
747.054	891.951
747.105	877.454
747.156	923.615
747.207	886.351
747.259	896.747
747.31	894.193
747.361	908.865
747.412	872.867
747.463	892.909
747.515	918.498
747.566	868.987
747.617	895.848
747.668	898.305
747.719	880.788
747.771	877.861
747.822	888.039
747.873	862.308
747.924	881.195
747.975	872.661
748.027	894.281
748.078	879.83
748.129	861.031
748.18	892.638
748.231	865.249
748.283	878.211
748.334	881.116
748.385	889.778
748.436	882.583
748.487	846.572
748.539	865.268
748.59	845.119
748.641	840.872
748.692	846.803
748.743	854.297
748.795	867.681
748.846	863.868
748.897	881.745
748.948	864.98
748.999	865.465
749.05	875.955
749.102	879.078
749.153	857.472
749.204	855.978
749.255	834.151
749.306	849.864
749.358	851.12
749.409	861.092
749.46	850.918
749.511	842.288
749.562	858.309
749.614	846.936
749.665	847.141
749.716	855.995
749.767	866.242
749.818	850.397
749.869	875.005
749.921	864.897
749.972	866.385
750.023	850.56
750.074	855.032
750.125	837.841
750.177	859.756
750.228	859.997
750.279	871.856
750.33	824.351
750.381	862.333
750.432	874.233
750.484	844.038
750.535	854.375
750.586	851.585
750.637	844.389
750.688	866.194
750.739	885.131
750.791	830.126
750.842	833.246
750.893	843.705
750.944	865.849
750.995	824.085
751.046	853.52
751.098	853.849
751.149	868.679
751.2	828.162
751.251	829.811
751.302	843.103
751.353	834.571
751.404	840.637
751.456	827.797
751.507	833.931
751.558	832.793
751.609	815.614
751.66	832.008
751.711	845.528
751.763	869.347
751.814	833.329
751.865	835.375
751.916	843.329
751.967	842.513
752.018	848.991
752.07	833.405
752.121	833.879
752.172	806.399
752.223	825.904
752.274	818.981
752.325	815.024
752.376	834.633
752.428	835.106
752.479	835.526
752.53	843.235
752.581	834.638
752.632	830.388
752.683	831.998
752.734	812.951
752.786	813.105
752.837	829.527
752.888	844.507
752.939	828.495
752.99	839.065
753.041	836.343
753.092	808.499
753.144	814.66
753.195	801.614
753.246	828.514
753.297	813.98
753.348	848.256
753.399	836.593
753.45	798.208
753.502	813.075
753.553	835.305
753.604	817.521
753.655	814.543
753.706	830.836
753.757	816.073
753.808	831.005
753.859	789.735
753.911	798.938
753.962	799.345
754.013	832.466
754.064	801.808
754.115	800.811
754.166	801.248
754.217	815.006
754.269	813.838
754.32	802.207
754.371	815.856
754.422	792.27
754.473	820.798
754.524	779.291
754.575	809.281
754.626	788.577
754.678	820.039
754.729	800.819
754.78	802.505
754.831	786.333
754.882	786.624
754.933	798.91
754.984	802.279
755.035	792.211
755.086	783.618
755.138	794.419
755.189	788.707
755.24	788.916
755.291	766.609
755.342	790.676
755.393	780.282
755.444	801.346
755.495	802.973
755.547	783.676
755.598	788.42
755.649	802.235
755.7	793.619
755.751	759.512
755.802	780.936
755.853	776.807
755.904	784.641
755.955	796.919
756.006	791.081
756.058	788.182
756.109	777.704
756.16	803.285
756.211	768.663
756.262	776.146
756.313	771.604
756.364	792.672
756.415	765.677
756.466	788.41
756.518	757.059
756.569	769.41
756.62	765.221
756.671	788.132
756.722	800.451
756.773	778.032
756.824	772.141
756.875	782.815
756.926	763.326
756.977	775.539
757.029	756.094
757.08	762.326
757.131	768.576
757.182	743.119
757.233	773.555
757.284	760.19
757.335	740.778
757.386	769.75
757.437	736.713
757.488	773.248
757.539	752.265
757.59	761.534
757.642	767.774
757.693	766.457
757.744	774.263
757.795	757.863
757.846	782.427
757.897	763.036
757.948	770.938
757.999	765.147
758.05	748.669
758.101	764.026
758.152	752.001
758.203	746.034
758.255	744.637
758.306	746.316
758.357	743.476
758.408	765.003
758.459	760.691
758.51	777.539
758.561	768.418
758.612	755.164
758.663	746.113
758.714	759.416
758.765	764.336
758.816	764.819
758.867	765.871
758.919	730.128
758.97	747.888
759.021	755.874
759.072	747.289
759.123	744.744
759.174	732.141
759.225	749.866
759.276	746.29
759.327	732.007
759.378	754.088
759.429	743.523
759.48	729.747
759.531	734.903
759.582	752.577
759.633	733.679
759.685	748.461
759.736	735.141
759.787	754.944
759.838	730.034
759.889	747.519
759.94	717.538
759.991	730.119
760.042	736.841
760.093	735.238
760.144	720.236
760.195	738.775
760.246	730.678
760.297	728.434
760.348	726.833
760.399	731.933
760.45	740.564
760.501	732.784
760.552	727.111
760.603	723.047
760.655	741.901
760.706	733.491
760.757	718.776
760.808	709.411
760.859	725.221
760.91	722.157
760.961	710.722
761.012	710.814
761.063	732.429
761.114	723.763
761.165	725.725
761.216	724.309
761.267	718.667
761.318	709.118
761.369	698.913
761.42	714.092
761.471	705.782
761.522	714.535
761.573	717.128
761.624	698.188
761.675	717.267
761.726	725.555
761.777	707.689
761.828	708.073
761.88	707.339
761.931	716.337
761.982	721.886
762.033	715.607
762.084	714.299
762.135	723.137
762.186	700.187
762.237	709.497
762.288	720.042
762.339	711.858
762.39	697.476
762.441	698.683
762.492	704.803
762.543	712.382
762.594	712.585
762.645	713.662
762.696	700.675
762.747	698.091
762.798	708.757
762.849	700.376
762.9	701.631
762.951	704.511
763.002	709.558
763.053	692.915
763.104	697.306
763.155	693.167
763.206	690.478
763.257	702.636
763.308	705.853
763.359	687.551
763.41	684.687
763.461	693.887
763.512	682.701
763.563	691.524
763.614	697.911
763.665	690.747
763.678	687.95
763.729	667.275
763.78	660.878
763.832	676.741
763.883	680.253
763.934	663.398
763.986	684.295
764.037	704.991
764.088	681.265
764.139	687.326
764.191	690.227
764.242	661.786
764.293	660.39
764.345	681.302
764.396	681.827
764.447	683.859
764.498	668.31
764.55	680.962
764.601	672.923
764.652	683.833
764.704	688.567
764.755	661.93
764.806	690.78
764.857	686.526
764.909	664.776
764.96	698.226
765.011	658.614
765.062	683.737
765.114	651.841
765.165	670.68
765.216	659.667
765.268	688.444
765.319	669.929
765.37	665.723
765.421	672.573
765.473	674.532
765.524	658.858
765.575	663.681
765.626	662.11
765.678	665.334
765.729	649.584
765.78	656.159
765.831	672.344
765.883	672.657
765.934	687.25
765.985	663.582
766.036	662.097
766.088	652.59
766.139	663.756
766.19	663.818
766.242	668.738
766.293	661.016
766.344	648.587
766.395	629.799
766.447	638.088
766.498	668.655
766.549	649.668
766.6	657.748
766.652	662.62
766.703	654.765
766.754	659.779
766.805	650.519
766.857	660.518
766.908	646.549
766.959	626.119
767.01	660.055
767.062	660.257
767.113	634.722
767.164	655.611
767.215	649.236
767.267	644.485
767.318	657.418
767.369	639.944
767.42	644.988
767.472	645.29
767.523	644.049
767.574	660.536
767.625	664.209
767.677	656.618
767.728	640.928
767.779	636.435
767.83	646.368
767.882	654.623
767.933	648.315
767.984	641.989
768.035	658.269
768.087	648.79
768.138	668.439
768.189	651.021
768.24	635.245
768.292	625.93
768.343	637.615
768.394	623.352
768.445	655.986
768.497	648.086
768.548	607.747
768.599	658.185
768.65	624.377
768.701	632.793
768.753	594.202
768.804	620.587
768.855	621.013
768.906	621.422
768.958	620.164
769.009	633.512
769.06	627.276
769.111	642.193
769.163	601.672
769.214	626.372
769.265	642.943
769.316	617.088
769.367	594.473
769.419	629.003
769.47	619.401
769.521	608.132
769.572	629.543
769.624	613.344
769.675	647.867
769.726	634.969
769.777	613.896
769.828	605.92
769.88	619.244
769.931	624.399
769.982	649.263
770.033	621.706
770.085	604.022
770.136	602.786
770.187	619.646
770.238	597.038
770.289	631.945
770.341	612.476
770.392	643.977
770.443	601.313
770.494	601.463
770.546	613.178
770.597	596.916
770.648	616.982
770.699	609.049
770.75	587.918
770.802	598.169
770.853	605.123
770.904	603.809
770.955	592.548
771.006	591.188
771.058	594.763
771.109	586.704
771.16	610.112
771.211	597.035
771.263	593.909
771.314	604.077
771.365	614.277
771.416	606.236
771.467	596.536
771.519	590.149
771.57	621.995
771.621	615.584
771.672	620.807
771.723	587.735
771.775	604.615
771.826	586.536
771.877	578.472
771.928	593.784
771.979	610.815
772.031	601.179
772.082	581.527
772.133	583.608
772.184	589.061
772.235	606.269
772.287	605.088
772.338	592.169
772.389	606.073
772.44	593.063
772.491	578.273
772.543	590.281
772.594	593.798
772.645	605.672
772.696	587.253
772.747	605.891
772.799	562.32
772.85	613.117
772.901	598.309
772.952	602.072
773.003	567.027
773.055	577.501
773.106	582.873
773.157	586.511
773.208	571.512
773.259	570.005
773.31	585.397
773.362	585.554
773.413	600.932
773.464	580.749
773.515	570.713
773.566	597.951
773.618	571.018
773.669	581.415
773.72	576.625
773.771	592.249
773.822	580.751
773.873	528.443
773.925	562.737
773.976	580.001
774.027	575.115
774.078	566.806
774.129	575.533
774.18	577.479
774.232	570.927
774.283	576.304
774.334	574.841
774.385	573.349
774.436	580.378
774.488	570.351
774.539	567.192
774.59	576.049
774.641	576.412
774.692	557.971
774.743	590.874
774.795	579.222
774.846	548.647
774.897	566.025
774.948	573.092
774.999	580.161
775.05	563.219
775.102	546.307
775.153	562.092
775.204	550.428
775.255	586.981
775.306	563.303
775.357	561.976
775.409	584.745
775.46	560.881
775.511	536.941
775.562	547.493
775.613	554.589
775.664	568.613
775.716	565.376
775.767	567.339
775.818	565.845
775.869	555.689
775.92	569.765
775.971	544.005
776.023	568.499
776.074	563.562
776.125	544.752
776.176	565.843
776.227	555.679
776.278	566.333
776.329	563.077
776.381	547.65
776.432	565.275
776.483	551.62
776.534	551.902
776.585	557.417
776.636	535.034
776.688	533.512
776.739	535.425
776.79	540.778
776.841	546.1
776.892	561.887
776.943	553.267
776.994	541.192
777.046	571.073
777.097	541.62
777.148	520.906
777.199	556.142
777.25	540.657
777.301	528.639
777.352	562.124
777.404	534.315
777.455	548.56
777.506	534.793
777.557	538.592
777.608	542.429
777.659	553.312
777.71	544.864
777.762	525.816
777.813	540.122
777.864	527.979
777.915	531.625
777.966	558.146
778.017	554.76
778.068	542.615
778.12	523.477
778.171	507.903
778.222	536.456
778.273	543.852
778.324	542.383
778.375	532.015
778.426	519.812
778.477	530.553
778.529	527.133
778.58	557.342
778.631	516.806
778.682	518.776
778.733	519.014
778.784	524.604
778.835	505.399
778.886	532.321
778.938	525.546
778.989	534.74
779.04	543.916
779.091	517.494
779.142	537.26
779.193	533.866
779.244	525.108
779.295	521.685
779.347	532.525
779.398	509.547
779.449	531.136
779.5	529.578
779.551	501.264
779.602	501.473
779.653	496.314
779.704	503.645
779.755	505.617
779.807	521.894
779.858	532.834
779.909	529.497
779.96	535.143
780.011	535.469
780.062	510.757
780.113	516.541
780.164	513.38
780.216	499.425
780.267	512.372
780.318	521.666
780.369	502.095
780.42	518.446
780.471	507.758
780.522	506.07
780.573	522.428
780.624	528.037
780.675	503.054
780.727	497.933
780.778	501.854
780.829	500.365
780.88	513.322
780.931	502.765
780.982	515.7
781.033	517.771
781.084	525.272
781.135	501.976
781.187	525.806
781.238	511.576
781.289	519.116
781.34	504.858
781.391	499.641
781.442	494.382
781.493	494.539
781.544	509.218
781.595	511.153
781.646	489.429
781.698	504.09
781.749	498.739
781.8	504.318
781.851	498.994
781.902	502.81
781.953	482.986
782.004	468.666
782.055	527.363
782.106	511.293
782.157	491.533
782.208	491.815
782.26	484.716
782.311	503.164
782.362	501.446
782.413	485.07
782.464	490.671
782.515	492.643
782.566	492.815
782.617	485.675
782.668	480.368
782.719	495.228
782.77	489.911
782.821	480.92
782.872	490.297
782.924	488.675
782.975	492.577
783.026	481.774
783.077	494.869
783.128	476.674
783.179	493.439
783.23	491.805
783.281	495.72
783.332	492.301
783.383	474.157
783.434	476.33
783.485	476.673
783.536	473.314
783.588	493.982
783.639	470.209
783.69	463.038
783.741	472.494
783.792	487.475
783.843	465.35
783.894	498.824
783.945	478.52
783.996	461.936
784.047	486.21
784.098	506.85
784.149	471.848
784.2	470.318
784.252	476.259
784.303	485.94
784.354	469.536
784.405	481.051
784.456	488.824
784.507	487.254
784.558	478.2
784.609	476.599
784.66	484.321
784.711	484.524
784.762	456.603
784.813	479.15
784.864	486.691
784.915	475.5
784.966	479.304
785.017	473.787
785.068	462.694
785.12	487.239
785.171	470.585
785.222	448.298
785.273	489.795
785.324	454.349
785.375	448.92
785.426	466.03
785.477	475.629
785.528	477.702
785.579	459.068
785.63	470.524
785.681	474.454
785.732	472.741
785.783	457.851
785.834	476.9
785.885	465.821
785.936	464.197
785.987	468.273
786.038	470.501
786.089	472.759
786.141	457.993
786.192	467.801
786.243	456.718
786.294	451.229
786.345	472.197
786.396	447.577
786.447	451.361
786.498	470.316
786.549	466.553
786.6	476.13
786.651	476.294
786.702	446.145
786.753	465.394
786.804	448.574
786.855	458.361
786.906	479.559
786.957	455.052
787.008	453.342
787.059	468.741
787.11	461.251
787.161	457.56
787.212	455.788
787.263	450.23
787.314	446.62
787.365	458.327
787.416	445.24
787.467	462.744
787.518	434.342
787.57	461.4
787.621	465.46
787.672	471.394
787.723	452.371
787.774	442.897
787.825	458.339
787.876	462.282
787.927	450.895
787.978	447.2
788.029	468.483
788.08	430.253
788.131	445.8
788.182	444.057
788.233	465.379
788.284	432.841
788.335	459.925
788.386	411.948
788.437	460.223
788.488	441.124
788.539	427.81
788.59	456.919
788.641	464.85
788.692	420.687
788.743	418.943
788.794	401.725
788.845	446.297
788.896	427.107
788.947	425.306
788.998	417.724
789.049	425.649
789.1	435.558
789.151	431.953
789.202	436.114
789.253	444.159
789.304	423.079
789.355	421.356
789.406	446.777
789.457	419.697
789.508	431.425
789.559	439.236
789.61	439.269
789.661	447.107
789.712	427.791
789.763	443.561
789.814	412.712
789.865	424.737
789.916	428.994
789.967	439.081
790.018	421.78
790.069	453.232
790.12	426.037
790.171	435.967
790.222	416.609
790.273	399.245
790.324	430.866
790.375	423.342
790.426	415.767
790.477	431.652
790.528	408.208
790.579	427.871
790.63	437.703
790.681	429.901
790.732	416.275
790.783	440.043
790.834	414.769
790.885	411.141
790.936	411.456
790.987	423.575
791.038	419.903
791.089	420.126
791.14	416.354
791.191	424.374
791.242	406.694
791.293	412.679
791.344	410.763
791.395	416.772
791.446	399.121
791.497	425.003
791.548	409.433
791.599	425.544
791.65	433.747
791.701	406.24
791.752	410.365
791.803	428.336
791.854	420.529
791.905	396.871
791.956	412.953
792.007	413.223
792.058	421.499
792.109	395.991
792.16	412.262
792.211	412.586
792.262	422.836
792.313	405.106
792.363	401.283
792.414	409.397
792.465	391.515
792.516	381.602
792.567	417.65
792.618	399.769
792.669	415.906
792.72	372.088
792.771	416.331
792.822	408.574
792.873	426.863
792.924	385.002
792.975	405.273
793.026	389.428
793.077	389.645
793.128	389.891
793.179	388.165
793.23	398.545
793.281	378.739
793.332	403.25
793.383	407.598
793.434	397.781
793.485	414.179
793.536	398.218
793.587	398.39
793.638	392.468
793.689	384.501
793.74	404.86
793.79	404.988
793.841	382.856
793.892	391.134
793.943	403.502
793.994	385.464
794.045	395.816
794.096	381.784
794.147	383.963
794.198	390.188
794.249	388.285
794.3	384.364
794.351	384.532
794.402	386.75
794.453	391.002
794.504	378.936
794.555	389.248
794.606	385.279
794.657	393.55
794.708	373.305
794.758	391.875
794.809	381.928
794.86	380.168
794.911	382.48
794.962	378.602
795.013	380.787
795.064	393.147
795.115	385.002
795.166	358.443
795.217	391.36
795.268	371.104
795.319	396.057
795.37	382.087
795.421	380.429
795.472	368.422
795.523	401.62
795.573	391.481
795.624	379.199
795.675	377.189
795.726	375.193
795.777	369.114
795.828	379.584
795.879	385.967
795.93	359.317
795.981	363.603
796.032	376.113
796.083	355.517
796.134	405.181
796.185	380.441
796.236	386.756
796.286	374.516
796.337	370.605
796.388	381.235
796.439	400.195
796.49	375.598
796.541	367.551
796.592	365.694
796.643	359.644
796.694	370.198
796.745	374.498
796.796	370.459
796.847	372.653
796.897	368.596
796.948	389.535
796.999	381.326
797.05	352.279
797.101	369.102
797.152	371.351
797.203	379.876
797.254	363.363
797.305	367.736
797.356	367.939
797.407	378.603
797.458	376.714
797.508	372.712
797.559	356.112
797.61	358.33
797.661	364.719
797.712	377.393
797.763	383.794
797.814	377.646
797.865	367.346
797.916	384.396
797.967	380.501
798.018	357.695
798.068	349.597
798.119	377.296
798.17	356.48
798.221	346.134
798.272	346.283
798.323	354.84
798.374	363.383
798.425	357.145
798.476	363.622
798.526	359.582
798.577	347.13
798.628	332.588
798.679	373.172
798.73	350.155
798.781	358.916
798.832	346.375
798.883	369.895
798.934	338.091
798.984	353.042
799.035	359.505
799.086	353.245
799.137	376.836
799.188	334.456
799.239	353.855
799.29	358.332
799.341	341.438
799.392	354.374
799.443	371.555
799.493	369.509
799.544	350.379
799.595	350.496
799.646	365.606
799.697	374.33
799.748	370.218
799.799	346.809
799.85	329.769
799.9	366.218
799.951	353.375
800.002	353.366
800.053	353.371
800.104	370.552
800.155	332.093
800.206	340.814
800.257	364.592
800.307	354.077
800.358	343.541
800.409	311.495
800.46	341.735
800.511	337.599
800.562	331.321
800.613	335.815
800.664	355.397
800.714	331.889
800.765	347.138
800.816	349.424
800.867	340.895
800.918	360.408
800.969	343.247
801.02	352.015
801.07	347.857
801.121	335.069
801.172	330.924
801.223	346.244
801.274	352.908
801.325	340.078
801.376	344.577
801.427	346.923
801.477	355.79
801.528	332.109
801.579	343.137
801.63	334.593
801.681	341.222
801.732	343.479
801.783	313.107
801.833	330.572
801.884	332.838
801.935	326.425
801.986	343.974
802.037	365.896
802.088	335.528
802.139	313.832
802.189	333.522
802.24	324.876
802.291	338.05
802.342	335.979
802.393	340.467
802.444	331.856
802.495	327.593
802.545	327.68
802.596	321.205
802.647	336.592
802.698	308.287
802.749	310.614
802.8	332.668
802.85	308.777
802.901	328.683
802.952	315.717
803.003	322.468
803.054	309.464
803.105	344.753
803.155	336.133
803.206	323.097
803.257	343.013
803.308	329.924
803.359	310.204
803.41	354.276
803.46	330.143
803.511	330.239
803.562	325.964
803.613	337.145
803.664	337.341
803.715	313.279
803.765	324.504
803.816	331.31
803.867	335.899
803.918	322.793
803.969	314.092
804.02	329.723
804.07	343.149
804.121	318.928
804.172	316.832
804.223	336.887
804.274	312.606
804.325	312.703
804.375	323.898
804.426	308.478
804.477	335.234
804.528	308.707
804.579	333.248
804.63	322.227
804.68	315.624
804.731	315.673
804.782	326.835
804.833	320.223
804.884	333.651
804.934	313.738
804.985	320.542
805.036	311.768
805.087	325.25
805.138	307.518
805.188	336.555
805.239	320.998
805.29	321.038
805.341	305.482
805.392	318.936
805.443	325.727
805.493	294.646
805.544	303.767
805.595	325.685
805.646	316.782
805.697	306.313
805.747	318.601
805.798	308.622
805.849	291.03
805.9	298.899
805.951	314.603
806.001	311.712
806.052	318.785
806.103	334.403
806.154	305.396
806.205	313
806.255	322.09
806.306	298.41
806.357	288.345
806.408	296.642
806.459	315.302
806.509	291.884
806.56	293.673
806.611	325.364
806.662	308.485
806.713	308.786
806.763	295.649
806.814	310.59
806.865	299.969
806.916	302.769
806.967	316.619
807.017	294.551
807.068	296.558
807.119	307.655
807.17	307.98
807.22	306.169
807.271	307.018
807.322	296.33
807.373	304.504
807.424	291.86
807.474	303.552
807.525	284.312
807.576	303.667
807.627	312.011
807.678	287.612
807.728	315.309
807.779	307.214
807.83	299.985
807.881	300.187
807.931	298.341
807.982	312.845
808.033	302.856
808.084	296.483
808.135	303.898
808.185	297.417
808.236	289.343
808.287	287.216
808.338	292.147
808.388	289.546
808.439	292.088
808.49	291.714
808.541	303.384
808.591	298.293
808.642	295.62
808.693	282.576
808.744	300.901
808.795	284.517
808.845	307.52
808.896	292.168
808.947	282.491
808.998	290.41
809.048	290.025
809.099	295.35
809.15	282.607
809.201	290.418
809.251	286.984
809.302	302.4
809.353	286.668
809.404	300.909
809.454	283.812
809.505	287.417
809.556	295.213
809.607	288.563
809.658	287.679
809.708	292.537
809.759	284.41
809.81	280.154
809.861	270.813
809.911	283.588
809.962	290.774
810.013	302.589
810.064	275.838
810.114	283.823
810.165	278.891
810.216	293.719
810.267	306.671
810.317	284.091
810.368	292.224
810.419	291.056
810.469	282.737
810.52	290.514
810.571	283.726
810.622	291.067
810.627	292.079
810.678	282.981
810.729	294.757
810.78	283.308
810.831	295.058
810.882	288.201
810.933	276.671
810.984	279.073
811.035	286.118
811.086	297.811
811.137	297.866
811.188	274.647
811.239	267.724
811.29	274.788
811.341	277.219
811.392	291.325
811.443	282.137
811.494	284.601
811.545	282.389
811.596	291.837
811.648	282.603
811.699	287.387
811.75	292.189
811.801	282.98
811.852	255.051
811.903	273.91
811.954	267.005
812.005	285.838
812.056	262.464
812.107	292.955
812.158	278.896
812.209	253.109
812.26	292.953
812.311	271.892
812.362	281.345
812.413	272.092
812.464	255.831
812.515	265.405
812.566	284.387
812.617	253.962
812.668	275.204
812.719	268.159
812.77	263.419
812.821	277.476
812.872	277.44
812.923	263.346
812.974	263.424
813.025	237.677
813.076	251.968
813.127	285.145
813.178	266.469
813.229	261.889
813.28	276.142
813.331	264.399
813.382	266.804
813.433	266.852
813.484	266.919
813.535	255.194
813.586	267.116
813.637	257.772
813.688	272.079
813.739	260.363
813.79	269.956
813.841	272.468
813.892	265.524
813.943	260.965
813.994	284.9
814.045	268.468
814.096	263.863
814.147	263.95
814.198	263.965
814.249	261.536
814.3	266.194
814.351	254.207
814.402	258.884
814.453	263.622
814.504	251.817
814.555	256.721
814.606	280.73
814.657	269.097
814.708	235.984
814.759	286.28
814.81	238.717
814.861	279.413
814.912	260.365
814.963	267.557
815.014	265.18
815.065	272.364
815.116	262.842
815.167	260.51
815.217	274.935
815.268	246.337
815.319	263.179
815.37	251.305
815.421	256.165
815.472	282.56
815.523	280.205
815.574	234.721
815.625	258.68
815.676	246.697
815.727	263.433
815.778	260.983
815.829	260.906
815.88	244.07
815.931	251.179
815.982	258.325
816.033	251.18
816.084	239.316
816.135	251.45
816.186	227.695
816.237	242.297
816.288	242.502
816.339	257.081
816.39	242.77
816.441	262.047
816.492	247.618
816.543	252.394
816.594	233.137
816.645	254.772
816.696	245.212
816.747	257.345
816.798	223.813
816.849	255.282
816.9	262.695
816.951	250.804
817.001	234.041
817.052	248.611
817.103	246.259
817.154	251.128
817.205	263.228
817.256	256.003
817.307	248.784
817.358	246.419
817.409	246.509
817.46	241.815
817.511	232.325
817.562	261.607
817.613	252.155
817.664	235.375
817.715	245.22
817.766	252.572
817.817	247.717
817.868	254.965
817.919	252.495
817.97	242.77
818.021	254.936
818.071	225.861
818.122	235.666
818.173	262.501
818.224	250.447
818.275	243.236
818.326	255.475
818.377	238.512
818.428	245.888
818.479	231.359
818.53	236.321
818.581	241.297
818.632	243.847
818.683	243.968
818.734	244.094
818.785	253.994
818.836	239.468
818.887	244.48
818.938	225.028
818.988	249.591
819.039	237.442
819.09	259.554
819.141	232.684
819.192	222.946
819.243	237.707
819.294	242.673
819.345	225.58
819.396	250.183
819.447	238.017
819.498	230.772
819.549	223.546
819.6	258.125
819.651	233.731
819.702	251.168
819.753	256.309
819.803	244.179
819.854	246.819
819.905	232.146
819.956	232.253
820.007	249.63
820.058	234.845
820.109	237.333
820.16	215.077
820.211	220.007
820.262	242.246
820.313	242.262
820.364	229.956
820.415	227.579
820.465	240.087
820.516	242.726
820.567	242.887
820.618	223.185
820.669	218.314
820.72	245.666
820.771	225.851
820.822	243.266
820.873	230.915
820.924	238.462
820.975	228.652
821.026	216.363
821.076	248.847
821.127	226.57
821.178	246.581
821.229	216.74
821.28	244.172
821.331	196.847
821.382	241.722
821.433	224.315
821.484	236.836
821.535	244.39
821.586	239.484
821.637	232.078
821.687	242.138
821.738	227.23
821.789	239.789
821.84	222.379
821.891	232.462
821.942	232.56
821.993	242.671
822.044	232.768
822.095	230.359
822.146	237.952
822.196	240.518
822.247	225.527
822.298	228.066
822.349	230.612
822.4	205.603
822.451	220.746
822.502	230.929
822.553	223.584
822.604	201.161
822.655	239.1
822.706	221.661
822.756	236.922
822.807	209.286
822.858	262.305
822.909	224.511
822.96	224.545
823.011	239.724
823.062	222.099
823.113	222.128
823.164	232.225
823.214	199.384
823.265	249.806
823.316	222.001
823.367	211.88
823.418	216.923
823.469	227.044
823.52	219.532
823.571	224.648
823.622	212.088
823.672	237.385
823.723	199.524
823.774	207.101
823.825	224.768
823.876	219.703
823.927	214.644
823.978	207.071
824.029	214.665
824.08	232.377
824.13	209.687
824.181	199.63
824.232	219.904
824.283	214.909
824.334	232.675
824.385	230.216
824.436	222.698
824.487	217.713
824.537	220.325
824.588	215.336
824.639	210.335
824.69	197.71
824.741	223.091
824.792	195.22
824.843	225.658
824.893	200.322
824.944	225.716
824.995	210.55
825.046	218.224
825.097	197.984
825.148	205.654
825.199	215.859
825.25	218.443
825.3	223.574
825.351	221.098
825.402	226.267
825.453	208.568
825.504	218.854
825.555	224.054
825.606	224.148
825.657	224.213
825.707	224.247
825.758	226.801
825.809	214.044
825.86	191.091
825.911	196.171
825.962	201.263
826.013	211.465
826.063	201.296
826.114	234.449
826.165	214.08
826.216	221.726
826.267	206.416
826.318	203.836
826.369	208.893
826.419	231.781
826.47	203.737
826.521	198.629
826.572	211.354
826.623	201.168
826.674	211.357
826.725	211.368
826.775	206.297
826.826	219.07
826.877	203.838
826.928	206.451
826.979	201.422
827.03	209.141
827.08	209.205
827.131	206.711
827.182	188.896
827.233	217.035
827.284	199.223
827.335	204.4
827.386	207.024
827.436	181.512
827.487	212.216
827.538	204.532
827.589	204.481
827.64	201.851
827.691	189.004
827.741	211.937
827.792	206.829
827.843	201.785
827.894	199.359
827.945	194.423
827.996	209.994
828.046	212.779
828.097	205.275
828.148	205.413
828.199	215.764
828.25	202.935
828.301	215.744
828.351	210.545
828.402	207.919
828.453	192.491
828.504	195.069
828.555	192.553
828.606	215.751
828.656	210.724
828.707	205.695
828.758	203.223
828.809	198.156
828.86	193.064
828.911	198.248
828.961	193.119
829.012	200.855
829.063	203.437
829.114	190.567
829.165	216.326
829.216	203.459
829.266	190.596
829.317	180.312
829.368	167.456
829.419	211.29
829.47	201.024
829.52	203.646
829.571	185.641
829.622	183.099
829.673	206.346
829.724	196.065
829.774	193.531
829.825	201.336
829.876	201.42
829.927	206.689
829.978	204.217
830.029	186.219
830.079	194.062
830.13	183.771
830.181	204.521
830.232	183.838
830.283	191.633
830.333	194.255
830.384	204.653
830.435	202.098
830.486	189.165
830.537	196.944
830.587	202.111
830.638	183.947
830.689	194.279
830.74	199.439
830.791	202.029
830.841	183.923
830.892	191.747
830.943	186.638
830.994	199.69
831.045	191.998
831.095	184.289
831.146	192.133
831.197	189.57
831.248	181.793
831.299	199.976
831.349	194.788
831.4	207.795
831.451	197.446
831.502	192.305
831.553	192.366
831.603	197.622
831.654	169.053
831.705	197.68
831.756	184.676
831.807	184.67
831.857	187.269
831.908	197.684
831.959	187.305
832.01	189.944
832.061	171.766
832.111	192.623
832.162	190.046
832.213	182.253
832.264	182.271
832.315	190.11
832.365	182.34
832.416	192.825
832.467	172.051
832.518	195.6
832.568	185.245
832.619	172.256
832.67	180.125
832.721	198.422
832.772	167.099
832.822	185.378
832.873	195.827
832.924	177.564
832.975	190.65
833.025	195.92
833.076	198.593
833.127	190.821
833.178	185.66
833.229	188.339
833.279	198.859
833.33	198.904
833.381	185.851
833.432	201.584
833.482	193.756
833.533	188.546
833.584	185.958
833.635	188.61
833.685	191.262
833.736	175.57
833.787	188.7
833.838	175.623
833.889	194.007
833.939	188.806
833.99	194.101
834.041	183.658
834.092	196.819
834.142	191.596
834.193	196.849
834.244	178.464
834.295	175.823
834.345	188.937
834.396	170.584
834.447	181.128
834.498	178.574
834.548	181.286
834.599	191.883
834.65	181.436
834.701	186.739
834.751	178.87
834.802	178.878
834.853	181.515
834.904	186.788
834.954	178.911
835.005	171.033
835.056	157.882
835.107	181.556
835.157	176.272
835.208	178.874
835.259	186.743
835.31	178.847
835.36	176.235
835.411	189.429
835.462	181.586
835.513	171.103
835.563	171.13
835.614	189.566
835.665	157.962
835.716	186.905
835.766	171.106
835.817	168.494
835.868	181.712
835.919	176.527
835.969	168.716
836.02	189.91
836.071	195.278
836.122	168.946
836.172	184.821
836.223	176.911
836.274	184.827
836.325	174.246
836.375	174.215
836.426	171.534
836.477	160.931
836.528	176.7
836.578	174.004
836.629	173.954
836.68	200.272
836.73	166.002
836.781	176.547
836.832	184.475
836.883	171.328
836.933	179.271
836.984	160.853
837.035	166.167
837.086	155.655
837.136	166.245
837.187	179.465
837.238	182.104
837.288	168.879
837.339	174.101
837.39	171.399
837.441	171.347
837.491	181.873
837.542	176.633
837.593	168.799
837.643	166.262
837.694	158.443
837.745	177.01
837.796	166.478
837.846	166.467
837.897	163.777
837.948	163.713
837.999	163.651
838.049	174.161
838.1	155.668
838.151	168.855
838.201	171.497
838.252	179.41
838.303	168.84
838.354	166.168
838.404	181.941
838.455	176.612
838.506	163.387
838.556	165.99
838.607	171.244
838.658	168.609
838.708	165.986
838.759	155.461
838.81	176.556
838.861	163.393
838.911	187.126
838.962	166.058
839.013	189.803
839.063	160.829
839.114	152.946
839.165	160.89
839.216	171.481
839.266	174.167
839.317	182.136
839.368	166.341
839.418	158.449
839.469	163.742
839.52	192.783
839.57	166.35
839.621	174.242
839.672	158.383
839.722	163.661
839.773	158.402
839.824	163.722
839.875	161.133
839.925	158.546
839.976	187.673
840.027	155.999
840.077	163.972
840.128	164.009
840.179	164.039
840.229	156.124
840.28	166.721
840.331	164.076
840.381	172.006
840.432	174.637
840.483	158.75
840.534	153.455
840.584	148.172
840.635	164.071
840.686	166.753
840.736	153.558
840.787	161.546
840.838	166.888
840.888	158.984
840.939	159.025
840.99	169.669
841.04	156.454
841.091	156.495
841.142	172.455
841.192	172.497
841.243	153.955
841.294	177.878
841.344	148.698
841.395	164.652
841.446	146.081
841.496	162.041
841.547	148.786
841.598	178.052
841.648	156.835
841.699	164.861
841.75	154.274
841.8	162.3
841.851	170.318
841.902	162.349
841.952	154.356
842.003	164.967
842.054	151.613
842.104	156.871
842.155	156.809
842.206	162.071
842.256	170.006
842.307	156.712
842.358	148.75
842.408	132.83
842.459	154.108
842.51	156.79
842.56	170.1
842.611	159.483
842.662	156.835
842.712	162.159
842.763	159.505
842.814	164.823
842.864	151.527
842.915	172.786
842.966	183.408
843.016	154.166
843.067	170.122
843.118	167.49
843.168	148.918
843.219	140.986
843.269	159.659
843.32	157.041
843.371	154.408
843.421	143.775
843.472	151.776
843.523	154.461
843.573	143.845
843.624	157.221
843.675	154.625
843.725	146.693
843.776	141.41
843.827	173.466
843.877	162.8
843.928	173.462
843.979	149.421
844.029	165.401
844.08	160.041
844.13	154.69
844.181	149.348
844.232	157.348
844.282	146.689
844.333	162.714
844.384	149.408
844.434	168.13
844.485	157.503
844.536	146.868
844.586	149.574
844.637	154.943
844.687	157.631
844.738	152.297
844.789	154.976
844.839	133.608
844.89	141.636
844.941	160.357
844.991	138.99
845.042	155.041
845.092	141.689
845.143	152.398
845.194	139.047
845.244	139.067
845.295	157.81
845.346	147.13
845.396	152.495
845.447	168.558
845.497	155.192
845.548	152.535
845.599	155.243
845.649	157.967
845.7	152.667
845.75	150.042
845.801	152.767
845.852	150.115
845.902	147.445
845.953	144.765
846.004	158.168
846.054	139.409
846.105	160.876
846.155	150.179
846.206	136.798
846.257	142.186
846.307	147.566
846.358	139.523
846.409	152.943
846.459	150.272
846.51	147.615
846.56	134.235
846.611	139.654
846.661	139.703
846.712	139.739
846.763	150.501
846.813	139.739
846.864	123.587
846.915	134.294
846.965	158.426
847.016	134.239
847.066	150.346
847.117	147.679
847.168	145.021
847.218	131.619
847.269	147.756
847.319	131.646
847.37	147.765
847.421	139.701
847.471	155.82
847.522	147.77
847.572	134.357
847.623	145.138
847.674	145.177
847.724	137.148
847.775	134.489
847.825	145.275
847.876	156.056
847.926	129.163
847.977	153.395
848.028	145.337
848.078	156.124
848.129	131.924
848.179	156.193
848.23	131.994
848.281	123.948
848.331	140.151
848.382	148.264
848.432	148.281
848.483	140.202
848.534	153.697
848.584	148.328
848.635	145.672
848.685	137.633
848.736	126.896
848.786	145.857
848.837	154.012
848.888	143.234
848.938	135.142
848.989	137.859
849.039	148.695
849.09	151.44
849.14	146.086
849.191	129.908
849.242	146.198
849.292	146.229
849.343	143.528
849.393	138.1
849.444	127.256
849.494	143.501
849.545	148.943
849.596	146.288
849.646	138.228
849.697	130.165
849.747	119.371
849.798	132.976
849.848	132.994
849.899	149.277
849.95	138.407
850	143.819
850.051	143.808
850.101	124.812
850.152	119.39
850.202	151.962
850.253	143.833
850.303	143.845
850.354	132.999
850.405	130.297
850.455	141.174
850.506	130.337
850.556	135.796
850.607	141.262
850.657	122.275
850.708	133.173
850.758	122.327
850.809	119.629
850.86	130.524
850.91	130.537
850.961	144.14
851.011	141.417
851.062	144.123
851.112	127.793
851.163	141.378
851.213	135.945
851.264	133.254
851.314	130.585
851.365	130.657
851.416	138.913
851.466	125.376
851.517	141.812
851.567	133.69
851.618	136.46
851.668	147.403
851.719	139.227
851.769	133.773
851.82	139.238
851.87	117.403
851.921	128.337
851.971	136.55
852.022	139.311
852.073	136.618
852.123	131.192
852.174	133.963
852.224	120.319
852.275	134.006
852.325	120.455
852.376	134.036
852.426	133.79
852.477	134.076
852.527	138.61
852.578	130.989
852.628	133.529
852.679	138.553
852.729	116.603
852.78	136.154
852.831	134.761
852.881	134.562
852.932	129.141
852.982	123.704
853.033	140.858
853.083	134.643
853.134	119.71
853.184	131.475
853.235	132.89
853.285	135.442
853.336	141.783
853.386	126.265
853.437	132.334
853.487	131.229
853.538	129.625
853.588	122.353
853.639	133.434
853.689	132.858
853.74	143.127
853.79	124.286
853.841	130.765
853.891	121.559
853.942	124.665
853.992	121.992
854.043	123.78
854.093	125.506
854.144	124.592
854.194	122.584
854.245	133.667
854.295	131.424
854.346	131.7
854.396	124.74
854.447	128.812
854.497	124.721
854.548	136.335
854.598	129.136
854.649	127.852
854.699	138.69
854.75	124.732
854.8	129.775
854.851	129.053
854.901	128.433
854.952	109.118
855.002	119.884
855.053	128.934
855.103	131.786
855.154	123.981
855.204	128.393
855.255	130.44
855.305	127.526
855.356	122.125
855.406	126.638
855.457	134.648
855.507	133.917
855.558	121.359
855.608	123.973
855.659	118.588
855.709	128.355
855.76	122.996
855.81	132.422
855.861	125.318
855.911	124.403
855.962	120.826
856.012	120.12
856.063	130.292
856.113	124.823
856.164	115.436
856.214	118.3
856.265	114.712
856.315	117.575
856.366	120.363
856.416	130.202
856.467	128.601
856.517	127.138
856.568	132.273
856.618	131.472
856.668	124.181
856.719	123.425
856.769	115.779
856.82	120.753
856.87	125.308
856.921	113.396
856.971	111.653
857.022	122.586
857.072	126.669
857.123	122.063
857.173	118.424
857.224	117.621
857.274	122.137
857.325	114.33
857.352	105.324
857.403	119.192
857.453	127.515
857.504	105.344
857.555	105.348
857.606	116.439
857.656	116.438
857.707	113.66
857.758	119.197
857.809	127.504
857.859	121.957
857.91	116.418
857.961	119.205
858.012	135.869
858.063	110.946
858.113	108.205
858.164	111.008
858.215	136.007
858.266	116.581
858.316	113.794
858.367	144.295
858.418	116.517
858.469	119.262
858.519	127.558
858.57	116.452
858.621	127.533
858.672	127.527
858.722	113.659
858.773	124.736
858.824	121.949
858.875	110.851
858.925	116.389
858.976	119.166
859.027	102.553
859.078	102.573
859.128	113.681
859.179	124.783
859.23	124.778
859.281	108.125
859.331	130.28
859.382	113.631
859.433	119.168
859.483	110.862
859.534	105.335
859.585	127.533
859.636	113.684
859.686	113.686
859.737	133.088
859.788	116.442
859.839	119.21
859.889	105.355
859.94	116.467
859.991	124.819
860.042	124.854
860.092	127.655
860.143	124.889
860.194	108.23
860.245	113.759
860.295	122.056
860.346	122.034
860.397	124.801
860.447	116.493
860.498	110.975
860.549	124.892
860.6	111.06
860.65	108.32
860.701	122.234
860.752	113.906
860.802	125.007
860.853	116.651
860.904	105.519
860.955	122.16
861.005	127.704
861.056	105.499
861.107	111.068
861.158	113.867
861.208	119.45
861.259	100.028
861.31	113.948
861.36	111.194
861.411	122.339
861.462	130.706
861.513	122.381
861.563	127.956
861.614	116.833
861.665	108.483
861.715	108.473
861.766	122.363
861.817	127.9
861.868	108.409
861.918	113.933
861.969	105.559
862.02	116.626
862.07	111.033
862.121	94.351
862.172	119.306
862.223	97.1052
862.273	99.8868
862.324	108.227
862.375	113.797
862.425	113.814
862.476	108.269
862.527	113.816
862.577	119.347
862.628	102.667
862.679	110.956
862.73	113.697
862.78	105.359
862.831	108.133
862.882	108.159
862.932	110.984
862.983	97.1716
863.034	108.351
863.084	105.638
863.135	114.028
863.186	122.394
863.237	116.82
863.287	116.783
863.338	119.508
863.389	108.335
863.439	111.063
863.49	113.803
863.541	119.338
863.591	113.793
863.642	111.042
863.693	111.08
863.744	97.2355
863.794	105.614
863.845	113.992
863.896	105.675
863.946	105.685
863.997	100.121
864.048	105.677
864.098	114.016
864.149	105.681
864.2	100.138
864.25	94.6026
864.301	114.116
864.352	108.576
864.402	103.02
864.453	108.586
864.504	122.489
864.555	108.549
864.605	119.66
864.656	100.167
864.707	108.504
864.757	111.276
864.808	100.135
864.859	105.677
864.909	102.869
864.96	111.182
865.011	111.167
865.061	88.9364
865.112	102.853
865.163	111.226
865.213	119.606
865.264	105.725
865.315	105.739
865.365	100.172
865.416	111.291
865.467	108.495
865.517	122.398
865.568	116.842
865.619	114.082
865.669	111.334
865.72	100.236
865.771	100.27
865.821	105.872
865.872	117.042
865.923	108.701
865.973	97.5677
866.024	94.7953
866.075	108.755
866.125	105.985
866.176	106
866.227	106.009
866.277	103.221
866.328	114.374
866.379	108.785
866.429	103.199
866.48	119.931
866.531	100.409
866.581	111.573
866.632	103.212
866.683	125.531
866.733	108.792
866.784	94.8377
866.835	92.0419
866.885	100.408
866.936	105.996
866.987	92.07
867.037	108.85
867.088	125.652
867.138	100.568
867.189	100.607
867.24	114.607
867.29	106.229
867.341	109.015
867.392	103.407
867.442	106.183
867.493	117.348
867.544	89.4094
867.594	95.0116
867.645	86.6499
867.696	109.044
867.746	114.671
867.797	83.9268
867.848	114.722
867.898	111.938
867.949	111.948
867.999	83.967
868.05	97.9683
868.101	106.374
868.151	120.382
868.202	103.595
868.253	100.806
868.303	114.819
868.354	98.028
868.405	98.0429
868.455	109.27
868.506	78.4721
868.556	89.7131
868.607	109.38
868.658	98.1994
868.708	103.847
868.759	106.684
868.81	103.898
868.86	98.2974
868.911	98.3101
868.961	106.751
869.012	103.957
869.063	95.5448
869.113	92.7511
869.164	106.822
869.215	87.158
869.265	106.854
869.316	98.4308
869.367	112.505
869.417	95.6359
869.468	106.888
869.518	92.8176
869.569	106.867
869.62	101.227
869.67	109.651
869.721	98.4019
869.771	101.221
869.822	101.237
869.873	104.066
869.923	112.517
869.974	101.267
870.025	104.073
870.075	92.8116
870.126	104.053
870.176	101.243
870.227	109.696
870.278	106.912
870.328	95.6917
870.379	104.176
870.43	98.5834
870.48	92.9853
870.531	95.8385
870.581	101.513
870.632	112.834
870.683	90.2986
870.733	98.7955
870.784	107.292
870.834	98.8414
870.885	107.329
870.936	96.0392
870.986	96.0433
871.037	107.342
871.087	93.214
871.138	98.8552
871.189	90.3731
871.239	115.782
871.29	104.487
871.34	90.3776
871.391	87.574
871.442	107.385
871.492	98.9472
871.543	98.9879
871.593	113.172
871.644	104.717
871.695	101.912
871.745	99.0979
871.796	113.265
871.846	90.6137
871.897	101.938
871.948	101.934
871.998	99.1043
872.049	104.778
872.099	87.8034
872.15	99.1571
872.201	93.5123
872.251	99.1936
872.302	107.697
872.352	110.52
872.403	104.836
872.453	82.1584
872.504	107.652
872.555	110.492
872.605	99.171
872.656	87.8465
872.706	93.5169
872.757	87.8436
872.808	116.165
872.858	99.1521
872.909	93.4802
872.959	110.482
873.01	116.168
873.06	96.36
873.111	121.905
873.162	90.7467
873.212	96.4411
873.263	90.7816
873.313	102.134
873.364	90.7826
873.415	96.4476
873.465	102.111
873.516	96.4337
873.566	96.4392
873.617	93.6197
873.667	96.484
873.718	99.3536
873.769	116.416
873.819	93.7105
873.87	96.5382
873.92	110.695
873.971	113.471
874.021	104.895
874.072	90.6683
874.123	93.4639
874.173	101.944
874.224	99.1203
874.274	84.9849
874.325	104.86
874.375	93.5692
874.426	102.126
874.477	96.4959
874.527	96.5338
874.578	102.244
874.628	88.0619
874.679	96.5926
874.729	99.4298
874.78	90.8942
874.83	96.5552
874.881	90.8567
874.932	88.0043
874.982	90.8385
875.033	96.5203
875.083	107.888
875.134	105.061
875.184	88.0275
875.235	99.3776
875.285	82.3282
875.336	96.5076
875.387	87.9864
875.437	99.3466
875.488	88.0115
875.538	102.239
875.589	96.5908
875.639	90.9324
875.69	93.7843
875.74	99.4613
875.791	99.439
875.841	93.7286
875.892	93.7025
875.943	79.4924
875.993	96.5279
876.044	76.6693
876.094	96.5781
876.145	96.6143
876.195	90.9617
876.246	90.9825
876.296	88.1475
876.347	93.8317
876.397	85.293
876.448	85.2838
876.499	90.9639
876.549	88.1232
876.6	99.5046
876.65	99.5219
876.701	105.231
876.751	99.5633
876.802	99.5821
876.852	99.5983
876.903	108.15
876.953	93.9322
877.004	102.485
877.054	88.2634
877.105	102.516
877.155	88.2935
877.206	82.6134
877.257	85.4791
877.307	94.0438
877.358	94.0563
877.408	88.3619
877.459	91.212
877.509	108.308
877.56	85.4981
877.61	99.7391
877.661	94.0349
877.711	99.734
877.762	96.889
877.812	99.7464
877.863	88.355
877.913	102.616
877.964	94.0758
878.014	94.0896
878.065	85.5526
878.115	88.4263
878.166	91.3062
878.216	91.3374
878.267	102.792
878.318	79.9796
878.368	85.7249
878.419	91.4742
878.469	85.7883
878.52	91.539
878.57	97.2902
878.621	88.7282
878.671	91.6067
878.722	94.4778
878.772	105.929
878.823	91.6046
878.873	88.7259
878.924	77.2597
878.974	94.4067
879.025	88.6693
879.075	97.2435
879.126	88.6709
879.176	97.2779
879.227	94.4583
879.277	100.241
879.328	88.8419
879.378	100.37
879.429	83.2108
879.479	103.342
879.53	91.8867
879.58	103.389
879.631	100.522
879.681	97.6486
879.732	89.0294
879.782	83.2832
879.833	91.8981
879.883	97.6436
879.934	94.7756
879.984	80.4205
880.035	112.024
880.085	91.9276
880.136	89.0696
880.186	80.4684
880.237	91.991
880.287	80.5207
880.338	86.306
880.388	89.2189
880.439	106.528
880.489	92.166
880.54	89.3163
880.59	83.5824
880.641	92.2616
880.691	92.2953
880.742	86.557
880.792	80.8095
880.842	83.7104
880.893	89.4882
880.943	89.4836
880.994	95.2476
881.044	80.8115
881.095	83.7022
881.145	86.6063
881.196	80.8605
881.246	92.4521
881.297	80.932
881.347	86.7478
881.398	80.991
881.448	86.7979
881.499	78.1348
881.549	86.835
881.6	86.8561
881.65	78.1916
881.701	107.18
881.751	89.8207
881.802	101.427
881.852	84.047
881.902	92.7444
881.953	75.356
882.003	84.0551
882.054	89.862
882.104	89.8774
882.155	92.7947
882.205	104.411
882.256	89.9155
882.306	78.3099
882.357	89.8987
882.407	89.8828
882.458	84.073
882.508	86.9714
882.559	92.7842
882.609	92.814
882.659	87.0516
882.71	84.1915
882.76	87.1365
882.811	98.7964
882.861	72.6694
882.912	78.504
882.962	90.1532
883.013	95.9862
883.063	93.0918
883.114	93.1058
883.164	90.2109
883.214	78.5858
883.265	90.2487
883.315	78.6242
883.366	84.4713
883.416	93.2327
883.467	93.2498
883.517	90.3447
883.568	104.919
883.618	87.4324
883.669	90.3494
883.719	81.6153
883.769	96.2109
883.82	81.6588
883.87	93.3564
883.921	93.3853
883.971	87.5692
884.022	93.4217
884.072	84.6733
884.123	78.8444
884.173	87.6224
884.223	84.7253
884.274	93.5204
884.324	87.7027
884.375	99.4199
884.425	93.5833
884.476	76.0379
884.526	84.808
884.577	84.8048
884.627	87.7316
884.677	81.8931
884.728	78.9859
884.778	93.6397
884.829	87.8138
884.879	79.0537
884.93	99.569
884.98	87.8643
885.03	82.0065
885.081	90.7826
885.131	90.7629
885.182	93.6634
885.232	90.7074
885.283	87.7566
885.333	90.6663
885.383	96.5151
885.434	87.7557
885.484	76.0777
885.535	87.8113
885.585	87.8342
885.635	87.8386
885.686	96.6115
885.736	81.9572
885.787	67.3112
885.837	84.8684
885.888	102.443
885.938	90.7647
885.988	84.9437
886.039	90.8373
886.089	87.9309
886.14	96.7336
886.19	52.7606
886.241	70.3366
886.291	90.838
886.341	90.8332
886.392	67.3987
886.442	82.0698
886.493	73.2996
886.543	87.9864
886.593	76.2714
886.644	79.2114
886.694	96.8098
886.745	96.7992
886.795	70.3933
886.845	82.1273
886.896	90.9431
886.946	82.1706
886.997	64.5932
887.047	94.0038
887.097	91.1144
887.148	76.4549
887.198	70.6023
887.249	82.3965
887.299	76.531
887.349	85.3782
887.4	94.2225
887.45	88.3392
887.501	76.5617
887.551	85.3956
887.602	79.5085
887.652	79.5165
887.702	85.4234
887.753	67.7688
887.803	82.5285
887.853	79.6068
887.904	88.4758
887.954	88.4923
888.005	73.7521
888.055	85.5597
888.105	79.6678
888.156	79.6825
888.206	88.5616
888.257	91.5485
888.307	76.8155
888.357	67.9799
888.408	91.6543
888.458	85.7566
888.509	79.845
888.559	70.9672
888.609	85.7398
888.66	82.7729
888.71	88.6813
888.76	85.7313
888.811	94.6172
888.861	73.9386
888.912	82.834
888.962	73.9769
889.012	91.7477
889.063	71.0379
889.113	79.922
889.163	71.0443
889.214	76.969
889.264	85.8589
889.315	76.9891
889.365	82.9281
889.415	79.984
889.466	65.1858
889.516	74.0879
889.566	74.098
889.617	85.9629
889.667	85.9718
889.718	74.1235
889.768	77.1032
889.818	91.9552
889.869	77.1496
889.919	71.2422
889.969	74.2398
890.02	71.2962
890.07	77.2609
890.12	71.3335
890.171	65.3981
890.221	83.2404
890.272	77.2989
890.322	83.2518
890.372	80.2919
890.423	86.2647
890.473	80.3509
890.523	74.4424
890.574	71.5136
890.624	95.4201
890.674	83.5494
890.725	77.626
890.775	89.6062
890.826	95.6035
890.876	74.6973
890.926	83.66
890.977	83.6552
891.027	98.5897
891.077	65.7285
891.128	74.7015
891.178	83.686
891.228	77.7337
891.279	80.7528
891.329	62.8293
891.379	80.8024
891.43	83.8091
891.48	86.8081
891.53	77.828
891.581	83.8145
891.631	83.8199
891.681	80.8419
891.732	83.8659
891.782	80.9126
891.832	80.9642
891.883	72.0181
891.933	60.055
891.983	72.1064
892.034	81.1524
892.084	72.152
892.134	81.178
892.185	90.1989
892.235	81.1818
892.286	81.1939
892.336	78.2118
892.386	93.2995
892.437	78.301
892.487	81.3682
892.537	87.4514
892.587	66.3775
892.638	69.4226
892.688	78.5023
892.738	99.6664
892.789	90.6362
892.839	60.4492
892.889	78.6223
892.94	78.662
892.99	81.7239
893.04	72.6665
893.091	81.7625
893.141	93.8755
893.191	81.7543
893.242	66.6057
893.292	75.6807
893.342	75.6786
893.393	72.6554
893.443	78.7197
893.493	75.7049
893.544	78.7493
893.594	84.8272
893.644	90.9115
893.695	78.8151
893.745	87.9394
893.795	72.8026
893.846	72.8258
893.896	66.7755
893.946	85.0081
893.996	75.9187
894.047	66.8268
894.097	91.1556
894.147	91.1845
894.198	88.1689
894.248	72.9795
894.298	79.0638
894.349	76.0174
894.399	79.05
894.449	76.0072
894.5	76.0167
894.55	88.2067
894.6	63.9032
894.65	79.1602
894.701	79.201
894.751	79.2365
894.801	70.1208
894.852	73.1966
894.902	91.5341
894.952	76.3176
895.003	76.3642
895.053	70.3019
895.103	85.6414
895.153	67.3294
895.204	73.4861
895.254	79.6402
895.304	79.6631
895.355	82.7454
895.405	88.8911
895.455	76.643
895.505	82.7884
895.556	82.8037
895.606	70.551
895.656	82.8396
895.707	73.6527
895.757	76.7392
895.807	64.4745
895.858	85.9824
895.908	85.9981
895.958	79.8722
896.008	76.8196
896.059	79.9153
896.109	70.7154
896.159	76.8868
896.21	79.9832
896.26	70.7708
896.31	76.9412
896.36	76.9571
896.411	76.9727
896.461	64.6689
896.511	83.1569
896.561	67.7614
896.612	61.5999
896.662	76.9949
896.712	83.1514
896.763	70.838
896.813	67.7758
896.863	80.1365
896.913	74.0202
896.964	74.0746
897.014	74.1266
897.064	77.2579
897.115	68.0094
897.165	58.741
897.215	74.1918
897.265	80.357
897.316	77.2467
897.366	64.872
897.416	74.1254
897.466	92.6437
897.517	71.0203
897.567	83.3695
897.617	74.1121
897.667	71.0408
897.718	67.9808
897.768	74.2058
897.818	80.4482
897.868	77.4121
897.919	68.1669
897.969	74.3969
898.019	80.6104
898.069	77.5015
898.12	71.2765
898.17	77.4352
898.22	80.4878
898.27	71.1657
898.321	61.8634
898.371	74.2317
898.421	71.1567
898.471	74.2928
898.522	74.3541
898.572	71.3252
898.622	74.4992
898.672	71.4554
898.723	59.0646
898.773	80.8537
898.823	77.7535
898.873	80.8626
898.924	80.8592
898.974	68.4206
899.024	77.7598
899.074	65.3311
899.125	73.1238
899.175	80.9138
899.225	68.4646
899.275	65.3404
899.326	74.6503
899.376	90.1678
899.426	71.489
899.476	74.5852
899.527	65.267
899.577	80.8335
899.627	68.4352
899.677	84.0466
899.728	65.4176
899.778	62.3456
899.828	84.2164
899.878	78.0141
899.928	74.9182
899.979	81.179
