#Acq. time (s)=	5
#Accumulations=	2
#Range (nm)=	520...900
#Windows=	8
#Auto scanning=	Off
#Autofocus=	Off
#AutoExposure=	Off
#Spike filter=	Multiple accum.
#Delay time (s)=	0
#Binning=	1
#Readout mode=	Signal
#DeNoise=	Off
#ICS correction=	On
#Dark correction=	Off
#Inst. Process=	Off
#Detector temperature (°C)=	-59.98
#Instrument=	LabRAM HR Evol
#Detector=	Syncerity OE
#Objective=	x50_VIS
#Grating=	600 (500nm)
#ND Filter=	10%
#Laser=	514nm_Edge
#Hole=	199.981
#Range=	Auto
#StageXY=	Marzhauser
#StageZ=	Marzhauser
#X (µm)=	-19144.6
#Y (µm)=	7183.9
#Z (µm)=	-16.2
#Full time(mm:ss)=	2:05
#Project=	
#Sample=	
#Site=	
#Title=	LT_191023_M3_borda
#Remark=	
#Date=	27.10.2023 13:35
#Acquired=	27.10.2023 13:35:17
520.044	39.6377
520.097	44.9434
520.149	37.6708
520.201	34.0124
520.254	46.453
520.306	44.5882
520.359	40.9599
520.411	40.9122
520.464	37.3257
520.516	47.9733
520.569	42.6454
520.621	46.2191
520.674	44.474
520.726	44.5163
520.778	46.3466
520.831	39.2592
520.883	42.8711
520.936	48.2671
520.988	41.1385
521.041	44.7286
521.093	48.3113
521.146	39.3629
521.198	37.5689
521.25	46.5051
521.303	46.4923
521.355	48.2601
521.408	32.1529
521.46	46.4024
521.513	41.0037
521.565	49.8574
521.617	35.57
521.67	42.6387
521.722	40.8271
521.775	33.705
521.827	39.0083
521.88	38.9943
521.932	46.0716
521.984	42.5209
522.037	33.663
522.089	44.3057
522.142	42.5585
522.194	39.0464
522.247	35.5355
522.299	42.6928
522.352	32.0559
522.404	41.0016
522.456	39.2525
522.509	46.4234
522.561	39.3075
522.614	39.3324
522.666	46.5119
522.719	37.5876
522.771	39.3936
522.823	39.4019
522.876	41.1908
522.928	41.1758
522.981	37.5679
523.033	35.739
523.086	41.038
523.138	44.5253
523.19	40.8814
523.243	35.4786
523.295	47.8116
523.348	44.2077
523.4	45.9294
523.453	37.0706
523.505	44.1066
523.557	42.3168
523.61	36.9996
523.662	40.4883
523.715	42.2124
523.767	40.4273
523.82	36.9023
523.872	49.2145
523.924	43.9727
523.977	45.7809
524.029	44.0766
524.082	38.8393
524.134	49.4959
524.186	47.7866
524.239	35.4387
524.291	44.3493
524.344	47.9524
524.396	42.6738
524.449	42.7223
524.501	51.6781
524.553	39.2416
524.606	42.8431
524.658	35.724
524.711	48.2449
524.763	41.1012
524.815	48.2393
524.868	32.1436
524.92	44.6107
524.973	44.5698
525.025	49.869
525.078	35.5871
525.13	44.448
525.182	40.8673
525.235	40.8515
525.287	31.9648
525.34	44.3941
525.392	40.8444
525.444	39.0706
525.497	37.2947
525.549	40.8434
525.602	42.6133
525.654	40.8321
525.706	47.9317
525.759	51.4913
525.811	40.8579
525.864	39.1145
525.916	46.2813
525.969	33.8704
526.021	44.6384
526.073	44.712
526.126	46.5742
526.178	39.4665
526.231	46.7047
526.283	41.3667
526.335	46.8176
526.388	41.4616
526.44	50.5264
526.493	34.3161
526.545	43.3775
526.597	52.4414
526.65	45.2221
526.702	41.6086
526.755	48.8402
526.807	47.0179
526.859	50.6114
526.912	45.1618
526.964	50.5469
527.017	48.7082
527.069	43.2695
527.121	43.2484
527.174	48.6378
527.226	52.2291
527.279	34.2136
527.331	37.8087
527.383	43.1997
527.436	46.7842
527.488	41.3689
527.54	43.1476
527.593	46.7213
527.645	44.9049
527.698	34.1154
527.75	52.0572
527.802	44.8712
527.855	43.0782
527.907	41.2931
527.96	44.9039
528.012	46.7299
528.064	48.5657
528.117	41.4077
528.169	41.4474
528.222	48.705
528.274	48.7584
528.326	43.3935
528.379	43.4526
528.431	43.5175
528.484	52.6655
528.536	47.289
528.588	38.2477
528.641	47.4098
528.693	41.9798
528.745	49.3201
528.798	49.3556
528.85	56.7069
528.903	45.7621
528.955	43.9571
529.007	43.974
529.06	49.4746
529.112	38.4698
529.164	43.9397
529.217	51.2223
529.269	49.3499
529.322	40.1771
529.374	51.0946
529.426	47.4086
529.479	45.5468
529.531	40.0415
529.584	49.0856
529.636	50.8408
529.688	52.5939
529.741	39.8583
529.793	50.6906
529.845	45.2374
529.898	47.0332
529.95	36.172
530.003	43.397
530.055	36.154
530.107	50.5984
530.16	45.1618
530.212	45.1501
530.264	50.5631
530.317	41.5388
530.369	45.167
530.422	57.8481
530.474	43.4212
530.526	41.6531
530.579	47.1396
530.631	45.3838
530.683	54.5359
530.736	54.6183
530.788	41.9425
530.841	54.8017
530.893	49.407
530.945	47.6548
530.998	55.0642
531.05	53.2883
531.102	51.4927
531.155	38.6418
531.207	51.5468
531.259	57.0988
531.312	46.0777
531.364	47.9612
531.417	49.8553
531.469	51.7553
531.521	53.6555
531.574	48.1435
531.626	53.7299
531.678	55.6053
531.731	53.7686
531.783	44.5122
531.835	48.241
531.888	48.2666
531.94	50.1552
531.992	42.7543
532.045	46.5027
532.097	46.5284
532.15	52.1335
532.202	50.2869
532.254	59.6149
532.307	52.1795
532.359	52.2034
532.411	42.9093
532.464	50.4143
532.516	54.2018
532.568	52.3862
532.621	50.5634
532.673	46.8544
532.726	46.8795
532.778	50.6437
532.83	54.3978
532.883	46.89
532.935	56.2591
532.987	50.6259
533.04	56.2457
533.092	46.8689
533.144	52.4902
533.197	33.7404
533.249	52.4768
533.301	50.5927
533.354	50.5838
533.406	48.7056
533.458	54.3259
533.511	54.3305
533.563	46.8403
533.615	43.0915
533.668	48.7003
533.72	52.4216
533.773	52.3873
533.825	37.3923
533.877	56.0499
533.93	61.6188
533.982	50.39
534.034	44.7681
534.087	54.0595
534.139	50.2864
534.191	48.3687
534.244	48.3052
534.296	46.3861
534.348	61.1599
534.401	51.8505
534.453	51.8273
534.505	57.3741
534.558	46.2754
534.61	57.3954
534.662	55.5582
534.715	51.8665
534.767	62.9955
534.819	53.7475
534.872	61.1878
534.924	55.6599
534.976	57.561
535.029	46.462
535.081	65.1052
535.133	67.0172
535.186	55.8789
535.238	52.17
535.29	48.4491
535.343	68.9479
535.395	52.1791
535.447	59.6444
535.5	65.261
535.552	57.8355
535.604	52.2744
535.657	48.5756
535.709	54.218
535.761	61.7366
535.814	54.2891
535.866	58.0755
535.918	67.4994
535.971	54.4258
536.023	52.5987
536.075	60.1598
536.128	54.544
536.18	67.7082
536.232	52.6348
536.285	58.2209
536.337	71.2881
536.389	56.2196
536.442	50.556
536.494	61.7624
536.546	56.1419
536.599	56.1487
536.651	52.4128
536.703	50.5383
536.755	52.3894
536.808	54.2177
536.86	54.1567
536.912	57.8164
536.965	61.4687
537.017	50.2397
537.069	48.336
537.122	57.5826
537.174	55.6736
537.226	53.7608
537.279	55.5478
537.331	59.1755
537.383	60.9497
537.436	49.8149
537.488	58.9919
537.54	60.8023
537.593	60.7816
537.645	58.9251
537.697	62.5898
537.75	55.2026
537.802	68.0417
537.854	56.9643
537.906	67.933
537.959	58.7066
538.011	69.6703
538.063	56.8145
538.116	53.1437
538.168	62.3166
538.22	60.5064
538.273	55.033
538.325	58.7324
538.377	55.0874
538.43	62.4549
538.482	53.2832
538.534	62.4789
538.586	51.4579
538.639	58.8147
538.691	47.7942
538.743	58.8374
538.796	64.3739
538.848	53.3582
538.9	53.378
538.953	62.6004
539.005	57.087
539.057	62.612
539.109	60.7596
539.162	62.5795
539.214	58.8718
539.266	57.0043
539.319	49.6262
539.371	62.4688
539.423	67.9619
539.476	51.4211
539.528	62.4323
539.58	67.9345
539.633	62.4198
539.685	60.5758
539.737	60.5648
539.789	69.7251
539.842	62.3679
539.894	67.8485
539.946	75.1562
539.999	58.6362
540.051	62.2773
540.103	62.2549
540.155	69.5564
540.208	75.0279
540.26	65.8669
540.312	53.0577
540.365	62.215
540.417	67.7295
540.469	60.4421
540.521	60.4859
540.574	66.0349
540.626	60.5726
540.678	56.9284
540.731	62.4519
540.783	66.1274
540.835	66.1234
540.888	58.7759
540.94	62.4592
540.992	79.0217
541.044	66.1939
541.097	57.0366
541.149	64.4366
541.201	62.6301
541.254	62.659
541.306	60.8399
541.358	59.0172
541.41	68.2607
541.463	55.3615
541.515	59.0626
541.567	66.4493
541.62	70.1387
541.672	57.2157
541.724	60.9096
541.776	59.0769
541.829	62.7959
541.881	60.9842
541.933	62.8706
541.985	72.1518
542.038	62.9172
542.09	53.6607
542.142	59.1882
542.195	59.148
542.247	68.33
542.299	55.3488
542.351	70.0397
542.404	68.1332
542.456	68.0754
542.508	58.8319
542.56	56.9569
542.613	58.7631
542.665	66.0799
542.717	64.2213
542.77	67.8694
542.822	73.3486
542.874	62.3238
542.926	62.2977
542.979	65.9305
543.031	64.0654
543.083	67.6901
543.135	62.1713
543.188	73.1153
543.24	67.6185
543.292	65.7936
543.344	69.4695
543.397	64.0193
543.449	60.4031
543.501	64.1112
543.554	69.6509
543.606	73.3472
543.658	69.6882
543.71	60.5086
543.763	56.8204
543.815	71.4525
543.867	76.9209
543.919	71.413
543.972	60.4279
544.024	67.7668
544.076	67.7891
544.128	64.149
544.181	67.84
544.233	78.8692
544.285	73.3922
544.337	66.0764
544.39	75.2811
544.442	73.4708
544.494	75.331
544.547	67.9981
544.599	68.0097
544.651	66.179
544.703	69.861
544.755	58.8337
544.808	82.7375
544.86	73.543
544.912	77.2128
544.965	64.3327
545.017	67.9933
545.069	71.6525
545.121	64.2925
545.174	73.4696
545.226	77.137
545.278	69.7797
545.33	66.0836
545.383	73.3793
545.435	76.9772
545.487	75.0617
545.539	69.4924
545.591	71.2553
545.644	73.0371
545.696	73.0149
545.748	71.1828
545.8	73.0032
545.853	71.1627
545.905	78.4238
545.957	85.6549
546.009	80.1132
546.062	74.5787
546.114	76.3304
546.166	65.3784
546.218	72.6001
546.271	81.6339
546.323	79.7805
546.375	70.6776
546.427	70.6394
546.48	79.6555
546.532	77.8142
546.584	70.5592
546.636	79.6013
546.689	70.5639
546.741	83.2494
546.793	81.4657
546.845	88.7393
546.898	83.3378
546.95	65.245
547.002	77.957
547.054	90.6701
547.106	83.427
547.159	74.3578
547.211	94.2937
547.263	88.8327
547.315	88.8098
547.368	79.7313
547.42	86.9718
547.472	92.413
547.524	92.4321
547.577	79.771
547.629	90.6826
547.681	87.085
547.733	90.7356
547.785	87.1178
547.838	98.0122
547.89	96.1976
547.942	88.9389
547.994	79.8694
548.047	92.5898
548.099	85.3461
548.151	92.6306
548.203	89.0136
548.255	92.6528
548.308	85.3786
548.36	88.9907
548.412	88.9587
548.464	88.9202
548.517	92.5082
548.569	81.5916
548.621	83.3777
548.673	99.6696
548.725	86.9767
548.778	96.0391
548.83	83.3631
548.882	86.9972
548.934	90.625
548.987	85.1754
549.039	99.6341
549.091	103.187
549.143	92.2411
549.195	95.7581
549.248	83.0254
549.3	97.3802
549.352	99.1226
549.404	99.086
549.456	104.468
549.509	100.844
549.561	108.009
549.613	98.9514
549.665	97.0763
549.718	104.175
549.77	102.294
549.822	96.8467
549.874	91.4292
549.926	96.7893
549.979	98.5751
550.031	96.775
550.083	105.712
550.135	103.875
550.187	96.6452
550.24	100.138
550.292	112.546
550.344	107.085
550.396	98.0836
550.448	90.9009
550.501	106.917
550.553	106.925
550.605	101.606
550.657	99.8571
550.709	99.8803
550.762	103.448
550.814	106.986
550.866	99.8034
550.918	106.867
550.97	117.486
551.023	106.757
551.075	112.059
551.127	119.144
551.179	113.777
551.231	110.178
551.284	122.554
551.336	122.483
551.388	125.968
551.44	115.284
551.492	125.915
551.545	125.932
551.597	127.739
551.649	131.318
551.701	152.63
551.753	143.745
551.806	152.584
551.858	163.184
551.91	172.013
551.962	200.364
552.014	212.783
552.067	244.732
552.119	290.89
552.171	360.122
552.223	519.852
552.275	1004.38
552.327	2293.22
552.38	4525.98
552.432	8191.34
552.484	12195.3
552.536	13428.7
552.588	10072.8
552.641	5143.47
552.693	1921.01
552.745	819.589
552.797	488.599
552.849	333.807
552.901	275.06
552.954	223.512
553.006	189.771
553.058	191.538
553.11	188.007
553.162	170.302
553.215	147.283
553.267	150.896
553.319	133.214
553.371	133.293
553.423	128.035
553.475	145.884
553.528	131.683
553.58	129.897
553.632	133.411
553.684	122.67
553.736	131.475
553.788	120.746
553.841	122.475
553.893	122.463
553.945	117.158
553.997	117.199
554.049	122.576
554.102	115.511
554.154	127.978
554.206	133.32
554.258	111.984
554.31	122.636
554.362	133.283
554.414	124.377
554.467	108.362
554.519	124.313
554.571	124.268
554.623	118.894
554.675	134.813
554.727	124.133
554.78	131.2
554.832	116.998
554.884	118.749
554.936	116.943
554.988	116.892
555.04	129.216
555.093	116.752
555.145	127.287
555.197	125.45
555.249	121.856
555.301	125.328
555.353	135.844
555.406	132.224
555.458	130.349
555.51	126.699
555.562	130.078
555.614	129.941
555.666	136.835
555.719	136.731
555.771	138.409
555.823	126.105
555.875	136.594
555.927	131.335
555.979	143.587
556.031	141.815
556.084	127.768
556.136	132.951
556.188	129.369
556.24	125.789
556.292	122.228
556.344	134.407
556.396	144.871
556.449	115.218
556.501	130.966
556.553	143.229
556.605	131.022
556.657	129.272
556.709	134.489
556.762	130.96
556.814	139.649
556.866	137.87
556.918	127.38
556.97	130.867
557.022	136.117
557.074	118.696
557.127	125.727
557.179	132.779
557.231	127.614
557.283	136.441
557.335	136.526
557.387	136.605
557.439	124.41
557.492	124.47
557.544	124.527
557.596	129.851
557.648	128.163
557.7	128.236
557.752	112.496
557.804	124.882
557.856	126.724
557.909	121.52
557.961	130.405
558.013	128.718
558.065	125.266
558.117	130.641
558.169	128.96
558.221	121.973
558.273	123.81
558.326	123.853
558.378	129.166
558.43	123.821
558.482	106.074
558.534	114.839
558.586	121.842
558.638	121.814
558.691	118.296
558.743	120.106
558.795	130.764
558.847	121.972
558.899	116.682
558.951	121.964
559.003	120.142
559.055	135.956
559.108	123.504
559.16	123.404
559.212	126.816
559.264	116.132
559.316	142.364
559.368	119.37
559.42	122.733
559.472	131.359
559.525	127.748
559.577	127.672
559.629	129.368
559.681	122.332
559.733	122.273
559.785	134.404
559.837	130.78
559.889	125.391
559.941	111.305
559.994	118.102
560.046	133.57
560.098	128.231
560.15	128.111
560.202	124.532
560.254	131.312
560.306	120.793
560.358	122.338
560.41	129.02
560.463	127.092
560.515	138.903
560.567	123.305
560.619	141.982
560.671	131.585
560.723	128.04
560.775	136.431
560.827	131.163
560.879	129.307
560.932	127.465
560.984	132.442
561.036	132.352
561.088	127.203
561.14	139.026
561.192	135.584
561.244	133.822
561.296	126.964
561.348	135.33
561.4	131.86
561.453	136.868
561.505	141.912
561.557	138.549
561.609	141.973
561.661	143.715
561.713	128.535
561.765	145.468
561.817	140.394
561.869	150.535
561.921	130.235
561.974	131.937
562.026	152.263
562.078	145.528
562.13	132.015
562.182	137.104
562.234	138.795
562.286	133.71
562.338	137.096
562.39	147.275
562.442	155.794
562.494	155.876
562.547	155.971
562.599	144.192
562.651	144.27
562.703	144.334
562.755	146.084
562.807	135.936
562.859	144.479
562.911	154.734
562.963	159.9
563.015	144.653
563.067	151.526
563.12	148.181
563.172	156.753
563.224	149.981
563.276	153.42
563.328	158.55
563.38	150.026
563.432	172.175
563.484	160.221
563.536	167.012
563.588	153.354
563.64	160.143
563.692	163.516
563.744	165.168
563.797	163.391
563.849	156.494
563.901	171.699
563.953	164.808
564.005	178.329
564.057	152.821
564.109	173.191
564.161	169.802
564.213	169.802
564.265	186.752
564.317	168.01
564.369	164.511
564.421	167.765
564.474	172.689
564.526	170.832
564.578	168.975
564.63	170.491
564.682	165.246
564.734	161.678
564.786	164.83
564.838	157.888
564.89	149.296
564.942	165.881
564.994	165.725
565.046	172.293
565.098	170.512
565.15	168.731
565.202	153.576
565.255	168.434
565.307	164.902
565.359	161.353
565.411	167.769
565.463	172.513
565.515	160.694
565.567	157.199
565.619	163.652
565.671	165.159
565.723	166.681
565.775	173.16
565.827	164.805
565.879	169.635
565.931	162.931
565.983	172.668
566.035	167.587
566.087	154.298
566.139	165.631
566.192	160.566
566.244	163.707
566.296	165.221
566.348	166.741
566.4	174.795
566.452	171.403
566.504	169.637
566.556	177.643
566.608	167.722
566.66	177.35
566.712	172.348
566.764	169.002
566.816	162.437
566.868	173.766
566.92	178.62
566.972	173.753
567.024	172.151
567.076	177.059
567.128	172.225
567.18	164.136
567.232	177.166
567.285	188.565
567.337	165.819
567.389	173.962
567.441	188.623
567.493	183.791
567.545	175.721
567.597	179.048
567.649	175.865
567.701	188.96
567.753	179.238
567.805	182.541
567.857	187.478
567.909	182.645
567.961	179.456
568.013	186.069
568.065	181.26
568.117	191.114
568.169	181.44
568.221	183.107
568.273	181.531
568.325	186.228
568.377	190.565
568.429	192.348
568.481	184.869
568.533	196.341
568.585	189.382
568.637	193.719
568.69	189.237
568.742	191.912
568.794	194.45
568.846	189.514
568.898	195.374
568.95	189.23
569.002	177.39
569.054	189.259
569.106	194.843
569.158	198.436
569.21	186.42
569.262	205.561
569.314	195.585
569.366	195.252
569.418	193.322
569.47	198.153
569.522	204.489
569.574	193.353
569.626	198.718
569.678	203.685
569.73	201.978
569.782	199.784
569.834	197.747
569.886	200.854
569.938	208.25
569.99	204.537
570.042	208.494
570.094	217.682
570.146	205.781
570.198	205.93
570.25	209.425
570.302	204.832
570.354	209.24
570.406	207.059
570.458	208.697
570.51	216.749
570.562	208.107
570.614	211.551
570.666	219.201
570.718	223.521
570.77	216.846
570.822	208.049
570.874	218.639
570.926	219.972
570.978	212.718
571.03	221.549
571.082	233.466
571.134	231.015
571.186	226
571.238	229.888
571.29	230.607
571.342	230.851
571.394	228.784
571.446	238.195
571.498	239.102
571.55	239.182
571.602	232.794
571.654	242.519
571.706	244.619
571.758	242.827
571.81	244.43
571.862	249.359
571.914	251.86
571.966	248.484
572.018	252.831
572.07	255.491
572.122	250.004
572.174	254.328
572.226	263.554
572.278	258.981
572.33	261.008
572.382	268.538
572.434	261.8
572.486	269.451
572.538	277.504
572.59	277.18
572.642	282.68
572.694	280.013
572.746	279.522
572.798	288.637
572.85	294.456
572.902	282.378
572.954	300.225
573.006	312.97
573.058	305.558
573.11	322.529
573.162	317.855
573.214	310.576
573.266	318.3
573.312	327.783
573.364	324.684
573.416	316.959
573.469	329.343
573.521	335.552
573.573	320.113
573.625	349.509
573.677	340.214
573.73	347.881
573.782	363.22
573.834	349.157
573.886	364.449
573.938	356.626
573.991	361.249
574.043	364.444
574.095	378.557
574.147	366.45
574.199	400.715
574.252	379.187
574.304	399.283
574.356	391.352
574.408	400.299
574.46	412.262
574.513	388.761
574.565	391.577
574.617	411.399
574.669	403.512
574.721	411.03
574.774	413.907
574.826	421.371
574.878	405.756
574.93	428.563
574.982	416.047
575.035	429.647
575.087	412.568
575.139	438.428
575.191	436.679
575.243	416.556
575.296	425.547
575.348	422.307
575.4	409.904
575.452	432.665
575.504	415.643
575.556	435.25
575.609	453.274
575.661	430.095
575.713	416.135
575.765	423.595
575.817	432.656
575.87	429.583
575.922	453.932
575.974	444.719
576.026	424.77
576.078	421.498
576.131	425.785
576.183	437.663
576.235	417.671
576.287	411.421
576.339	429.518
576.391	397.574
576.444	417.242
576.496	391.389
576.548	404.959
576.6	413.947
576.652	397.132
576.705	384.848
576.757	398.3
576.809	395.074
576.861	397.9
576.913	381.072
576.965	388.46
577.018	376.222
577.07	394.225
577.122	374.489
577.174	380.447
577.226	368.303
577.279	377.305
577.331	360.66
577.383	366.66
577.435	365.115
577.487	362.057
577.539	360.494
577.592	364.94
577.644	361.82
577.696	366.212
577.748	343.467
577.8	344.828
577.852	361.248
577.905	347.578
577.957	324.907
578.009	341.357
578.061	341.262
578.113	342.66
578.165	344.046
578.218	345.421
578.27	351.293
578.322	336.151
578.374	325.521
578.426	331.386
578.478	344.723
578.531	346.035
578.583	323.359
578.635	347.058
578.687	324.358
578.739	334.537
578.791	334.247
578.844	325.013
578.896	324.735
578.948	334.875
579	321.203
579.052	325.378
579.104	320.626
579.157	321.798
579.209	327.389
579.261	316.662
579.313	326.626
579.365	336.543
579.417	339.055
579.47	338.626
579.522	327.935
579.574	317.315
579.626	344.93
579.678	344.69
579.73	323.97
579.782	360.433
579.835	323.626
579.887	330.737
579.939	320.249
579.991	334.58
580.043	338.642
580.095	349.986
580.148	326.363
580.2	327.565
580.252	331.714
580.304	332.981
580.356	341.529
580.408	341.35
580.46	336.806
580.513	342.415
580.565	336.421
580.617	334.802
580.669	337.563
580.721	334.564
580.773	346.073
580.826	343.115
580.878	353.189
580.93	344.445
580.982	348.727
581.034	358.797
581.086	335.601
581.138	351.467
581.191	338.409
581.243	348.494
581.295	344.129
581.347	348.461
581.399	341.257
581.451	338.418
581.503	344.27
581.556	325.517
581.608	342.895
581.66	357.333
581.712	344.247
581.764	341.284
581.816	347.029
581.868	326.801
581.92	364.476
581.973	350.121
582.025	347.325
582.077	354.609
582.129	347.346
582.181	338.572
582.233	348.569
582.285	361.454
582.338	336.789
582.39	342.54
582.442	339.669
582.494	339.721
582.546	358.571
582.598	349.927
582.65	347.025
582.703	354.2
582.755	346.883
582.807	349.667
582.859	349.563
582.911	363.922
582.963	353.758
583.015	360.95
583.067	382.59
583.12	356.577
583.172	349.305
583.224	343.441
583.276	349.089
583.328	364.807
583.38	363.213
583.432	350.099
583.484	380.198
583.537	351.224
583.589	365.386
583.641	350.706
583.693	348.906
583.745	358.54
583.797	365.285
583.849	360.612
583.901	360.314
583.953	371.532
584.006	379.946
584.058	368.384
584.11	378.21
584.162	370.836
584.214	380.486
584.266	377.221
584.318	385.281
584.37	364.906
584.423	377.218
584.475	376.799
584.527	375.023
584.579	357.751
584.631	382.936
584.683	389.751
584.735	382.448
584.787	399.118
584.839	383.327
584.892	406.96
584.944	368.617
584.996	394.976
585.048	372.119
585.1	398.405
585.152	403.64
585.204	378.101
585.256	394.636
585.308	402.812
585.361	398.438
585.413	402.469
585.465	395.316
585.517	407.691
585.569	378.162
585.621	401.646
585.673	394.448
585.725	377.544
585.777	395.533
585.83	394.095
585.882	410.837
585.934	395.608
585.986	404.092
586.038	408.405
586.09	398.753
586.142	412.76
586.194	425.326
586.246	416.937
586.298	425.272
586.351	415.507
586.403	412.771
586.455	421.266
586.507	411.69
586.559	420.288
586.611	413.51
586.663	409.464
586.715	427.698
586.767	399.73
586.819	433.209
586.872	420.567
586.924	426.135
586.976	410.813
587.028	409.533
587.08	419.486
587.132	430.861
587.184	414.233
587.236	424.143
587.288	425.6
587.34	422.811
587.392	422.795
587.445	426.973
587.497	414.36
587.549	424.153
587.601	419.947
587.653	438.122
587.705	417.079
587.757	414.208
587.809	428.109
587.861	421.021
587.913	450.314
587.965	440.474
588.018	426.47
588.07	430.66
588.122	427.854
588.174	426.418
588.226	433.319
588.278	417.794
588.33	416.183
588.382	421.498
588.434	430.956
588.486	439.001
588.538	435.915
588.59	439.83
588.642	436.826
588.695	433.855
588.747	432.288
588.799	445.996
588.851	443.004
588.903	446.926
588.955	450.815
589.007	429.718
589.059	446.016
589.111	430.409
589.163	447.96
589.215	457.135
589.267	448.323
589.319	461.58
589.372	466.593
589.424	457.924
589.476	436.989
589.528	462.851
589.58	448.918
589.632	465.186
589.684	463.569
589.736	445.445
589.788	456.044
589.84	443.318
589.892	445.637
589.944	450.704
589.996	438.072
590.048	447.346
590.101	422.591
590.153	442.864
590.205	439.972
590.257	424.803
590.309	453.153
590.361	447.433
590.413	447.146
590.465	438.747
590.517	457.598
590.569	453.457
590.621	446.688
590.673	439.965
590.725	433.241
590.777	448.203
590.829	433.211
590.881	450.717
590.933	435.554
590.986	443.397
591.038	434.944
591.09	444.123
591.142	433.049
591.194	450.471
591.246	435.507
591.298	450.361
591.35	447.656
591.402	438.175
591.454	409.725
591.506	454.247
591.558	428.436
591.61	447.222
591.662	426.844
591.714	425.41
591.766	452.357
591.818	444.204
591.87	445.501
591.923	442.742
591.975	445.381
592.027	435.885
592.079	445.299
592.131	449.332
592.183	434.478
592.235	453.343
592.287	442.5
592.339	441.076
592.391	458.518
592.443	455.735
592.495	457.026
592.547	450.268
592.599	461.076
592.651	453.033
592.703	470.614
592.755	457.164
592.807	466.612
592.859	493.559
592.911	469.235
592.963	455.682
593.015	462.333
593.068	456.833
593.12	468.824
593.172	461.927
593.224	438.857
593.276	462.885
593.328	453.258
593.38	474.559
593.432	448.812
593.484	455.33
593.536	475.28
593.588	450.944
593.64	458.853
593.692	474.845
593.744	458.685
593.796	465.363
593.848	454.624
593.9	451.924
593.952	478.693
594.004	442.396
594.056	446.277
594.108	475.571
594.16	464.653
594.212	443.04
594.264	458.927
594.316	442.724
594.368	458.637
594.42	447.811
594.472	439.662
594.524	431.512
594.576	463.432
594.628	443.266
594.68	453.815
594.732	459.014
594.784	458.85
594.837	463.97
594.889	458.364
594.941	456.698
594.993	468.303
595.045	459.954
595.097	454.329
595.149	471.379
595.201	450.037
595.253	452.701
595.305	447.471
595.357	455.542
595.409	475.544
595.461	460.949
595.513	460.891
595.565	471.394
595.617	463.274
595.669	467.107
595.721	482.914
595.773	469.592
595.825	455.001
595.877	473.587
595.929	485.499
595.981	464.167
596.033	471.913
596.085	466.31
596.137	480.5
596.189	473.472
596.241	466.457
596.293	476.644
596.345	481.576
596.397	461.491
596.449	487.598
596.501	495.289
596.553	476.698
596.605	488.46
596.657	485.795
596.709	473.952
596.761	495.031
596.813	456.846
596.865	468.659
596.917	451.481
596.969	476.412
597.021	469.766
597.073	467.092
597.125	444.702
597.177	478.886
597.229	463.046
597.281	452.424
597.333	447.019
597.385	473.132
597.437	472.958
597.489	461.009
597.541	445.194
597.593	474.101
597.645	466.287
597.697	441.401
597.749	467.716
597.801	476.888
597.853	472.846
597.905	464.811
597.957	467.266
598.009	457.945
598.061	473.629
598.113	453.98
598.165	476.402
598.217	460.806
598.269	471.457
598.321	440.028
598.373	476.828
598.425	447.889
598.477	470.147
598.529	451.709
598.581	466.145
598.633	451.746
598.685	466.271
598.737	482.112
598.789	482.159
598.841	461.144
598.893	444.051
598.945	461.138
598.997	462.528
599.049	477.161
599.101	465.601
599.153	485.676
599.205	459.687
599.257	477.111
599.309	460.186
599.361	448.433
599.413	477.493
599.465	469.577
599.517	472.206
599.569	476.175
599.62	478.865
599.672	465.768
599.724	444.79
599.776	470.043
599.828	475.521
599.88	450.608
599.932	462.661
599.984	466.739
600.036	482.659
600.088	473.398
600.14	477.329
600.192	453.497
600.244	468.044
600.296	470.749
600.348	476.156
600.4	460.433
600.452	484.406
600.504	468.64
600.556	472.666
600.608	468.676
600.66	487.126
600.712	463.179
600.764	465.697
600.816	472.206
600.868	464.211
600.92	470.82
600.972	474.832
601.024	466.968
601.076	478.949
601.128	464.448
601.18	483.001
601.232	479.037
601.284	465.792
601.335	464.434
601.387	456.429
601.439	472.189
601.491	472.012
601.543	475.731
601.595	474.1
601.647	479.023
601.699	477.321
601.751	461.124
601.803	468.658
601.855	460.413
601.907	460.088
601.959	468.988
602.011	479.23
602.063	467.199
602.115	455.222
602.167	474.755
602.219	470.667
602.271	480.943
602.323	472.777
602.375	473.672
602.427	482.309
602.478	480.425
602.53	464.204
602.582	471.522
602.634	467.209
602.686	482.511
602.738	470.582
602.79	476.901
602.842	462.438
602.894	470.034
602.946	480.173
602.998	486.363
603.05	471.772
603.102	485.68
603.154	481.456
603.206	474.673
603.258	479.563
603.31	471.554
603.362	475.189
603.413	487.857
603.465	482.444
603.517	483.475
603.569	479.351
603.621	476.538
603.673	476.341
603.725	472.335
603.777	474.825
603.829	483.801
603.881	476.086
603.933	491.539
603.985	491.527
604.037	479.886
604.089	477.195
604.141	479.603
604.193	478.142
604.244	480.565
604.296	475.343
604.348	486.902
604.4	483.117
604.452	483.228
604.504	474.348
604.556	483.448
604.608	506.677
604.66	487.464
604.712	482.416
604.764	487.698
604.816	477.577
604.868	486.783
604.92	485.681
604.971	498.717
605.023	501.403
605.075	507.928
605.127	508.01
605.179	496.521
605.231	473.471
605.283	498.21
605.335	468.762
605.387	488.368
605.439	488.553
605.491	495.131
605.543	488.716
605.594	490.026
605.646	500.4
605.698	477.21
605.75	499.37
605.802	485.39
605.854	479.215
605.906	482.102
605.958	473.264
606.01	494.153
606.062	490.284
606.114	483.716
606.166	482.267
606.217	504.125
606.269	491.012
606.321	493.505
606.373	475.337
606.425	483.127
606.477	498.7
606.529	500.005
606.581	490.904
606.633	518.015
606.685	499.753
606.737	503.476
606.789	500.723
606.84	490.225
606.892	483.64
606.944	473.209
606.996	475.732
607.048	492.487
607.1	497.602
607.152	484.604
607.204	501.29
607.256	489.501
607.308	487.994
607.359	500.631
607.411	478.402
607.463	484.543
607.515	498.421
607.567	517.472
607.619	488.945
607.671	505.497
607.723	482.196
607.775	502.615
607.827	492.164
607.878	497.115
607.93	477.647
607.982	476.151
608.034	519.54
608.086	502.604
608.138	501.033
608.19	486.626
608.242	493.97
608.294	507.7
608.345	477.991
608.397	495.638
608.449	485.251
608.501	496.641
608.553	502.964
608.605	497.803
608.657	497.717
608.709	511.611
608.761	520.334
608.812	495.862
608.864	524.908
608.916	506.824
608.968	502.796
609.02	497.551
609.072	507.628
609.124	515.202
609.176	502.454
609.228	513.894
609.279	513.892
609.331	518.977
609.383	516.426
609.435	506.238
609.487	506.224
609.539	504.938
609.591	503.658
609.643	515.107
609.694	502.401
609.746	527.862
609.798	507.534
609.85	513.908
609.902	508.81
609.954	518.94
610.006	509.946
610.058	497.095
610.109	514.709
610.161	518.299
610.213	523.132
610.265	500.031
610.317	520.088
610.369	507.181
610.421	514.596
610.473	513.177
610.524	518.134
610.576	518.061
610.628	502.814
610.68	521.775
610.732	509.071
610.784	501.426
610.836	514.036
610.887	512.723
610.939	534.215
610.991	515.223
611.043	494.983
611.095	520.322
611.147	532.984
611.199	517.753
611.25	522.723
611.302	509.916
611.354	517.302
611.406	528.435
611.458	528.16
611.51	516.513
611.562	511.198
611.614	528.618
611.665	517.042
611.717	509.274
611.769	525.454
611.821	507.589
611.873	527.472
611.925	529.69
611.977	533.154
612.028	521.554
612.08	522.57
612.132	524.89
612.184	523.475
612.236	520.798
612.288	529.357
612.339	540.318
612.391	542.388
612.443	529.353
612.495	521.319
612.547	534.575
612.599	520.456
612.651	523.949
612.702	528.809
612.754	512.547
612.806	523.737
612.858	533.631
612.91	540.937
612.962	529.447
613.013	522.867
613.065	538.644
613.117	532.019
613.169	515.495
613.221	541.242
613.273	545.901
613.325	536.928
613.376	524.231
613.428	532.571
613.48	526.006
613.532	523.13
613.584	525.188
613.635	553.181
613.687	526.866
613.739	536.371
613.791	540.951
613.843	541.83
613.895	527.929
613.947	526.331
613.998	560.373
614.05	526.848
614.102	538.824
614.154	544.722
614.206	534.744
614.258	544.451
614.309	524.77
614.361	534.536
614.413	522.236
614.465	540.574
614.517	535.607
614.568	555.133
614.62	536.648
614.672	551.215
614.724	515.536
614.776	545.953
614.828	545.739
614.879	558.982
614.931	560.011
614.983	563.526
615.035	548.748
615.087	534.005
615.139	551.04
615.19	554.616
615.242	552.053
615.294	549.46
615.346	534.643
615.398	552.779
615.449	558.712
615.501	565.871
615.553	553.515
615.605	547.244
615.657	539.732
615.709	558.995
615.76	547.8
615.812	547.574
615.864	553.454
615.916	555.707
615.968	547.034
616.019	563.803
616.071	576.436
616.123	563.834
616.175	571.924
616.227	554.037
616.278	555.069
616.33	556.248
616.382	556.747
616.434	548.964
616.486	550.492
616.537	546.783
616.589	580.174
616.641	564.943
616.693	557.385
616.745	563.532
616.797	563.457
616.848	563.138
616.9	551.12
616.952	571.063
617.004	559.727
617.056	560.506
617.107	562.107
617.159	565.558
617.211	549.933
617.263	550.711
617.315	554.532
617.366	558.175
617.418	554.005
617.47	551.167
617.522	565.292
617.573	560.158
617.625	563.762
617.677	571.806
617.729	563.036
617.781	574.792
617.832	559.373
617.884	567.263
617.936	568.278
617.988	559.156
618.04	572.719
618.091	552.008
618.143	554.082
618.195	550.516
618.247	561.553
618.299	555.332
618.35	558.28
618.402	568.996
618.454	570.795
618.506	558.649
618.557	560.426
618.609	563.26
618.661	571.447
618.713	570.623
618.765	568.823
618.816	562.013
618.868	572.485
618.92	565.371
618.972	557.951
619.023	572.136
619.075	563.929
619.127	571.339
619.179	576.8
619.231	565.578
619.282	578.498
619.334	580.395
619.386	569.793
619.438	575.445
619.49	565.392
619.541	574.528
619.593	583.758
619.645	577.147
619.697	559.997
619.748	570.83
619.8	573.728
619.852	574.912
619.904	585.772
619.955	578.481
620.007	581.377
620.059	572.488
620.111	568.133
620.162	569.221
620.214	571.802
620.266	575.398
620.318	573.609
620.37	577.034
620.421	573.242
620.473	571.195
620.525	575.196
620.577	582.342
620.628	573.915
620.68	552.92
620.732	572.423
620.784	582.872
620.835	586.877
620.887	590.054
620.939	588.378
620.991	594.77
621.042	598.878
621.094	583.434
621.146	589.936
621.198	587.288
621.249	586.608
621.269	590.309
621.321	572.315
621.373	584.821
621.425	582.047
621.477	583.999
621.529	567.247
621.581	572.826
621.633	573.774
621.685	559.562
621.737	589.887
621.789	574.617
621.841	581.633
621.893	596.882
621.945	567.682
621.997	577.114
622.049	590.049
622.101	571.34
622.153	587.698
622.205	571.203
622.257	573.353
622.309	568.401
622.361	559.883
622.413	596.897
622.465	584.839
622.517	568.177
622.569	572.57
622.621	580.5
622.673	572.131
622.725	576.58
622.776	587.998
622.828	586.588
622.88	575.868
622.932	595.407
622.984	561.488
623.036	565.979
623.088	572.82
623.14	572.695
623.192	583.004
623.244	586.297
623.296	581.409
623.348	582.278
623.4	578.482
623.452	571.218
623.504	570.939
623.556	575.335
623.608	578.609
623.66	600.411
623.712	564.362
623.764	582.632
623.816	586.958
623.868	577.358
623.92	582.72
623.972	582.282
624.024	579.54
624.076	581.43
624.128	582.208
624.18	581.887
624.232	570.128
624.284	573.373
624.336	585.854
624.388	586.877
624.44	576.422
624.492	583.162
624.544	558.857
624.596	564.323
624.648	580.027
624.699	583.057
624.751	590.635
624.803	602.784
624.855	592.087
624.907	575.73
624.959	585.686
625.011	584.244
625.063	603.344
625.115	596.213
625.167	576.565
625.219	572.897
625.271	581.784
625.323	599.803
625.375	595.086
625.427	576.739
625.479	565.225
625.531	558.247
625.583	602.392
625.635	601.027
625.687	580.334
625.739	581.218
625.791	600.261
625.843	603.425
625.895	581.66
625.946	587.13
625.998	580.149
626.05	600.377
626.102	616.093
626.154	585.414
626.206	588.748
626.258	592.116
626.31	583.052
626.362	610.223
626.414	585.306
626.466	585.273
626.518	598.789
626.57	598.675
626.622	607.558
626.674	608.457
626.726	600.257
626.778	580.74
626.83	600.787
626.882	592.669
626.934	589.188
626.985	603.898
627.037	609.691
627.089	599.726
627.141	596.51
627.193	601.115
627.245	605.6
627.297	604.324
627.349	605.235
627.401	607.261
627.453	592.395
627.505	609.185
627.557	589.933
627.609	621.472
627.661	594.354
627.713	615.692
627.765	597.504
627.817	609.706
627.868	599.345
627.92	618.286
627.972	595.59
628.024	617.963
628.076	607.706
628.128	609.825
628.18	616.424
628.232	623.004
628.284	632.958
628.336	602.477
628.388	610.277
628.44	606.902
628.492	600.208
628.544	612.643
628.596	630.693
628.647	610.487
628.699	641.961
628.751	620.574
628.803	620.547
628.855	604.801
628.907	611.56
628.959	602.596
629.011	618.364
629.063	604.884
629.115	626.232
629.167	608.206
629.219	631.761
629.271	600.225
629.322	620.387
629.374	623.672
629.426	624.683
629.478	615.55
629.53	637.826
629.582	620.765
629.634	638.48
629.686	603.451
629.738	632.351
629.79	610.789
629.842	608.283
629.894	611.377
629.945	629.028
629.997	612.009
630.049	654.327
630.101	612.811
630.153	637.326
630.205	641.741
630.257	637.21
630.309	620.355
630.361	612.399
630.413	632.333
630.465	627.657
630.517	619.635
630.568	636.201
630.62	639.416
630.672	620.367
630.724	645.988
630.776	624.767
630.828	659.315
630.88	629.12
630.932	642.369
630.984	618.75
631.036	650.801
631.088	640.439
631.14	645.636
631.191	654.16
631.243	643.794
631.295	641.267
631.347	636.584
631.399	654.183
631.451	638.515
631.503	651.758
631.555	648.36
631.607	648.295
631.659	648.223
631.71	663.678
631.762	653.594
631.814	639.056
631.866	659.985
631.918	642.043
631.97	658.418
632.022	648.135
632.074	674.378
632.126	661.876
632.178	643.922
632.229	653.74
632.281	649.301
632.333	671.521
632.385	671.683
632.437	664.104
632.489	645.406
632.541	663.164
632.593	669.775
632.645	687.4
632.696	676.226
632.748	671.706
632.8	662.787
632.852	661.634
632.904	669.329
632.956	690.268
633.008	665.8
633.06	673.345
633.112	678.622
633.164	683.881
633.215	685.854
633.267	686.787
633.319	680.071
633.371	685.569
633.423	697.733
633.475	667.949
633.527	682.294
633.579	685.541
633.63	688.727
633.682	648.833
633.734	702.712
633.786	689.302
633.838	684.748
633.89	691.248
633.942	683.421
633.994	699.823
634.046	705.16
634.097	691.731
634.149	699.22
634.201	700.132
634.253	695.622
634.305	690.126
634.357	714.471
634.409	718.006
634.461	711.683
634.512	705.355
634.564	745.282
634.616	725.604
634.668	740.017
634.72	721.252
634.772	736.589
634.824	729.801
634.876	717.457
634.927	731.547
634.979	746.752
635.031	743.292
635.083	769.653
635.135	747.661
635.187	743.354
635.239	723.648
635.291	742.457
635.342	762.295
635.394	772.124
635.446	771.958
635.498	757.441
635.55	780.36
635.602	787.908
635.654	773.509
635.705	780.07
635.757	781.157
635.809	798.745
635.861	797.601
635.913	775.518
635.965	789.707
636.017	813.786
636.068	796.107
636.12	805.985
636.172	825.842
636.224	807.282
636.276	788.74
636.328	830.661
636.38	840.563
636.431	823.893
636.483	860.937
636.535	830.775
636.587	857.715
636.639	842.975
636.691	870.094
636.743	867.788
636.794	849.227
636.846	870.318
636.898	884.901
636.95	864.323
637.002	886.468
637.054	884.295
637.106	886.35
637.157	878.386
637.209	890.105
637.261	898.508
637.313	871.857
637.365	880.385
637.417	888.991
637.469	911.906
637.52	901.971
637.572	905.189
637.624	902.917
637.676	894.066
637.728	914.812
637.78	895.059
637.831	907.129
637.883	900.626
637.935	899.641
637.987	903.058
638.039	909.76
638.091	893.416
638.143	873.732
638.194	903.309
638.246	903.2
638.298	920.528
638.35	900.508
638.402	912.195
638.454	880.06
638.505	908.15
638.557	899.086
638.609	874.8
638.661	865.915
638.713	882.257
638.765	888.822
638.816	885.59
638.868	902.05
638.92	884.589
638.972	864.876
639.024	882.245
639.076	865.621
639.127	869.684
639.179	847.499
639.231	855.93
639.283	880.816
639.335	870.89
639.387	870.897
639.438	849.142
639.49	844.861
639.542	852.559
639.594	859.124
639.646	866.75
639.698	851.447
639.749	832.881
639.801	842.703
639.853	825.213
639.905	844.777
639.957	827.147
640.008	837.804
640.06	847.312
640.112	819.755
640.164	835.88
640.216	843.41
640.268	808.597
640.319	848.044
640.371	823.299
640.423	793.139
640.475	826.253
640.527	816.745
640.578	838.793
640.63	825.755
640.682	825.686
640.734	802.573
640.786	824.162
640.838	831.533
640.889	820.384
640.941	832.208
640.993	805.929
641.045	808.056
641.097	829.817
641.148	812.281
641.2	823.016
641.252	808.599
641.304	810.48
641.356	789.497
641.408	802.346
641.459	802.239
641.511	809.87
641.563	825.199
641.615	818.764
641.667	795.928
641.718	812.171
641.77	822.842
641.822	818.188
641.874	801.556
641.926	799.122
641.977	793.533
642.029	809.807
642.081	816.404
642.133	824.155
642.185	812.347
642.236	821.164
642.288	826.655
642.34	805.965
642.392	805.876
642.444	814.443
642.495	827.34
642.547	811.977
642.599	791.207
642.651	811.756
642.703	801.881
642.754	812.631
642.806	815.732
642.858	793.8
642.91	800.054
642.962	782.398
643.013	799.461
643.065	783.997
643.117	808.682
643.169	819.289
643.221	832.064
643.272	801.493
643.324	817.469
643.376	831.241
643.428	829.845
643.479	823.064
643.531	810.943
643.583	807.564
643.635	825.912
643.687	818.411
643.738	817.453
643.79	784.028
643.842	827.302
643.894	810.976
643.946	803.174
643.997	830.933
644.049	815.409
644.101	788.026
644.153	812.513
644.205	811.172
644.256	812.067
644.308	796.846
644.36	824.789
644.412	829.026
644.463	816.036
644.515	824.637
644.567	805.255
644.619	821.487
644.671	821.57
644.722	818.411
644.774	808.748
644.826	824.928
644.878	820.599
644.929	817.354
644.981	847.561
645.033	838.969
645.085	833.601
645.136	817.398
645.188	839.94
645.24	830.064
645.292	846.034
645.344	840.486
645.395	853.355
645.447	814.628
645.499	844.971
645.551	831.192
645.602	827.12
645.654	826.263
645.706	844.811
645.758	829.93
645.81	851.801
645.861	837.048
645.913	839.642
645.965	821.724
646.017	847.03
646.068	840.888
646.12	835.699
646.172	842.28
646.224	842.239
646.275	848.594
646.327	850.553
646.379	824.357
646.431	863.082
646.482	832.634
646.534	849.843
646.586	857.4
646.638	854.212
646.689	851.054
646.741	837.068
646.793	870.625
646.845	834.912
646.896	833.776
646.948	835.888
647	847.769
647.052	852.131
647.104	850.037
647.155	868.479
647.207	832.775
647.259	852.119
647.31	843.228
647.362	835.333
647.414	865.22
647.466	878.921
647.518	838.733
647.569	852.639
647.621	852.617
647.673	841.863
647.724	866.731
647.776	844.057
647.828	865.554
647.88	865.378
647.931	841.417
647.983	872.467
648.035	865.818
648.087	853.872
648.138	859.28
648.19	845.362
648.242	865.989
648.294	882.297
648.345	859.719
648.397	887.755
648.449	858.533
648.501	862.672
648.552	858.127
648.604	895.577
648.656	879.115
648.708	877.735
648.759	861.294
648.811	883.641
648.863	881.278
648.915	876.83
648.966	893.964
649.018	877.795
649.07	886.379
649.121	893.848
649.173	882.962
649.225	837.597
649.277	857.777
649.328	870.416
649.38	880.933
649.432	895.803
649.484	869.916
649.535	883.795
649.587	892.282
649.639	909.294
649.69	888.652
649.742	895.849
649.794	893.359
649.846	878.027
649.897	892.778
649.949	918.326
650.001	888.241
650.053	890.371
650.104	901.112
650.156	899.009
650.208	918.339
650.259	903.382
650.311	887.367
650.363	901.396
650.415	907.975
650.466	902.822
650.518	897.718
650.57	896.932
650.621	900.439
650.673	906.057
650.725	901.943
650.777	893.438
650.828	899.867
650.88	899.77
650.932	920.021
650.984	913.429
651.035	922.98
651.087	934.753
651.139	913.343
651.19	917.76
651.242	887.854
651.294	912.687
651.345	890.23
651.397	913.9
651.449	947.214
651.501	905.377
651.552	914.09
651.604	914.313
651.656	917.85
651.707	918.205
651.759	912.079
651.811	928.446
651.863	916.711
651.914	959.721
651.966	921.951
652.018	928.27
652.069	920.641
652.121	917.387
652.173	940.025
652.224	924.007
652.276	952.133
652.328	946.936
652.38	943.913
652.431	924.773
652.483	936.896
652.535	952.295
652.586	956.933
652.638	960.446
652.69	922.878
652.741	915.341
652.793	947.533
652.845	939.716
652.897	943.71
652.948	957.442
653	957.287
653.052	963.739
653.103	947.7
653.155	943.557
653.207	926.451
653.258	945.863
653.31	961.884
653.362	958.356
653.413	963.319
653.465	978.975
653.517	958.061
653.568	971.619
653.62	972.362
653.672	959.225
653.724	961.181
653.775	964.212
653.827	930.694
653.879	969.016
653.93	984.703
653.982	956.374
654.034	990.248
654.085	985.61
654.137	960.737
654.189	976.661
654.24	984.043
654.292	972.091
654.344	974.995
654.395	967.03
654.447	984.593
654.499	980.701
654.55	978.97
654.602	961.318
654.654	999.228
654.705	973.2
654.757	973.821
654.809	1003.13
654.86	997.218
654.912	985.961
654.964	1007.71
655.016	1022.12
655.067	992.056
655.119	988.699
655.17	1002.42
655.222	1003.42
655.274	1005.42
655.326	1009.46
655.377	1020.81
655.429	1007.64
655.481	1006.06
655.532	1026.69
655.584	1025.05
655.635	1013.96
655.687	976.542
655.739	996.43
655.79	1036.58
655.842	1015.51
655.894	1044.21
655.945	1027.36
655.997	1022
656.049	1022.83
656.1	1016.12
656.152	1024.15
656.204	1038.55
656.255	1035.08
656.307	1057.06
656.359	1040.03
656.41	1048.35
656.462	1043.93
656.514	1047.86
656.565	1066.49
656.617	1062.95
656.669	1032.04
656.72	1046.57
656.772	1047.53
656.824	1039.12
656.875	1044.5
656.927	1069.99
656.979	1041.79
657.03	1082.2
657.082	1056.24
657.134	1066.23
657.185	1053.02
657.237	1061.97
657.288	1061.29
657.34	1079.48
657.392	1052.01
657.443	1071.95
657.495	1084.4
657.547	1052.47
657.598	1073.47
657.65	1061.84
657.702	1074.66
657.753	1098.17
657.805	1069.94
657.857	1078.71
657.908	1094.88
657.96	1078.24
658.011	1066.88
658.063	1089.44
658.115	1098.31
658.166	1088.18
658.218	1100.33
658.27	1091.29
658.321	1054.6
658.373	1086.79
658.425	1097.67
658.476	1097.87
658.528	1120.34
658.579	1106.71
658.631	1086.75
658.683	1085.94
658.734	1100.02
658.786	1115.17
658.838	1082.44
658.889	1101.79
658.941	1095.63
658.992	1072.51
659.044	1101.62
659.096	1103.18
659.147	1111.23
659.199	1096.94
659.251	1092.23
659.302	1115.19
659.354	1099.62
659.406	1099.95
659.457	1094.82
659.509	1112
659.56	1109.84
659.612	1116.11
659.664	1100.9
659.715	1081.31
659.767	1131
659.818	1104.87
659.87	1095.81
659.922	1096.4
659.973	1088.54
660.025	1115.94
660.077	1095.53
660.128	1096.55
660.18	1112.61
660.231	1084.05
660.283	1103.47
660.335	1105.83
660.386	1108.09
660.438	1119.77
660.49	1095.01
660.541	1069.03
660.593	1107.89
660.644	1110.54
660.696	1103.68
660.748	1118.19
660.799	1061.57
660.851	1108.05
660.902	1087.54
660.954	1093.51
661.006	1097.26
661.057	1114.74
661.109	1117.36
661.16	1087.16
661.212	1103.62
661.264	1093.65
661.315	1101.68
661.367	1075.85
661.418	1098.69
661.47	1078.18
661.522	1091.53
661.573	1104.93
661.625	1077.18
661.676	1065.32
661.728	1106.27
661.78	1117.66
661.831	1085.76
661.883	1075.99
661.934	1108.35
661.986	1086.84
662.038	1066.3
662.089	1079.36
662.141	1066
662.192	1091.47
662.244	1084.3
662.296	1061.42
662.347	1064.87
662.399	1100.97
662.45	1093.16
662.502	1093.89
662.554	1084.24
662.605	1089.28
662.657	1100.56
662.708	1086.59
662.76	1091.31
662.811	1096.92
662.863	1079.39
662.915	1084.79
662.966	1092.26
663.018	1048.73
663.069	1067.93
663.121	1091.48
663.173	1078.8
663.224	1072.57
663.276	1102.91
663.327	1055.16
663.379	1068.77
663.43	1050.95
663.482	1078.77
663.534	1097.01
663.585	1075.6
663.637	1078.12
663.688	1103.55
663.74	1081.33
663.792	1077.89
663.843	1082.93
663.895	1085.09
663.946	1082.16
663.998	1087.53
664.049	1084.19
664.101	1074.05
664.153	1090.57
664.204	1076.48
664.256	1094.3
664.307	1070.63
664.359	1090.75
664.41	1075.97
664.462	1091.48
664.513	1074.86
664.565	1079.36
664.617	1083.4
664.668	1079.59
664.72	1088.46
664.771	1094.32
664.823	1075.32
664.874	1064.6
664.926	1109.99
664.978	1086.7
665.029	1087.63
665.081	1071.19
665.132	1079.66
665.184	1079.86
665.235	1085.78
665.287	1094.63
665.339	1093.1
665.39	1091.63
665.442	1075.83
665.493	1090.25
665.545	1084.86
665.596	1079.27
665.648	1087.57
665.699	1096.43
665.751	1080.28
665.802	1084.14
665.854	1074.02
665.906	1094.73
665.957	1071.64
666.009	1089.2
666.06	1088.66
666.112	1091.38
666.163	1083.26
666.215	1088.96
666.266	1084.22
666.318	1081.48
666.37	1082.52
666.421	1087.58
666.473	1080.68
666.524	1079.26
666.576	1080.9
666.627	1089.67
666.679	1088.44
666.73	1074.4
666.782	1057.27
666.833	1072
666.885	1079.18
666.937	1094.41
666.988	1101.9
667.04	1098.94
667.091	1079.54
667.143	1078.3
667.194	1083.23
667.246	1096.71
667.297	1102.04
667.349	1089.51
667.4	1088.9
667.452	1078.34
667.503	1079.22
667.555	1088.4
667.607	1086.72
667.658	1094.64
667.71	1080.92
667.761	1074.56
667.813	1097.64
667.864	1111.39
667.916	1109.61
667.967	1088.39
668.019	1079.56
668.07	1073.99
668.122	1087.12
668.173	1092.37
668.225	1085.76
668.276	1091.89
668.328	1094.95
668.379	1105.75
668.431	1101.2
668.482	1104.64
668.534	1080.71
668.586	1082.37
668.637	1102.55
668.689	1085.44
668.74	1099.22
668.792	1104.61
668.843	1100.33
668.895	1098.96
668.935	1079.67
668.987	1096.67
669.038	1085.69
669.09	1057.05
669.142	1087.82
669.194	1107.05
669.245	1115.71
669.297	1096.06
669.349	1113.9
669.401	1098.37
669.453	1091.32
669.504	1096.98
669.556	1109.12
669.608	1093.15
669.66	1087.67
669.711	1084.19
669.763	1085.79
669.815	1084.06
669.867	1103.15
669.918	1116.91
669.97	1114.95
670.022	1096.29
670.074	1109.26
670.125	1102.43
670.177	1106.21
670.229	1098.47
670.281	1081.22
670.332	1098.56
670.384	1104.19
670.436	1081.21
670.488	1095.95
670.539	1133.69
670.591	1109.22
670.643	1100.47
670.695	1115.91
670.747	1087.2
670.798	1091.14
670.85	1085.69
670.902	1091.89
670.953	1113.9
671.005	1101.27
671.057	1123.3
671.109	1108.5
671.161	1104.12
671.212	1110.15
671.264	1110.83
671.316	1110.41
671.367	1079.54
671.419	1089.63
671.471	1093.51
671.523	1097.48
671.575	1104.72
671.626	1126.72
671.678	1095.33
671.73	1097.5
671.781	1113.28
671.833	1110.14
671.885	1101.69
671.937	1104.71
671.988	1099.31
672.04	1104.39
672.092	1105.33
672.144	1123.1
672.195	1118.95
672.247	1124.28
672.299	1108.64
672.351	1090.84
672.402	1116.95
672.454	1083.21
672.506	1119.56
672.558	1126.52
672.609	1113.6
672.661	1118.51
672.713	1126.61
672.765	1090.81
672.816	1116.67
672.868	1125.69
672.92	1112.61
672.971	1111.91
673.023	1138.22
673.075	1117.54
673.127	1125.08
673.178	1128.62
673.23	1120.9
673.282	1131.07
673.334	1102.85
673.385	1140.2
673.437	1122.32
673.489	1131.35
673.54	1129.85
673.592	1086.72
673.644	1104.91
673.696	1105.53
673.747	1136.37
673.799	1117.52
673.851	1117.41
673.903	1124.56
673.954	1129.58
674.006	1106.5
674.058	1100.97
674.109	1133.71
674.161	1122.87
674.213	1134.76
674.265	1139.35
674.316	1113.89
674.368	1141.11
674.42	1123.86
674.471	1119.05
674.523	1125.71
674.575	1107.77
674.627	1124.07
674.678	1118.9
674.73	1121.08
674.782	1147.03
674.833	1156.43
674.885	1123.4
674.937	1129.42
674.989	1147.66
675.04	1128.69
675.092	1139.63
675.144	1134.17
675.195	1128.87
675.247	1115.5
675.299	1130.09
675.351	1149.94
675.402	1122.45
675.454	1141.35
675.506	1129.32
675.557	1139.98
675.609	1158.91
675.661	1129.35
675.713	1164.86
675.764	1138.42
675.816	1160.55
675.868	1139.28
675.919	1134.56
675.971	1128.83
676.023	1136.58
676.074	1177.49
676.126	1143.87
676.178	1147.55
676.23	1176.13
676.281	1125.89
676.333	1168.03
676.385	1117.8
676.436	1152.78
676.488	1153.49
676.54	1153.15
676.591	1152.78
676.643	1178.4
676.695	1161.24
676.747	1149.24
676.798	1159.11
676.85	1152.29
676.902	1162.2
676.953	1149.18
677.005	1159.2
677.057	1151.49
677.108	1162.64
677.16	1176.95
677.212	1191.26
677.263	1152.09
677.315	1170.51
677.367	1156.36
677.419	1183.08
677.47	1189.82
677.522	1157.67
677.574	1182.25
677.625	1184.79
677.677	1195.75
677.729	1165.7
677.78	1159.81
677.832	1171.77
677.884	1139.47
677.935	1179.83
677.987	1178.1
678.039	1194.37
678.091	1164.32
678.142	1166.97
678.194	1167.46
678.246	1156.2
678.297	1179.59
678.349	1133.12
678.401	1193.21
678.452	1183.64
678.504	1159.42
678.556	1174.46
678.607	1174.88
678.659	1198.63
678.711	1167.34
678.762	1180.27
678.814	1189.77
678.866	1186.33
678.917	1175.33
678.969	1200.21
679.021	1204
679.072	1206.86
679.124	1177.11
679.176	1201.23
679.227	1188.35
679.279	1154.27
679.331	1160.16
679.382	1188.1
679.434	1168.58
679.486	1172.3
679.537	1177.16
679.589	1168.42
679.641	1173.4
679.692	1183.61
679.744	1166.42
679.796	1167.06
679.847	1188.69
679.899	1156.74
679.951	1188.93
680.003	1188.63
680.054	1185.24
680.106	1155.62
680.157	1145.91
680.209	1186.48
680.261	1180.79
680.312	1165.59
680.364	1174.44
680.416	1179.07
680.467	1181.59
680.519	1188.32
680.571	1183.54
680.622	1161.02
680.674	1177.19
680.726	1156.83
680.777	1167.85
680.829	1178.93
680.881	1191.15
680.932	1185.72
680.984	1157.42
681.036	1173.94
681.087	1195.58
681.139	1191
681.191	1182.05
681.242	1178.12
681.294	1179.29
681.346	1166.98
681.397	1159.01
681.449	1177.27
681.501	1187.51
681.552	1159.61
681.604	1172.34
681.656	1178.86
681.707	1183.19
681.759	1183.18
681.81	1185.04
681.862	1182.57
681.914	1182.12
681.965	1181.71
682.017	1164.84
682.069	1192.75
682.12	1192.86
682.172	1153.7
682.224	1183.13
682.275	1182.5
682.327	1182.88
682.379	1197.72
682.43	1170.87
682.482	1201.03
682.533	1171.81
682.585	1196.48
682.637	1153.56
682.688	1187.46
682.74	1160.16
682.792	1184.86
682.843	1191.05
682.895	1210.92
682.947	1178.02
682.998	1174.28
683.05	1201.74
683.102	1188.68
683.153	1188.04
683.205	1163.43
683.256	1200.16
683.308	1184.94
683.36	1180.19
683.411	1199.47
683.463	1206.36
683.515	1206.01
683.566	1197.29
683.618	1153.02
683.669	1223.42
683.721	1176.75
683.773	1188.36
683.824	1201.92
683.876	1168.4
683.928	1176.64
683.979	1169.3
684.031	1198.65
684.082	1195.8
684.134	1181.61
684.186	1195.69
684.237	1184.66
684.289	1178.77
684.341	1205.19
684.392	1179.2
684.444	1169.91
684.495	1174.25
684.547	1189.14
684.599	1193.71
684.65	1183.73
684.702	1165.45
684.754	1205.92
684.805	1172.97
684.857	1197.66
684.908	1182.39
684.96	1186.95
685.012	1160.94
685.063	1180
685.115	1185.3
685.166	1178.97
685.218	1190.44
685.27	1192.41
685.321	1184.93
685.373	1183.78
685.424	1197.39
685.476	1168.02
685.528	1175.48
685.579	1190.34
685.631	1163.19
685.683	1181.21
685.734	1166.61
685.786	1159.34
685.837	1182.56
685.889	1162.7
685.941	1161.8
685.992	1154.64
686.044	1172.72
686.095	1165.55
686.147	1191.99
686.199	1178.38
686.25	1194.15
686.302	1189.88
686.353	1174.01
686.405	1178.11
686.457	1158.03
686.508	1174.78
686.56	1175.77
686.611	1185.2
686.663	1164.17
686.715	1176.85
686.766	1163.3
686.818	1128.73
686.869	1187.76
686.921	1172.01
686.973	1163.48
687.024	1158.99
687.076	1158.54
687.127	1174.79
687.179	1143.75
687.231	1176.84
687.282	1169.11
687.334	1165.73
687.385	1159.33
687.437	1148.81
687.489	1180.25
687.54	1153.94
687.592	1146.42
687.643	1187.04
687.695	1163.58
687.747	1143.18
687.798	1152.07
687.85	1147.33
687.901	1152.06
687.953	1154.8
688.004	1156.62
688.056	1172.18
688.108	1180.53
688.159	1168.03
688.211	1162.86
688.262	1151.38
688.314	1154.51
688.366	1164.94
688.417	1165.97
688.469	1167.06
688.52	1139.96
688.572	1154.72
688.623	1165.31
688.675	1140.29
688.727	1160.22
688.778	1145.58
688.83	1168.6
688.881	1166.52
688.933	1162.35
688.984	1155.03
689.036	1159.17
689.088	1166.38
689.139	1152.6
689.191	1179.59
689.242	1174.21
689.294	1162.7
689.346	1175.42
689.397	1152.77
689.449	1168.96
689.5	1168.47
689.552	1133.37
689.603	1170.43
689.655	1142.37
689.706	1140.37
689.758	1130.95
689.81	1165.52
689.861	1158.19
689.913	1144.64
689.964	1148.97
690.016	1165.92
690.067	1155.61
690.119	1151.54
690.171	1166.29
690.222	1132.74
690.274	1142.19
690.325	1161.14
690.377	1125.66
690.428	1149.09
690.48	1161.16
690.531	1120.84
690.583	1141.5
690.635	1145.32
690.686	1138.52
690.738	1145.24
690.789	1147.6
690.841	1162.51
690.892	1143.73
690.944	1111.34
690.996	1144.42
691.047	1143.98
691.099	1134.17
691.15	1172.97
691.202	1136.76
691.253	1154.3
691.305	1149.52
691.356	1158.39
691.408	1124.92
691.459	1144.39
691.511	1175.57
691.563	1126.28
691.614	1128.83
691.666	1157.78
691.717	1134.62
691.769	1129.34
691.82	1162.13
691.872	1131.26
691.923	1165.08
691.975	1133.24
692.026	1123.74
692.078	1134.48
692.13	1166.52
692.181	1130.77
692.233	1143.88
692.284	1149.59
692.336	1154.22
692.387	1107.81
692.439	1125.03
692.49	1123.07
692.542	1126.42
692.593	1145.77
692.645	1137.61
692.697	1143.41
692.748	1126.97
692.8	1114.81
692.851	1131.34
692.903	1125.37
692.954	1132.02
693.006	1159.79
693.057	1151.16
693.109	1107.28
693.16	1132.68
693.212	1128.31
693.263	1137.94
693.315	1139.19
693.366	1122.47
693.418	1125
693.47	1099.82
693.521	1109.78
693.573	1120.72
693.624	1150.77
693.676	1123.07
693.727	1145.45
693.779	1135.75
693.83	1119.62
693.882	1113.13
693.933	1126.97
693.985	1131.32
694.036	1119.77
694.088	1115.79
694.139	1158.86
694.191	1120.74
694.242	1115.66
694.294	1144.65
694.345	1089.09
694.397	1097.56
694.448	1132.68
694.5	1149.61
694.552	1120.6
694.603	1124.75
694.655	1155.66
694.706	1147.15
694.758	1134.48
694.809	1120.86
694.861	1136.19
694.912	1107.74
694.964	1125.25
695.015	1125.59
695.067	1141.9
695.118	1122.83
695.17	1095.17
695.221	1125.33
695.273	1122.35
695.324	1146.18
695.376	1125.02
695.427	1115.63
695.479	1107.26
695.53	1138.52
695.582	1120.48
695.633	1135.72
695.685	1116.73
695.736	1106.41
695.788	1112.27
695.839	1097.79
695.891	1102.64
695.942	1110.69
695.994	1118.7
696.045	1097.6
696.097	1130.29
696.148	1132.84
696.2	1097.71
696.251	1116.48
696.303	1134.22
696.354	1127.2
696.406	1111.55
696.457	1106.7
696.509	1126.71
696.56	1105.69
696.612	1109.54
696.663	1117.75
696.715	1117.3
696.766	1127.67
696.818	1104.43
696.869	1123.42
696.921	1140.25
696.972	1107.18
697.024	1119.72
697.075	1114.91
697.127	1120.96
697.178	1105.22
697.23	1126.39
697.281	1135.54
697.333	1137.09
697.384	1120.2
697.436	1114.33
697.487	1122.79
697.539	1135.76
697.59	1118.19
697.642	1143.21
697.693	1124.34
697.745	1128.3
697.796	1123.36
697.847	1084.39
697.899	1127.69
697.95	1110.79
698.002	1121.43
698.053	1139.85
698.105	1129.66
698.156	1105
698.208	1109.85
698.259	1106.79
698.311	1125.59
698.362	1091.43
698.414	1117.85
698.465	1093.65
698.517	1112.48
698.568	1134.67
698.62	1073.16
698.671	1116.32
698.723	1104.4
698.774	1078.14
698.826	1087.17
698.877	1094.03
698.928	1111.95
698.98	1117.77
699.031	1102.63
699.083	1113.98
699.134	1087.76
699.186	1122.26
699.237	1089.33
699.289	1098.32
699.34	1089.56
699.392	1101.72
699.443	1101.64
699.495	1097.06
699.546	1072.53
699.598	1084.41
699.649	1094.07
699.7	1068.43
699.752	1087.02
699.803	1109.03
699.855	1094.77
699.906	1082.84
699.958	1083.17
700.009	1099
700.061	1082.77
700.112	1102.87
700.164	1054.25
700.215	1108.16
700.266	1086.71
700.318	1088.31
700.369	1057.86
700.421	1080.45
700.472	1092.17
700.524	1082.1
700.575	1075.55
700.627	1102.22
700.678	1074.89
700.73	1091.54
700.781	1105.79
700.832	1084.53
700.884	1081.88
700.935	1078.09
700.987	1096.44
701.038	1089.67
701.09	1062.2
701.141	1097.61
701.193	1048.26
701.244	1064.87
701.295	1090.09
701.347	1065.57
701.398	1077.23
701.45	1078.93
701.501	1067.49
701.553	1070.47
701.604	1095.56
701.656	1092.2
701.707	1077.95
701.758	1074.73
701.81	1070.43
701.861	1084.79
701.913	1103.51
701.964	1070.51
702.016	1072.58
702.067	1078.94
702.119	1083.02
702.17	1080.47
702.221	1072.46
702.273	1095.27
702.324	1086.39
702.376	1082.02
702.427	1088.72
702.479	1085.56
702.53	1059.29
702.581	1082.32
702.633	1070.14
702.684	1072.19
702.736	1065.5
702.787	1100.63
702.839	1090.93
702.89	1090.15
702.941	1077.38
702.993	1085.49
703.044	1106.74
703.096	1092.74
703.147	1087.47
703.199	1122.88
703.25	1062.69
703.301	1095.04
703.353	1093.45
703.404	1085.38
703.456	1070.72
703.507	1081.38
703.558	1056.6
703.61	1093.5
703.661	1082.79
703.713	1099.65
703.764	1081.18
703.816	1093.79
703.867	1078.91
703.918	1104.04
703.97	1094.95
704.021	1084.74
704.073	1108.84
704.124	1091.73
704.175	1067.76
704.227	1058.08
704.278	1061.67
704.33	1075.27
704.381	1073.39
704.432	1072.73
704.484	1054.37
704.535	1086.2
704.587	1074.63
704.638	1073.07
704.69	1082.63
704.741	1079.9
704.792	1073.8
704.844	1109.06
704.895	1085.11
704.947	1085.77
704.998	1058.44
705.049	1069.19
705.101	1079.93
705.152	1068.24
705.204	1059.9
705.255	1068.42
705.306	1070.22
705.358	1097.91
705.409	1081.77
705.461	1072.39
705.512	1074.3
705.563	1077.36
705.615	1077.02
705.666	1070.98
705.718	1073.88
705.769	1093.61
705.82	1097.36
705.872	1069.3
705.923	1064.95
705.974	1052.72
706.026	1045.15
706.077	1061.54
706.129	1056.61
706.18	1064.3
706.231	1056.15
706.283	1066.11
706.334	1058.92
706.386	1064.09
706.437	1080.54
706.488	1069.64
706.54	1074.72
706.591	1073.06
706.643	1054.37
706.694	1073.39
706.745	1057.02
706.797	1069.14
706.848	1073.17
706.899	1079.39
706.951	1055.76
707.002	1072.15
707.054	1063.32
707.105	1072.79
707.156	1073.05
707.208	1070.95
707.259	1060.75
707.31	1057.39
707.362	1054.02
707.413	1077.08
707.465	1065.8
707.516	1059.2
707.567	1056.08
707.619	1072.47
707.67	1064.65
707.721	1064.7
707.773	1024.44
707.824	1042.7
707.876	1039.17
707.927	1058.67
707.978	1039.24
708.03	1017.62
708.081	1056.96
708.132	1036.6
708.184	1050.71
708.235	1057.9
708.287	1052.4
708.338	1045.71
708.389	1066.6
708.441	1059.86
708.492	1049.62
708.543	1026.67
708.595	1053.13
708.646	1035.74
708.697	1057.39
708.749	1039.84
708.8	1038.39
708.852	1071.5
708.903	1062.23
708.954	993.38
709.006	1035.12
709.057	1050.61
709.108	1031.7
709.16	1060.02
709.211	1022.6
709.262	1004.63
709.314	1060.32
709.365	1027
709.416	1055.82
709.468	1041.82
709.519	1033.51
709.57	1032.08
709.622	1066.44
709.673	1023.66
709.725	1028.31
709.776	1040.07
709.827	1038.18
709.879	1035.27
709.93	1041.64
709.981	1008.71
710.033	1024.21
710.084	1021.12
710.135	1046.88
710.187	1042.59
710.238	1031.42
710.289	1042.36
710.341	1030.22
710.392	1038.97
710.443	1032.58
710.495	1045.79
710.546	1019.38
710.597	1031.16
710.649	1033.62
710.7	1046.57
710.751	1025.92
710.803	1035.56
710.854	1013.87
710.905	1020.07
710.957	1029.76
711.008	1024.34
711.059	1027.12
711.111	1010.22
711.162	1054.06
711.213	1037.41
711.265	1035.93
711.316	1041.63
711.367	1016.3
711.419	1030.82
711.47	1036.19
711.521	1045.99
711.573	1049.72
711.624	1029.59
711.675	1055.14
711.727	1036.17
711.778	1040.58
711.829	1052.85
711.881	1021.77
711.932	1033.96
711.983	1047.92
712.035	1040.83
712.086	1036.31
712.137	1033.29
712.189	1039.48
712.24	1039.76
712.291	1025.41
712.343	1051.7
712.394	1025.1
712.445	1017.08
712.496	1040.54
712.548	1025.92
712.599	1035.75
712.65	1029.86
712.702	1028
712.753	1034.31
712.804	1025.84
712.856	1033.17
712.907	1027.24
712.958	1028.33
713.01	1019.41
713.061	1019.99
713.112	1029.71
713.164	1035.74
713.215	1031.24
713.266	1018.64
713.317	1025.19
713.369	1036.55
713.42	1031.87
713.471	1011.23
713.523	1013.17
713.574	1002.82
713.625	1026.77
713.677	1026.82
713.728	1029.33
713.779	1025.95
713.831	1029.21
713.882	1014.17
713.933	1021.94
713.984	1014.23
714.036	1028.13
714.087	1018.57
714.138	1023.26
714.19	1022.12
714.241	1028.77
714.292	1021.92
714.343	1016.26
714.395	1010.2
714.446	1030.17
714.497	1040.32
714.549	1028.44
714.6	1019.82
714.651	1024.06
714.703	1017.18
714.754	1007.68
714.805	1018.43
714.856	993.415
714.908	1012.31
714.959	1010.9
715.01	1005.79
715.062	1017.3
715.113	1001.31
715.164	993.083
715.215	995.571
715.267	1003.86
715.318	1010.06
715.369	1002.42
715.421	1007.94
715.472	1005.05
715.523	1009.53
715.574	1000.46
715.626	992.742
715.677	993.314
715.728	990.45
715.779	989.652
715.831	995.448
715.882	994.351
715.933	994.133
715.985	1002.93
716.036	1007.32
716.087	988.641
716.138	999.919
716.19	993.235
716.241	1002.13
716.292	997.324
716.343	999.245
716.395	991.903
716.433	1004.28
716.485	1011.42
716.536	980.827
716.588	974.817
716.639	1000.7
716.691	994.9
716.742	983.005
716.794	1004.09
716.845	987.19
716.897	995.904
716.948	959.303
717	991.228
717.052	974.258
717.103	979.391
717.155	983.364
717.206	997.158
717.258	991.315
717.309	990.292
717.361	980.605
717.412	970.869
717.464	966.056
717.515	983.398
717.567	960.4
717.618	966.958
717.67	966.235
717.721	992.544
717.773	1007.76
717.824	957.707
717.876	983.752
717.927	986.342
717.979	950.756
718.03	992.673
718.082	973.164
718.133	995.623
718.185	957.953
718.237	953.676
718.288	986.519
718.34	965.168
718.391	985.742
718.443	977.789
718.494	970.863
718.546	979.789
718.597	963.774
718.649	956.296
718.7	962.405
718.752	968.589
718.803	974.916
718.855	964.089
718.906	981.884
718.958	984.944
719.009	981.872
719.061	972.606
719.112	965.787
719.164	948.969
719.215	974.307
719.267	959.788
719.318	950.133
719.37	968.998
719.421	969.163
719.473	950.673
719.524	954.647
719.576	951.267
719.627	951.758
719.679	976.06
719.73	960.574
719.782	948.858
719.833	958.367
719.885	965.356
719.936	949.765
719.988	967.88
720.039	958.358
720.091	962.517
720.142	985.401
720.194	934.261
720.245	963.37
720.297	929.804
720.348	964.086
720.4	968.361
720.451	942.568
720.503	931.882
720.554	963.966
720.606	936.859
720.657	924.767
720.709	952.929
720.76	952.062
720.812	949.909
720.863	949.008
720.915	935.469
720.966	931.992
721.018	956.248
721.069	950.128
721.121	960.394
721.172	960.566
721.224	935.534
721.275	951.09
721.327	923.789
721.378	947.227
721.43	931.464
721.481	941.002
721.532	954.252
721.584	949.601
721.635	956.261
721.687	942.554
721.738	930.151
721.79	931.836
721.841	924.771
721.893	921.658
721.944	912.265
721.996	920.729
722.047	936.811
722.099	934.914
722.15	934.134
722.202	917.853
722.253	955.135
722.305	939.921
722.356	934.921
722.408	937.641
722.459	921.255
722.511	942.062
722.562	929.65
722.614	896.736
722.665	926.545
722.716	942.197
722.768	956.507
722.819	938.739
722.871	909.461
722.922	932.872
722.974	915.341
723.025	918.435
723.077	922.847
723.128	916.927
723.18	918.605
723.231	947.171
723.283	924.138
723.334	907.462
723.386	904.921
723.437	925.576
723.488	937.255
723.54	920.606
723.591	916.753
723.643	910.228
723.694	895.911
723.746	920.196
723.797	896.931
723.849	887.965
723.9	920.364
723.952	904.024
724.003	883.921
724.055	916.701
724.106	908.222
724.157	910.011
724.209	911.758
724.26	881.186
724.312	929.443
724.363	920.849
724.415	916.113
724.466	913.91
724.518	915.505
724.569	892.396
724.621	915.838
724.672	908.161
724.723	908.271
724.775	895.472
724.826	921.617
724.878	893.375
724.929	910.552
724.981	895.333
725.032	909.986
725.084	916.896
725.135	927.755
725.187	885.361
725.238	865.055
725.289	922.814
725.341	893.354
725.392	875.543
725.444	887.649
725.495	881.469
725.547	889.602
725.598	888.575
725.65	874.461
725.701	874.656
725.752	899.617
725.804	903.665
725.855	902.496
725.907	859.573
725.958	889.885
726.01	905.942
726.061	898.573
726.112	913.522
726.164	878.765
726.215	900.319
726.267	894.338
726.318	883.055
726.37	891.396
726.421	911.509
726.473	882.972
726.524	878.045
726.575	894.164
726.627	891.937
726.678	870.068
726.73	879.914
726.781	855.625
726.833	872.281
726.884	878.422
726.935	910.972
726.987	887.915
727.038	888.579
727.09	868.007
727.141	911.096
727.193	858.776
727.244	883.523
727.295	887.12
727.347	869.435
727.398	903.635
727.45	893.752
727.501	885.033
727.552	853.442
727.604	877.809
727.655	855.317
727.707	886.223
727.758	873.006
727.81	867.845
727.861	890.872
727.912	863.23
727.964	885.312
728.015	875.472
728.067	865.777
728.118	885.703
728.17	873.346
728.221	885.072
728.272	865.615
728.324	856.732
728.375	878.753
728.427	860.229
728.478	867.389
728.529	869.23
728.581	879.286
728.632	869.131
728.684	867.149
728.735	862.494
728.786	864.663
728.838	854.667
728.889	863.746
728.941	875.592
728.992	879.247
729.044	860.961
729.095	860.209
729.146	855.141
729.198	855.335
729.249	840.368
729.301	866.37
729.352	836.428
729.403	835.356
729.455	850.914
729.506	854.384
729.558	833.336
729.609	846.596
729.66	861.2
729.712	849.562
729.763	873.47
729.815	861.423
729.866	836.838
729.917	847.986
729.969	828.898
730.02	836.102
730.072	847.626
730.123	855.2
730.174	849.101
730.226	873.433
730.277	834.128
730.329	838.938
730.38	860.219
730.431	835.632
730.483	848.34
730.534	844.365
730.586	839.024
730.637	853.189
730.688	849.448
730.74	872.217
730.791	858.965
730.842	849.875
730.894	829.567
730.945	842.526
730.997	842.801
731.048	855.483
731.099	822.113
731.151	805.463
731.202	823.721
731.254	837.907
731.305	861.97
731.356	813.568
731.408	823.793
731.459	825.655
731.51	842.884
731.562	815.358
731.613	839.556
731.665	867.947
731.716	836.092
731.767	854.583
731.819	864.594
731.87	819.864
731.922	842.332
731.973	833.923
732.024	856.341
732.076	832.537
732.127	804.585
732.178	841.193
732.23	816.202
732.281	830.558
732.333	809.9
732.384	841.218
732.435	824.801
732.487	837.862
732.538	839.63
732.589	823.04
732.641	837.334
732.692	823.43
732.744	822.168
732.795	839.217
732.846	822.507
732.898	825.561
732.949	842.758
733	820.522
733.052	834.937
733.103	807.004
733.154	836.86
733.206	832.791
733.257	830.075
733.309	830.146
733.36	820.316
733.411	831.664
733.463	811.952
733.514	820.486
733.565	826.195
733.617	823.425
733.668	812.176
733.719	824.94
733.771	805.227
733.822	816.615
733.873	830.868
733.925	842.343
733.976	838.323
734.028	827.274
734.079	817.644
734.13	823.546
734.182	823.728
734.233	813.924
734.284	813.959
734.336	796.967
734.387	812.538
734.438	808.34
734.49	802.805
734.541	804.435
734.592	800.466
734.644	819.204
734.695	809.599
734.747	822.658
734.798	818.667
734.849	793.359
734.901	794.992
734.952	806.555
735.003	812.426
735.055	812.596
735.106	821.259
735.157	807.149
735.209	801.52
735.26	810.058
735.311	795.812
735.363	792.893
735.414	819.776
735.465	798.332
735.517	802.464
735.568	813.725
735.619	823.617
735.671	806.596
735.722	791.067
735.773	792.648
735.825	785.758
735.876	821.539
735.927	828.91
735.979	802.114
736.03	812.21
736.081	792.316
736.133	793.623
736.184	780.585
736.235	793.052
736.287	796.952
736.338	793.773
736.389	793.505
736.441	787.649
736.492	787.558
736.543	777.61
736.595	789.01
736.646	773.505
736.697	797.796
736.749	807.945
736.8	776.938
736.851	785.691
736.903	805.781
736.954	784.597
737.005	787.508
737.057	771.892
737.108	793.218
737.159	794.655
737.211	813.183
737.262	784.823
737.313	789.166
737.365	790.637
737.416	794.887
737.467	789.095
737.518	781.79
737.57	782.94
737.621	809.617
737.672	793.692
737.724	767.907
737.775	787.647
737.826	793.305
737.878	783.448
737.929	783.575
737.98	783.699
738.032	768.152
738.083	799.38
738.134	782.249
738.186	780.676
738.237	780.496
738.288	791.677
738.339	766.009
738.391	797.129
738.442	787.156
738.493	788.557
738.545	777.198
738.596	774.333
738.647	802.635
738.699	774.179
738.75	785.392
738.801	785.242
738.853	799.262
738.904	770.789
738.955	773.526
739.006	756.47
739.058	780.532
739.109	772.035
739.16	784.793
739.212	779.127
739.263	783.36
739.314	759.246
739.366	779.029
739.417	788.885
739.468	787.398
739.519	778.82
739.571	763.157
739.622	771.569
739.673	761.606
739.725	743.207
739.776	780.099
739.827	780.274
739.878	772.022
739.93	760.965
739.981	759.81
740.032	777.03
740.084	743.115
740.135	758.734
740.186	771.428
740.237	774.122
740.289	768.261
740.34	759.543
740.391	735.24
740.443	749.21
740.494	761.806
740.545	719.264
740.596	749.045
740.648	732.223
740.699	769.341
740.75	748.449
740.802	747.406
740.853	773.274
740.904	743.714
740.956	766.552
741.007	732.51
741.058	723.96
741.109	740.945
741.161	745.177
741.212	735.261
741.263	748.109
741.314	724.093
741.366	755.481
741.417	754.229
741.468	747.299
741.52	716.207
741.571	746.217
741.622	744.966
741.673	735.187
741.725	753.856
741.776	745.503
741.827	738.557
741.878	741.539
741.93	745.901
741.981	735.979
742.032	737.406
742.083	763.024
742.135	737.419
742.186	716.14
742.237	741.92
742.289	749.263
742.34	728.153
742.391	729.832
742.442	762.838
742.494	718.774
742.545	720.267
742.596	727.412
742.647	764.489
742.699	760.221
742.75	716.057
742.801	734.707
742.852	733.431
742.904	725.042
742.955	730.929
743.006	735.381
743.057	738.397
743.109	719.985
743.16	728.727
743.211	720.345
743.263	711.982
743.314	716.499
743.365	735.328
743.416	715.522
743.468	705.71
743.519	733.106
743.57	716.104
743.621	724.863
743.672	736.47
743.724	748.052
743.775	733.813
743.826	736.758
743.878	736.846
743.929	715.461
743.98	728.534
744.031	720.136
744.083	731.833
744.134	733.452
744.185	730.686
744.236	726.384
744.287	736.345
744.339	683.113
744.39	730.356
744.441	698.755
744.492	723.236
744.544	709.108
744.595	710.874
744.646	724.184
744.697	723.092
744.749	710.404
744.8	717.735
744.851	723.518
744.902	701.882
744.954	710.395
745.005	718.888
745.056	695.771
745.107	711.522
745.159	714.413
745.21	697.27
745.261	700.344
745.312	712.123
745.363	695.162
745.415	711.292
745.466	705.766
745.517	728.955
745.568	704.504
745.62	704.467
745.671	708.718
745.722	708.664
745.773	687.056
745.824	687.115
745.876	688.661
745.927	697.427
745.978	707.617
746.029	677.405
746.081	683.167
746.132	693.202
746.183	695.998
746.234	693.019
746.285	695.813
746.337	687.107
746.388	684.203
746.439	695.748
746.49	688.616
746.542	668.561
746.593	706.179
746.644	681.844
746.695	709.395
746.746	700.863
746.798	699.475
746.849	682.145
746.9	702.234
746.951	704.957
747.003	674.51
747.054	691.658
747.105	687.267
747.156	677.221
747.207	674.492
747.259	676.165
747.31	672.087
747.361	688.14
747.412	692.522
747.463	699.614
747.515	695.002
747.566	671.556
747.617	678.368
747.668	692.444
747.719	698.01
747.771	666.311
747.822	670.707
747.873	672.283
747.924	675.295
747.975	692.657
748.027	675.391
748.078	660.952
748.129	675.29
748.18	689.635
748.231	652.176
748.283	669.456
748.334	692.511
748.385	672.372
748.436	656.538
748.487	673.802
748.539	673.786
748.59	678.111
748.641	678.169
748.692	656.704
748.743	652.608
748.795	675.984
748.846	683.595
748.897	671.05
748.948	687.363
748.999	671.855
749.05	670.698
749.102	676.659
749.153	673.831
749.204	699.82
749.255	656.334
749.306	664.86
749.358	692.167
749.409	683.383
749.46	652.997
749.511	663.139
749.562	669.018
749.614	670.612
749.665	660.654
749.716	670.915
749.767	655.104
749.818	652.26
749.869	655.169
749.921	663.859
749.972	671.123
750.023	661.064
750.074	661.167
750.125	665.642
750.177	657.12
750.228	677.574
750.279	625.651
750.33	651.948
750.381	649.286
750.432	656.762
750.484	642.455
750.535	655.649
750.586	668.792
750.637	677.542
750.688	652.91
750.739	644.259
750.791	625.497
750.842	634.37
750.893	679.611
750.944	662.462
750.995	672.93
751.046	658.679
751.098	654.569
751.149	666.424
751.2	647.684
751.251	639.1
751.302	668.367
751.353	659.792
751.404	652.695
751.456	641.252
751.507	651.691
751.558	635.898
751.609	630.314
751.66	636.413
751.711	633.781
751.763	634.112
751.814	621.342
751.865	637.87
751.916	629.569
751.967	646.171
752.018	640.776
752.07	633.857
752.121	634.218
752.172	650.701
752.223	652.494
752.274	641.07
752.325	638.484
752.376	649.159
752.428	624.488
752.479	626.276
752.53	611.788
752.581	635.563
752.632	643.071
752.683	621.048
752.734	610.82
752.786	631.595
752.837	637.644
752.888	608.281
752.939	624.694
752.99	617.481
753.041	625.041
753.092	626.698
753.144	618.018
753.195	638.925
753.246	616.947
753.297	617.145
753.348	623.239
753.399	638.18
753.45	620.499
753.502	650.164
753.553	627.96
753.604	648.685
753.655	617.571
753.706	632.383
753.757	619.09
753.808	645.843
753.859	650.457
753.911	610.691
753.962	615.451
754.013	599.494
754.064	635.507
754.115	619.551
754.166	615.43
754.217	629.102
754.269	621.909
754.32	607.237
754.371	607.426
754.422	603.138
754.473	621.184
754.524	607.937
754.575	622.982
754.626	621.619
754.678	617.266
754.729	612.917
754.78	629.474
754.831	628.171
754.882	603.029
754.933	588.356
754.984	600.589
755.035	615.832
755.086	608.65
755.138	580.48
755.189	577.687
755.24	612.27
755.291	616.88
755.342	609.479
755.393	581.093
755.444	611.12
755.495	624.701
755.547	621.846
755.598	592.065
755.649	607.3
755.7	601.59
755.751	628.924
755.802	620.243
755.853	616.036
755.904	629.817
755.955	613.477
756.006	613.614
756.058	583.615
756.109	586.663
756.16	592.686
756.211	600.189
756.262	604.672
756.313	594.12
756.364	591.12
756.415	600.206
756.466	594.317
756.518	606.55
756.569	602.278
756.62	604.043
756.671	589.215
756.722	602.977
756.773	603.126
756.824	594.187
756.875	583.718
756.926	595.877
756.977	603.532
757.029	599.141
757.08	593.256
757.131	578.319
757.182	601.141
757.233	616.426
757.284	595.457
757.335	583.551
757.386	589.789
757.437	586.95
757.488	587.124
757.539	593.336
757.59	582.884
757.642	578.48
757.693	596.807
757.744	583.349
757.795	603.259
757.846	597.434
757.897	587.068
757.948	600.967
757.999	582.969
758.05	574.03
758.101	583.272
758.152	563.621
758.203	581.937
758.255	585.072
758.306	600.397
758.357	609.681
758.408	599.227
758.459	575.082
758.51	590.496
758.561	580.145
758.612	599.706
758.663	583.451
758.714	587.798
758.765	598.314
758.816	576.355
758.867	554.204
758.919	598.424
758.97	582.708
759.021	590.141
759.072	581.125
759.123	575.11
759.174	586.55
759.225	578.981
759.276	580.207
759.327	576.585
759.378	564.694
759.429	567.829
759.48	587.576
759.531	582.267
759.582	582.528
759.633	567.141
759.685	581.526
759.736	579.185
759.787	579.153
759.838	585.493
759.889	586.914
759.94	569.854
759.991	578.141
760.042	571.834
760.093	584.609
760.144	577.721
760.195	574.594
760.246	561.465
760.297	573.293
760.348	561.019
760.399	552.049
760.45	553.383
760.501	564.321
760.552	558.389
760.603	564.072
760.655	559.033
760.706	556.005
760.757	563.784
760.808	561.7
760.859	554.457
760.91	565.576
760.961	553.206
761.012	550.894
761.063	554.259
761.114	559.424
761.165	560.252
761.216	567.561
761.267	577.378
761.318	559.484
761.369	561.897
761.42	541.736
761.471	567.332
761.522	568.8
761.573	555.295
761.624	561.985
761.675	545.374
761.726	555.289
761.777	557.292
761.828	564.403
761.88	552.337
761.931	558.406
761.982	554.721
762.033	550.14
762.084	563.572
762.135	553.852
762.186	559.068
762.237	551.888
762.288	543.25
762.339	547.779
762.39	548.309
762.441	540.321
762.492	535.167
762.543	554.784
762.594	559.486
762.645	548.585
762.696	541.689
762.747	543.366
762.798	548.55
762.849	539.457
762.9	540.466
762.951	546.226
763.002	559.073
763.053	534.971
763.104	555.06
763.155	547.389
763.206	544.483
763.257	523.667
763.308	545.331
763.359	546.273
763.41	570.768
763.461	555.166
763.512	532.907
763.563	524.11
763.614	537.369
763.665	525.074
763.678	519.504
763.729	538.227
763.78	530.276
763.832	533.524
763.883	525.936
763.934	534.185
763.986	532.93
764.037	552.007
764.088	533.027
764.139	532.835
764.191	513.731
764.242	542.034
764.293	539.03
764.345	523.593
764.396	550.828
764.447	532.242
764.498	522.956
764.55	532.446
764.601	530.756
764.652	527.483
764.704	524.322
764.755	537.127
764.806	540.611
764.857	525.177
764.909	536.569
764.96	522.482
765.011	516.125
765.062	525.464
765.114	511.031
765.165	529.901
765.216	523.621
765.268	530.181
765.319	533.726
765.37	513.558
765.421	504.429
765.473	528.516
765.524	519.148
765.575	520.783
765.626	523.972
765.678	530.361
765.729	514.585
765.78	541.768
765.831	516.576
765.883	527.949
765.934	532.937
765.985	525.136
766.036	522.038
766.088	490.238
766.139	515.724
766.19	520.548
766.242	488.815
766.293	519.256
766.344	508.352
766.395	516.595
766.447	515.256
766.498	512.263
766.549	512.392
766.6	530.03
766.652	506.146
766.703	507.842
766.754	528.782
766.805	505.071
766.857	486.192
766.908	516.919
766.959	509.222
767.01	511.062
767.062	520.834
767.113	519.318
767.164	500.124
767.215	517.786
767.267	490.578
767.318	498.675
767.369	506.823
767.42	502.192
767.472	496.006
767.523	489.863
767.574	503.036
767.625	519.466
767.677	492.463
767.728	516.929
767.779	493.036
767.83	501.298
767.882	509.509
767.933	491.881
767.984	493.589
768.035	496.928
768.087	518.064
768.138	485.99
768.189	495.939
768.24	507.55
768.292	498.156
768.343	501.677
768.394	506.777
768.445	495.634
768.497	481.204
768.548	497.542
768.599	496.07
768.65	497.88
768.701	502.99
768.753	480.557
768.804	487.372
768.855	507.215
768.906	494.534
768.958	496.457
769.009	496.713
769.06	496.933
769.111	474.31
769.163	508.731
769.214	502.402
769.265	468.337
769.316	509.343
769.367	491.584
769.419	483.597
769.47	500.097
769.521	485.524
769.572	503.634
769.624	492.311
769.675	492.444
769.726	481.137
769.777	481.294
769.828	483.098
769.88	501.293
769.931	470.348
769.982	488.587
770.033	483.914
770.085	502.258
770.136	471.388
770.187	491.444
770.238	480.262
770.289	496.998
770.341	493.932
770.392	484.218
770.443	467.871
770.494	476.227
770.546	473.07
770.597	479.841
770.648	481.708
770.699	491.86
770.75	493.785
770.802	474.239
770.853	486.082
770.904	479.738
770.955	471.721
771.006	491.829
771.058	468.852
771.109	470.689
771.16	475.821
771.211	469.336
771.263	474.464
771.314	464.674
771.365	471.499
771.416	476.684
771.467	478.558
771.519	465.47
771.57	465.665
771.621	470.839
771.672	461.028
771.723	471.187
771.775	443.051
771.826	469.895
771.877	471.78
771.928	480.364
771.979	463.953
772.031	467.583
772.082	462.882
772.133	468.224
772.184	460.204
772.235	462.239
772.287	455.911
772.338	483.129
772.389	456.653
772.44	483.859
772.491	467.325
772.543	460.789
772.594	469.319
772.645	455.937
772.696	456.004
772.747	474.614
772.799	473.089
772.85	469.944
772.901	451.681
772.952	467.154
773.003	442.146
773.055	472.808
773.106	478.125
773.157	473.266
773.208	459.915
773.259	454.989
773.31	460.197
773.362	456.935
773.413	441.812
773.464	467.308
773.515	443.7
773.566	447.192
773.618	459.186
773.669	455.978
773.72	456.212
773.771	459.884
773.822	453.393
773.873	457.078
773.925	455.63
773.976	442.229
774.027	467.919
774.078	444.253
774.129	452.934
774.18	454.829
774.232	458.446
774.283	453.541
774.334	474.201
774.385	452.195
774.436	433.577
774.488	455.939
774.539	457.854
774.59	442.72
774.641	460.104
774.692	463.835
774.743	452.147
774.795	428.419
774.846	440.632
774.897	452.82
774.948	444.404
774.999	446.278
775.05	449.889
775.102	446.667
775.153	440.047
775.204	440.342
775.255	425.174
775.306	428.937
775.357	444.754
775.409	426.053
775.46	445.253
775.511	440.257
775.562	409.324
775.613	445.744
775.664	440.719
775.716	444.348
775.767	425.504
775.818	418.76
775.869	439.704
775.92	446.806
775.971	427.928
776.023	448.907
776.074	442.179
776.125	440.66
776.176	432.193
776.227	439.334
776.278	446.465
776.329	439.687
776.381	446.813
776.432	448.741
776.483	443.732
776.534	436.995
776.585	423.288
776.636	432.21
776.688	427.158
776.739	430.782
776.79	446.578
776.841	415.246
776.892	453.698
776.943	429.349
776.994	422.479
777.046	431.361
777.097	422.813
777.148	435.254
777.199	414.483
777.25	430.426
777.301	453.369
777.352	439.542
777.404	411.686
777.455	443.405
777.506	401.533
777.557	426.312
777.608	438.858
777.659	407.519
777.71	425.346
777.762	413.267
777.813	439.839
777.864	445.262
777.915	436.567
777.966	441.939
778.017	427.958
778.068	399.915
778.12	428.299
778.171	419.725
778.222	400.578
778.273	422.015
778.324	411.646
778.375	418.896
778.426	419.032
778.477	426.211
778.529	399.772
778.58	426.411
778.631	394.684
778.682	412.542
778.733	410.96
778.784	420.037
778.835	425.599
778.886	413.436
778.938	404.812
778.989	401.499
779.04	446.154
779.091	414.351
779.142	416.288
779.193	416.416
779.244	420.086
779.295	398.831
779.347	411.415
779.398	425.811
779.449	413.502
779.5	401.196
779.551	413.855
779.602	406.889
779.653	412.405
779.704	416.132
779.755	401.993
779.807	394.995
779.858	423.764
779.909	404.278
779.96	409.858
780.011	388.618
780.062	406.814
780.113	398.167
780.164	423.628
780.216	402.414
780.267	415.291
780.318	413.735
780.369	383.32
780.42	383.434
780.471	401.525
780.522	381.804
780.573	419.744
780.624	385.665
780.675	416.507
780.727	409.532
780.778	400.761
780.829	406.433
780.88	388.607
780.931	423.191
780.982	396.274
781.033	407.337
781.084	382.181
781.135	411.367
781.187	407.953
781.238	391.845
781.289	408.396
781.34	385
781.391	401.529
781.442	385.327
781.493	389.086
781.544	401.918
781.595	416.563
781.646	405.734
781.698	393.081
781.749	394.986
781.8	400.541
781.851	406.116
781.902	375.286
781.953	391.857
782.004	397.545
782.055	406.927
782.106	368.862
782.157	416.616
782.208	389.43
782.26	376.798
782.311	398.872
782.362	366.019
782.413	380.734
782.464	399.128
782.515	382.76
782.566	397.549
782.617	390.373
782.668	419.863
782.719	372.338
782.77	383.488
782.821	403.826
782.872	387.463
782.924	406.005
782.975	395.165
783.026	387.994
783.077	386.329
783.128	388.333
783.179	397.697
783.23	386.813
783.281	379.622
783.332	377.984
783.383	400.358
783.434	402.48
783.485	391.685
783.536	375.324
783.588	351.522
783.639	396.16
783.69	388.952
783.741	370.583
783.792	385.532
783.843	404.169
783.894	359.747
783.945	387.638
783.996	374.743
784.047	363.73
784.098	375.032
784.149	388.253
784.2	382.946
784.252	386.96
784.303	385.401
784.354	372.648
784.405	385.959
784.456	369.416
784.507	386.443
784.558	371.726
784.609	368.196
784.66	379.603
784.711	381.633
784.762	372.393
784.813	383.695
784.864	346.299
784.915	383.77
784.966	383.818
785.017	359.554
785.068	344.679
785.12	376.673
785.171	371.218
785.222	371.393
785.273	358.432
785.324	366.108
785.375	366.273
785.426	381.468
785.477	364.711
785.528	362.978
785.579	366.878
785.63	374.537
785.681	359.606
785.732	359.735
785.783	359.875
785.834	393.961
785.885	377.183
785.936	362.3
785.987	373.863
786.038	351.458
786.089	361.188
786.141	353.904
786.192	371.211
786.243	358.173
786.294	369.704
786.345	379.274
786.396	360.337
786.447	369.812
786.498	356.53
786.549	366.035
786.6	369.902
786.651	349.156
786.702	377.799
786.753	370.415
786.804	370.644
786.855	334.736
786.906	369.185
786.957	356.045
787.008	371.435
787.059	362.036
787.11	367.857
787.161	360.329
787.212	343.271
787.263	352.935
787.314	349.28
787.365	359.023
787.416	342.051
787.467	361.399
787.518	353.979
787.57	354.187
787.621	340.954
787.672	367.917
787.723	348.863
787.774	371.957
787.825	372.041
787.876	349.11
787.927	345.367
787.978	351.234
788.029	353.282
788.08	355.343
788.131	347.801
788.182	349.863
788.233	346.15
788.284	334.73
788.335	340.614
788.386	348.423
788.437	350.463
788.488	335.177
788.539	348.8
788.59	339.315
788.641	351.049
788.692	341.567
788.743	366.817
788.794	351.51
788.845	332.308
788.896	353.668
788.947	347.978
788.998	350.037
789.049	355.997
789.1	311.666
789.151	354.473
789.202	345.015
789.253	352.999
789.304	335.746
789.355	359.22
789.406	336.054
789.457	351.691
789.508	330.37
789.559	357.608
789.61	330.423
789.661	347.966
789.712	359.733
789.763	348.234
789.814	336.789
789.865	362.39
789.916	347.095
789.967	353.217
790.018	343.672
790.069	351.646
790.12	347.865
790.171	328.442
790.222	344.24
790.273	346.404
790.324	344.693
790.375	339.065
790.426	339.282
790.477	339.436
790.528	349.331
790.579	345.437
790.63	327.787
790.681	325.861
790.732	345.586
790.783	347.713
790.834	344.003
790.885	340.323
790.936	356.332
790.987	334.92
791.038	331.191
791.089	337.284
791.14	331.504
791.191	347.395
791.242	331.673
791.293	339.621
791.344	317.947
791.395	323.937
791.446	331.943
791.497	322.212
791.548	352.073
791.599	328.559
791.65	336.699
791.701	346.79
791.752	331.067
791.803	337.116
791.854	317.38
791.905	329.403
791.956	331.553
792.007	311.904
792.058	332.03
792.109	320.375
792.16	328.615
792.211	332.859
792.262	339.067
792.313	337.256
792.363	343.386
792.414	327.517
792.465	333.587
792.516	315.671
792.567	313.737
792.618	337.805
792.669	327.926
792.72	316.075
792.771	342.272
792.822	308.434
792.873	336.68
792.924	328.856
792.975	333.047
793.026	339.244
793.077	323.365
793.128	343.667
793.179	311.739
793.23	328.095
793.281	310.244
793.332	322.6
793.383	343.028
793.434	345.282
793.485	321.242
793.536	323.426
793.587	325.588
793.638	313.57
793.689	325.814
793.74	315.791
793.79	307.791
793.841	330.188
793.892	324.256
793.943	326.451
793.994	316.486
794.045	322.742
794.096	326.953
794.147	329.111
794.198	325.157
794.249	306.969
794.3	329.455
794.351	317.391
794.402	309.4
794.453	305.47
794.504	311.705
794.555	313.844
794.606	307.815
794.657	309.946
794.708	326.387
794.758	320.44
794.809	306.359
794.86	322.938
794.911	294.53
794.962	331.532
795.013	294.803
795.064	325.575
795.115	315.374
795.166	319.527
795.217	301.204
795.268	323.947
795.319	326.285
795.37	314.298
795.421	300.231
795.472	312.85
795.523	321.296
795.573	313.185
795.624	305.008
795.675	311.233
795.726	319.532
795.777	317.562
795.828	313.57
795.879	303.408
795.93	326.276
795.981	326.416
796.032	301.717
796.083	312.111
796.134	312.155
796.185	324.615
796.236	310.232
796.286	302.096
796.337	300.21
796.388	314.934
796.439	306.885
796.49	298.818
796.541	309.408
796.592	295.049
796.643	301.435
796.694	276.609
796.745	303.759
796.796	293.454
796.847	297.706
796.897	283.215
796.948	312.462
796.999	293.808
797.05	291.829
797.101	298.201
797.152	296.246
797.203	281.776
797.254	302.802
797.305	305.053
797.356	307.313
797.407	315.851
797.458	316.021
797.508	303.614
797.559	291.174
797.61	308.038
797.661	308.125
797.712	285.141
797.763	291.516
797.814	279.038
797.865	289.678
797.916	296.174
797.967	309.026
798.018	271.428
798.068	299.053
798.119	303.523
798.17	291.09
798.221	312.365
798.272	295.608
798.323	287.252
798.374	297.889
798.425	300.086
798.476	283.287
798.526	313.048
798.577	296.331
798.628	290.22
798.679	271.398
798.73	299.223
798.781	288.832
798.832	289
798.883	291.24
798.934	270.048
798.984	287.113
799.035	295.687
799.086	295.789
799.137	291.675
799.188	300.371
799.239	292.037
799.29	268.749
799.341	281.686
799.392	286.061
799.443	296.817
799.493	290.481
799.544	282.012
799.595	284.244
799.646	290.775
799.697	301.603
799.748	276.058
799.799	293.289
799.85	282.659
799.9	289.12
799.951	282.7
800.002	282.693
800.053	263.422
800.104	287.017
800.155	284.957
800.206	300.087
800.257	272.372
800.307	283.261
800.358	287.716
800.409	266.382
800.46	279.406
800.511	279.541
800.562	273.232
800.613	281.998
800.664	284.318
800.714	293.096
800.765	267.361
800.816	269.617
800.867	282.641
800.918	265.451
800.969	278.483
801.02	269.95
801.07	270.076
801.121	276.702
801.172	268.2
801.223	270.503
801.274	281.461
801.325	292.424
801.376	286.064
801.427	268.865
801.477	286.368
801.528	290.866
801.579	260.61
801.63	280.276
801.681	273.847
801.732	267.392
801.783	278.317
801.833	267.502
801.884	293.68
801.935	267.669
801.986	265.6
802.037	278.778
802.088	267.987
802.139	283.321
802.189	268.126
802.24	283.449
802.291	266.078
802.342	259.62
802.393	283.723
802.444	292.557
802.495	272.994
802.545	273.067
802.596	281.874
802.647	281.951
802.698	288.609
802.749	273.428
802.8	269.199
802.85	278.118
802.901	280.476
802.952	260.905
803.003	245.69
803.054	287.517
803.105	283.269
803.155	296.588
803.206	276.94
803.257	268.254
803.308	263.939
803.359	261.803
803.41	268.458
803.46	268.516
803.511	268.594
803.562	275.307
803.613	264.428
803.664	271.195
803.715	269.155
803.765	271.523
803.816	271.674
803.867	251.924
803.918	265.309
803.969	276.49
804.02	265.548
804.07	267.878
804.121	267.988
804.172	272.52
804.223	261.531
804.274	261.613
804.325	279.437
804.375	261.78
804.426	261.873
804.477	255.311
804.528	277.614
804.579	264.377
804.63	260.004
804.68	237.83
804.731	253.427
804.782	253.464
804.833	273.524
804.884	262.472
804.934	289.262
804.985	233.729
805.036	256.095
805.087	267.329
805.138	254.036
805.188	260.774
805.239	247.436
805.29	267.532
805.341	263.116
805.392	263.178
805.443	272.183
805.493	252.288
805.544	250.236
805.595	263.37
805.646	265.61
805.697	261.389
805.747	243.904
805.798	248.177
805.849	244.47
805.9	256.847
805.951	261.628
806.001	267.136
806.052	242.399
806.103	268.416
806.154	250.306
806.205	253.384
806.255	254.028
806.306	267.11
806.357	269.047
806.408	254.698
806.459	246.549
806.509	250.913
806.56	250.205
806.611	267.973
806.662	261.322
806.713	234.301
806.763	250.529
806.814	243.876
806.865	261.485
806.916	265.44
806.967	244.358
807.017	249.6
807.068	253.307
807.119	251.189
807.17	257.342
807.22	240.369
807.271	257.685
807.322	249.432
807.373	248.179
807.424	241.122
807.474	252.748
807.525	245.644
807.576	247.75
807.627	232.422
807.678	248.288
807.728	249.846
807.779	249.615
807.83	252.203
807.881	238.087
807.931	236.361
807.982	249.407
808.033	256.392
808.084	246.738
808.135	259.399
808.185	245.404
808.236	242.753
808.287	244.875
808.338	245.357
808.388	238.905
808.439	261.201
808.49	247.039
808.541	245.198
808.591	243.4
808.642	249.117
808.693	247.313
808.744	240.827
808.795	244.787
808.845	244.521
808.896	232.199
808.947	244.25
808.998	231.234
809.048	238.236
809.099	234.527
809.15	246.709
809.201	238.265
809.251	242.736
809.302	229.296
809.353	225.878
809.404	244.364
809.454	244.625
809.505	251.577
809.556	228.691
809.607	250.281
809.658	245.741
809.708	227.92
809.759	246.349
809.81	245.2
809.861	230.893
809.911	238.668
809.962	232.327
810.013	235.568
810.064	235.48
810.114	236.779
810.165	233.443
810.216	227.945
810.267	243.932
810.317	237.973
810.368	222.852
810.419	248.098
810.469	229.078
810.52	231.637
810.571	233.788
810.622	236.284
810.627	236.445
810.678	238.91
810.729	229.771
810.78	222.931
810.831	236.976
810.882	246.366
810.933	244.121
810.984	230.235
811.035	239.595
811.086	232.665
811.137	211.764
811.188	230.424
811.239	214.179
811.29	221.227
811.341	221.31
811.392	228.399
811.443	221.512
811.494	223.948
811.545	224.044
811.596	249.812
811.648	224.214
811.699	233.648
811.75	217.389
811.801	250.239
811.852	215.272
811.903	215.382
811.954	222.504
812.005	231.951
812.056	213.252
812.107	224.99
812.158	236.71
812.209	222.642
812.26	234.363
812.311	225.014
812.362	220.387
812.413	229.871
812.464	239.401
812.515	237.22
812.566	227.979
812.617	235.15
812.668	239.922
812.719	230.523
812.77	230.492
812.821	223.392
812.872	239.821
812.923	218.672
812.974	216.384
813.025	225.91
813.076	221.355
813.127	223.874
813.178	228.739
813.229	231.217
813.28	226.578
813.331	212.464
813.382	226.665
813.433	240.875
813.484	214.953
813.535	219.751
813.586	238.75
813.637	229.393
813.688	234.225
813.739	215.392
813.79	210.755
813.841	220.344
813.892	229.962
813.943	211.145
813.994	220.798
814.045	232.831
814.096	216.32
814.147	209.258
814.198	252.075
814.249	221.117
814.3	225.789
814.351	220.947
814.402	220.882
814.453	230.372
814.504	209.055
814.555	216.311
814.606	204.6
814.657	228.613
814.708	219.299
814.759	224.252
814.81	229.168
814.861	245.979
814.912	212.592
814.963	217.39
815.014	224.567
815.065	198.3
815.116	205.495
815.167	231.83
815.217	224.73
815.268	212.854
815.319	227.291
815.37	234.551
815.421	205.89
815.472	210.723
815.523	217.937
815.574	217.955
815.625	217.962
815.676	210.77
815.727	213.141
815.778	205.913
815.829	220.214
815.88	186.642
815.931	222.473
815.982	212.879
816.033	215.297
816.084	217.778
816.135	210.739
816.186	218.108
816.237	206.312
816.288	213.69
816.339	206.626
816.39	204.312
816.441	225.986
816.492	204.345
816.543	211.53
816.594	211.506
816.645	221.123
816.696	197.131
816.747	209.243
816.798	206.967
816.849	204.707
816.9	236.184
816.951	190.514
817.001	195.437
817.052	200.337
817.103	207.631
817.154	202.835
817.205	222.174
817.256	205.286
817.307	193.231
817.358	205.349
817.409	186.09
817.46	193.452
817.511	191.184
817.562	210.739
817.613	208.513
817.664	211.11
817.715	225.797
817.766	221
817.817	218.573
817.868	208.828
817.919	203.939
817.97	179.65
818.021	216.088
818.071	191.861
818.122	218.659
818.173	209.028
818.224	201.817
818.275	192.157
818.326	214.113
818.377	206.873
818.428	202.066
818.479	204.57
818.53	211.958
818.581	202.3
818.632	207.27
818.683	204.933
818.734	212.362
818.785	214.918
818.836	202.815
818.887	215.143
818.938	205.46
818.988	193.311
819.039	212.963
819.09	205.684
819.141	208.191
819.192	205.796
819.243	213.201
819.294	218.161
819.345	198.608
819.396	210.939
819.447	186.487
819.498	213.587
819.549	203.893
819.6	206.5
819.651	211.588
819.702	206.844
819.753	199.625
819.803	199.783
819.854	190.05
819.905	202.511
819.956	195.192
820.007	192.783
820.058	190.348
820.109	210.138
820.16	207.661
820.211	190.343
820.262	190.336
820.313	197.765
820.364	202.757
820.415	195.421
820.465	180.684
820.516	205.574
820.567	205.711
820.618	200.867
820.669	193.506
820.72	193.555
820.771	196.069
820.822	198.584
820.873	193.671
820.924	171.395
820.975	211.255
821.026	196.467
821.076	194.101
821.127	196.693
821.178	204.238
821.229	194.319
821.28	201.816
821.331	206.814
821.382	181.914
821.433	184.437
821.484	194.455
821.535	197.008
821.586	202.064
821.637	194.646
821.687	194.709
821.738	187.277
821.789	189.833
821.84	187.398
821.891	194.968
821.942	202.552
821.993	180.127
822.044	180.207
822.095	195.305
822.146	192.866
822.196	187.905
822.247	195.456
822.298	180.447
822.349	193.012
822.4	198.081
822.451	175.593
822.502	180.727
822.553	183.389
822.604	168.472
822.655	216.448
822.706	191.435
822.756	199.116
822.807	176.506
822.858	204.295
822.909	196.763
822.96	189.224
823.011	179.162
823.062	199.385
823.113	184.266
823.164	171.644
823.214	179.193
823.265	204.387
823.316	186.683
823.367	176.567
823.418	186.654
823.469	189.203
823.52	181.682
823.571	189.31
823.622	179.265
823.672	191.928
823.723	191.947
823.774	184.37
823.825	181.835
823.876	196.975
823.927	202.018
823.978	161.617
824.029	199.512
824.08	179.334
824.13	179.371
824.181	184.468
824.232	184.517
824.283	187.098
824.334	189.681
824.385	179.619
824.436	202.453
824.487	182.271
824.537	187.403
824.588	154.535
824.639	202.732
824.69	195.176
824.741	177.459
824.792	185.079
824.843	187.626
824.893	182.572
824.944	177.53
824.995	180.109
825.046	182.7
825.097	187.831
825.148	175.187
825.199	190.464
825.25	185.423
825.3	162.599
825.351	180.436
825.402	170.336
825.453	190.764
825.504	185.772
825.555	157.857
825.606	185.941
825.657	188.543
825.707	188.572
825.758	180.931
825.809	188.563
825.86	178.352
825.911	180.885
825.962	175.786
826.013	173.248
826.063	178.364
826.114	180.934
826.165	168.205
826.216	188.594
826.267	191.126
826.318	183.452
826.369	178.323
826.419	173.199
826.47	178.27
826.521	178.257
826.572	178.251
826.623	175.703
826.674	175.707
826.725	170.623
826.775	183.375
826.826	170.671
826.877	188.55
826.928	178.414
826.979	188.674
827.03	178.535
827.08	176.039
827.131	168.431
827.182	183.791
827.233	183.841
827.284	178.79
827.335	173.74
827.386	176.354
827.436	171.286
827.487	168.75
827.538	173.852
827.589	176.365
827.64	176.3
827.691	163.463
827.741	168.528
827.792	186.401
827.843	176.243
827.894	161.021
827.945	171.4
827.996	181.824
828.046	171.761
828.097	169.352
828.148	164.33
828.199	179.803
828.25	164.403
828.301	166.944
828.351	172.031
828.402	184.817
828.453	182.225
828.504	161.702
828.555	179.716
828.606	172.087
828.656	169.607
828.707	159.414
828.758	185.216
828.809	172.422
828.86	190.49
828.911	162.203
828.961	180.245
829.012	180.255
829.063	193.137
829.114	172.54
829.165	190.573
829.216	154.526
829.266	180.293
829.317	164.856
829.368	188.066
829.419	188.099
829.47	182.984
829.52	170.135
829.571	162.436
829.622	180.52
829.673	170.235
829.724	159.948
829.774	165.146
829.825	175.523
829.876	173.014
829.927	170.518
829.978	178.367
830.029	155.182
830.079	163.012
830.13	163.064
830.181	163.099
830.232	163.124
830.283	170.916
830.333	173.534
830.384	176.157
830.435	165.824
830.486	160.661
830.537	181.395
830.587	171.017
830.638	168.402
830.689	158.014
830.74	168.358
830.791	170.948
830.841	152.838
830.892	158.062
830.943	191.822
830.994	158.196
831.045	173.836
831.095	181.694
831.146	179.151
831.197	171.392
831.248	179.196
831.299	163.616
831.349	171.413
831.4	163.639
831.451	168.868
831.502	161.12
831.553	166.371
831.603	176.82
831.654	176.855
831.705	156.063
831.756	171.671
831.807	176.867
831.857	163.86
831.908	163.869
831.959	171.696
832.01	187.342
832.061	153.549
832.111	171.799
832.162	158.805
832.213	148.406
832.264	153.628
832.315	174.484
832.365	161.501
832.416	164.162
832.467	156.41
832.518	161.696
832.568	159.154
832.619	172.256
832.67	154.02
832.721	161.87
832.772	174.932
832.822	154.046
832.873	146.217
832.924	164.508
832.975	169.757
833.025	151.511
833.076	159.397
833.127	172.523
833.178	154.281
833.229	154.333
833.279	149.144
833.33	157.03
833.381	164.91
833.432	157.079
833.482	185.901
833.533	167.597
833.584	141.433
833.635	165.034
833.685	162.442
833.736	172.949
833.787	170.354
833.838	146.789
833.889	149.438
833.939	157.338
833.99	165.248
834.041	141.679
834.092	157.455
834.142	149.602
834.193	152.23
834.244	133.848
834.295	173.199
834.345	160.072
834.396	154.838
834.447	136.502
834.498	170.696
834.548	152.385
834.599	160.341
834.65	147.252
834.701	168.328
834.751	163.087
834.802	157.834
834.853	134.163
834.904	165.741
834.954	165.756
835.005	155.245
835.056	160.513
835.107	147.35
835.157	155.224
835.208	152.569
835.259	170.962
835.31	152.546
835.36	168.344
835.411	152.596
835.462	155.269
835.513	163.206
835.563	155.334
835.614	147.44
835.665	152.697
835.716	157.948
835.766	155.312
835.817	147.432
835.868	163.278
835.919	163.353
835.969	150.262
836.02	166.171
836.071	150.416
836.122	147.828
836.172	163.698
836.223	145.226
836.274	158.423
836.325	142.565
836.375	147.819
836.426	139.867
836.477	150.378
836.528	142.415
836.578	171.368
836.629	150.233
836.68	152.839
836.73	142.287
836.781	150.197
836.832	160.757
836.883	142.334
836.933	160.817
836.984	139.758
837.035	158.254
837.086	150.379
837.136	145.135
837.187	147.794
837.238	158.351
837.288	155.685
837.339	160.911
837.39	145.03
837.441	150.258
837.491	144.972
837.542	144.997
837.593	142.424
837.643	155.706
837.694	145.239
837.745	142.665
837.796	155.908
837.846	171.751
837.897	132.079
837.948	139.948
837.999	142.535
838.049	150.412
838.1	158.306
838.151	145.11
838.201	160.943
838.252	168.857
838.303	150.373
838.354	129.242
838.404	155.573
838.455	147.616
838.506	158.116
838.556	129.103
838.607	142.264
838.658	142.264
838.708	155.447
838.759	147.556
838.81	144.934
838.861	142.31
838.911	147.592
838.962	144.971
839.013	134.444
839.063	145.01
839.114	152.946
839.165	147.702
839.216	153.014
839.266	126.667
839.317	142.541
839.368	150.499
839.418	147.886
839.469	163.742
839.52	129.402
839.57	139.945
839.621	166.322
839.672	134.626
839.722	137.264
839.773	142.562
839.824	134.675
839.875	140.001
839.925	137.406
839.976	150.667
840.027	158.643
840.077	140.17
840.128	121.684
840.179	145.519
840.229	148.185
840.28	134.965
840.331	134.965
840.381	142.897
840.432	150.823
840.483	140.229
840.534	126.997
840.584	142.88
840.635	142.901
840.686	148.225
840.736	140.32
840.787	153.601
840.838	148.345
840.888	153.684
840.939	140.472
840.99	153.763
841.04	143.195
841.091	145.885
841.142	140.617
841.192	153.921
841.243	151.301
841.294	130.09
841.344	154.008
841.395	146.062
841.446	146.081
841.496	143.446
841.547	156.757
841.598	151.477
841.648	148.861
841.699	132.952
841.75	143.634
841.8	148.997
841.851	146.367
841.902	141.057
841.952	146.372
842.003	141.02
842.054	146.294
842.104	151.553
842.155	138.204
842.206	122.218
842.256	138.13
842.307	140.775
842.358	138.125
842.408	135.487
842.459	135.509
842.51	127.558
842.56	127.575
842.611	143.535
842.662	116.962
842.712	148.867
842.763	148.871
842.814	148.872
842.864	122.285
842.915	146.203
842.966	146.195
843.016	138.217
843.067	130.25
843.118	146.221
843.168	138.281
843.219	143.646
843.269	133.05
843.32	141.071
843.371	133.11
843.421	149.1
843.472	125.149
843.523	154.461
843.573	149.172
843.624	122.579
843.675	154.625
843.725	141.359
843.776	133.406
843.827	136.104
843.877	149.456
843.928	133.433
843.979	133.412
844.029	133.388
844.08	144.037
844.13	125.352
844.181	122.679
844.232	141.347
844.282	130.687
844.333	130.705
844.384	136.068
844.434	128.099
844.485	125.468
844.536	136.186
844.586	133.548
844.637	122.886
844.687	149.616
844.738	146.953
844.789	133.6
844.839	138.952
844.89	138.963
844.941	125.613
844.991	141.662
845.042	120.29
845.092	136.342
845.143	131.009
845.194	131.025
845.244	131.044
845.295	136.412
845.346	144.455
845.396	133.767
845.447	136.452
845.497	144.489
845.548	147.183
845.599	128.477
845.649	136.548
845.7	136.596
845.75	128.608
845.801	131.326
845.852	139.392
845.902	125.999
845.953	125.999
846.004	128.679
846.054	120.642
846.105	131.382
846.155	128.725
846.206	120.704
846.257	123.407
846.307	139.517
846.358	131.474
846.409	131.477
846.459	134.171
846.51	120.776
846.56	131.55
846.611	128.912
846.661	134.33
846.712	115.553
846.763	120.939
846.813	131.677
846.864	118.213
846.915	120.865
846.965	115.463
847.016	107.391
847.066	134.238
847.117	126.198
847.168	131.593
847.218	120.874
847.269	123.578
847.319	131.646
847.37	123.585
847.421	120.895
847.471	126.268
847.522	134.336
847.572	128.983
847.623	115.573
847.674	123.669
847.724	131.769
847.775	134.489
847.825	112.991
847.876	145.294
847.926	129.163
847.977	118.41
848.028	134.571
848.078	129.206
848.129	131.924
848.179	102.334
848.23	131.994
848.281	129.337
848.331	129.37
848.382	113.22
848.432	150.977
848.483	126.721
848.534	121.34
848.584	118.663
848.635	129.486
848.685	129.537
848.736	126.896
848.786	126.95
848.837	132.396
848.888	124.316
848.938	127.034
848.989	129.749
849.039	135.177
849.09	132.51
849.14	116.328
849.191	116.376
849.242	116.417
849.292	124.566
849.343	119.155
849.393	124.561
849.444	119.133
849.494	127.256
849.545	119.154
849.596	116.488
849.646	121.966
849.697	119.318
849.747	122.084
849.798	130.263
849.848	122.137
849.899	119.422
849.95	111.269
850	124.824
850.051	130.241
850.101	141.092
850.152	124.817
850.202	141.108
850.253	124.837
850.303	124.846
850.354	116.713
850.405	135.726
850.455	119.455
850.506	127.622
850.556	119.501
850.607	133.112
850.657	133.144
850.708	103.277
850.758	122.327
850.809	125.067
850.86	119.647
850.91	111.5
850.961	116.944
851.011	116.941
851.062	122.369
851.112	114.198
851.163	122.346
851.213	130.508
851.264	119.656
851.314	111.542
851.365	122.491
851.416	111.675
851.466	106.297
851.517	103.632
851.567	109.135
851.618	139.189
851.668	125.566
851.719	106.467
851.769	128.313
851.82	106.476
851.87	120.134
851.921	122.876
851.971	109.24
852.022	120.19
852.073	112.026
852.123	122.993
852.174	120.293
852.224	125.788
852.275	106.658
852.325	123.066
852.376	128.288
852.426	123.048
852.477	104.295
852.527	111.182
852.578	117.312
852.628	116.759
852.679	109.674
852.729	118.173
852.78	123.996
852.831	116.976
852.881	108.378
852.932	104.433
852.982	115.146
853.033	116.293
853.083	121.157
853.134	126.308
853.184	115.688
853.235	114.541
853.285	114.655
853.336	126.146
853.386	111.138
853.437	100.748
853.487	121.084
853.538	115.902
853.588	124.068
853.639	101.725
853.689	127.107
853.74	122.906
853.79	103
853.841	111.777
853.891	119.237
853.942	112.43
853.992	111.63
854.043	106.23
854.093	114.826
854.144	113.925
854.194	119.115
854.245	109.3
854.295	111.9
854.346	100.262
854.396	110.52
854.447	109.95
854.497	114.117
854.548	117.137
854.598	105.555
854.649	107.745
854.699	109.875
854.75	109.804
854.8	112.261
854.851	112.459
854.901	122.686
854.952	119.839
855.002	104.513
855.053	113.974
855.103	113.394
855.154	113.544
855.204	105.886
855.255	118.138
855.305	110.361
855.356	103.829
855.406	105.076
855.457	119.798
855.507	114.001
855.558	108.546
855.608	105.823
855.659	116.659
855.709	119.695
855.76	111.249
855.81	107.956
855.861	113.908
855.911	108.814
855.962	106.626
856.012	103.892
856.063	110.834
856.113	114.964
856.164	104.332
856.214	111.904
856.265	115.236
856.315	111.715
856.366	106.675
856.416	110.207
856.467	108.74
856.517	107.928
856.568	104.141
856.618	106.252
856.668	108.763
856.719	113.193
856.769	105.083
856.82	104.234
856.87	107.606
856.921	109.911
856.971	113.6
857.022	112.644
857.072	111.044
857.123	110.533
857.173	112.875
857.224	111.665
857.274	113.207
857.325	117.878
857.352	116.411
857.403	119.192
857.453	110.883
857.504	121.977
857.555	99.8033
857.606	102.577
857.656	110.893
857.707	119.205
857.758	83.1604
857.809	119.189
857.859	105.326
857.91	110.874
857.961	88.7109
858.012	124.778
858.063	105.398
858.113	119.303
858.164	97.1323
858.215	105.475
858.266	105.478
858.316	116.57
858.367	116.546
858.418	113.743
858.469	105.394
858.519	116.466
858.57	119.224
858.621	110.899
858.672	110.893
858.722	116.431
858.773	113.648
858.824	113.635
858.875	105.309
858.925	96.9909
858.976	108.081
859.027	116.412
859.078	110.89
859.128	105.363
859.179	105.372
859.23	113.686
859.281	97.0352
859.331	99.7888
859.382	110.86
859.433	96.9972
859.483	113.633
859.534	102.563
859.585	113.67
859.636	108.138
859.686	99.8223
859.737	102.589
859.788	119.214
859.839	97.031
859.889	99.81
859.94	85.9636
859.991	105.403
860.042	94.3342
860.092	102.679
860.143	108.237
860.194	105.455
860.245	113.759
860.295	105.412
860.346	91.5259
860.397	116.481
860.447	94.304
860.498	99.8773
860.549	91.5878
860.6	105.507
860.65	124.985
860.701	102.787
860.752	105.571
860.802	105.561
860.853	108.319
860.904	105.519
860.955	113.831
861.005	116.599
861.056	97.1705
861.107	94.4075
861.158	99.9812
861.208	102.782
861.259	102.807
861.31	108.389
861.36	102.854
861.411	105.657
861.462	108.458
861.513	102.912
861.563	125.174
861.614	105.706
861.665	83.4488
861.715	80.6596
861.766	114.02
861.817	105.656
861.868	105.63
861.918	91.7024
861.969	127.781
862.02	108.295
862.07	105.481
862.121	97.1261
862.172	102.659
862.223	108.203
862.273	113.76
862.324	105.452
862.375	113.797
862.425	99.934
862.476	88.836
862.527	94.3837
862.577	111.021
862.628	99.8918
862.679	102.634
862.73	105.378
862.78	113.677
862.831	105.361
862.882	94.2928
862.932	108.209
862.983	97.1716
863.034	111.129
863.084	88.958
863.135	105.684
863.186	102.922
863.237	91.7875
863.287	80.6359
863.338	97.2736
863.389	91.6683
863.439	108.286
863.49	88.8222
863.541	111.012
863.591	97.1406
863.642	102.714
863.693	99.9722
863.744	102.792
863.794	105.614
863.845	105.651
863.896	86.2088
863.946	116.81
863.997	114.027
864.048	102.896
864.098	105.673
864.149	122.367
864.2	108.483
864.25	100.167
864.301	111.332
864.352	103.008
864.402	97.4516
864.453	103.017
864.504	91.8668
864.555	111.332
864.605	102.963
864.656	89.0373
864.707	108.504
864.757	94.5844
864.808	108.48
864.859	102.896
864.909	91.7479
864.96	105.623
865.011	97.271
865.061	88.9364
865.112	102.853
865.163	100.103
865.213	114.043
865.264	105.725
865.315	94.6082
865.365	111.303
865.416	111.291
865.467	94.5857
865.517	116.834
865.568	108.496
865.619	89.0398
865.669	86.2835
865.72	94.667
865.771	108.626
865.821	78.0106
865.872	100.322
865.923	100.34
865.973	97.5677
866.024	94.7953
866.075	92.0233
866.125	100.407
866.176	106
866.227	89.2708
866.277	108.8
866.328	94.8464
866.379	86.4704
866.429	83.6749
866.48	103.196
866.531	97.6203
866.581	122.73
866.632	103.212
866.683	100.425
866.733	97.6334
866.784	94.8377
866.835	94.8311
866.885	105.986
866.936	105.996
866.987	108.81
867.037	92.1036
867.088	97.7296
867.138	92.1874
867.189	100.607
867.24	92.245
867.29	97.8424
867.341	109.015
867.392	106.202
867.442	83.8288
867.493	103.378
867.544	103.38
867.594	97.806
867.645	75.4693
867.696	92.2682
867.746	103.483
867.797	81.1292
867.848	100.731
867.898	92.3492
867.949	111.948
867.999	100.76
868.05	97.9683
868.101	83.9797
868.151	86.7873
868.202	95.1958
868.253	112.007
868.303	89.6149
868.354	100.829
868.405	95.2416
868.455	106.469
868.506	89.6824
868.556	84.106
868.607	92.5521
868.658	112.228
868.708	95.4271
868.759	101.069
868.81	98.2823
868.86	115.148
868.911	112.354
868.961	84.277
869.012	92.7188
869.063	112.406
869.113	95.5618
869.164	106.822
869.215	101.216
869.265	95.6062
869.316	101.243
869.367	92.8164
869.417	95.6359
869.468	104.075
869.518	92.8176
869.569	81.5565
869.62	98.4155
869.67	84.3467
869.721	104.025
869.771	87.1626
869.822	87.1759
869.873	98.4409
869.923	106.891
869.974	84.3895
870.025	106.886
870.075	95.6241
870.126	106.865
870.176	84.3689
870.227	92.8195
870.278	95.6579
870.328	101.321
870.379	90.098
870.43	98.5834
870.48	101.439
870.531	104.295
870.581	84.5944
870.632	93.0877
870.683	98.7641
870.733	90.3273
870.784	98.8215
870.834	96.0174
870.885	79.0842
870.936	84.7405
870.986	93.2185
871.037	96.0431
871.087	93.214
871.138	90.3819
871.189	90.3731
871.239	90.3668
871.29	98.8391
871.34	76.2561
871.391	115.824
871.442	93.2557
871.492	101.774
871.543	101.816
871.593	93.3667
871.644	104.717
871.695	99.0813
871.745	76.447
871.796	110.433
871.846	96.2771
871.897	93.4429
871.948	82.1138
871.998	84.9465
872.049	93.4504
872.099	99.1329
872.15	79.3257
872.201	99.1798
872.251	96.3595
872.302	87.8582
872.352	79.3476
872.403	85.0022
872.453	110.489
872.504	93.4871
872.555	90.6598
872.605	104.838
872.656	96.3478
872.706	85.0154
872.757	76.5089
872.808	82.1655
872.858	99.1521
872.909	99.1457
872.959	93.4849
873.01	93.501
873.06	96.36
873.111	82.2148
873.162	87.9108
873.212	96.4411
873.263	90.7816
873.313	79.4378
873.364	96.4565
873.415	93.6109
873.465	82.256
873.516	82.2523
873.566	90.7663
873.617	90.7827
873.667	82.2952
873.718	73.8055
873.769	88.0219
873.819	105.069
873.87	90.8595
873.92	90.8265
873.971	107.797
874.021	90.7201
874.072	99.1684
874.123	93.4639
874.173	82.1214
874.224	84.9602
874.274	82.1521
874.325	93.5234
874.375	96.4046
874.426	93.6152
874.477	87.9815
874.527	93.6946
874.578	96.5638
874.628	99.4247
874.679	76.7059
874.729	90.9073
874.78	93.7346
874.83	85.1958
874.881	82.3389
874.932	85.1655
874.982	93.6772
875.033	96.5203
875.083	88.0137
875.134	96.5423
875.184	90.8671
875.235	90.8595
875.285	88.006
875.336	102.185
875.387	87.9864
875.437	99.3466
875.488	88.0115
875.538	93.7189
875.589	102.273
875.639	82.4075
875.69	82.4165
875.74	90.936
875.791	93.7568
875.841	88.0481
875.892	93.7025
875.943	79.4924
875.993	96.5279
876.044	79.5089
876.094	90.897
876.145	88.0895
876.195	88.1191
876.246	79.6097
876.296	90.9909
876.347	88.145
876.397	93.8223
876.448	71.0698
876.499	79.5934
876.549	88.1232
876.6	90.9756
876.65	73.9305
876.701	96.6984
876.751	88.1846
876.802	91.0465
876.852	82.5243
876.903	88.228
876.953	79.7001
877.004	85.4041
877.054	76.8746
877.105	79.7346
877.155	82.5972
877.206	85.4622
877.257	76.9312
877.307	91.1939
877.358	88.3559
877.408	59.8581
877.459	79.8105
877.509	85.506
877.56	85.4981
877.61	74.0919
877.661	85.4863
877.711	82.6367
877.762	102.588
877.812	82.647
877.863	94.0554
877.913	79.8126
877.964	96.9266
878.014	79.8336
878.065	91.2561
878.115	88.4263
878.166	97.0129
878.216	82.7745
878.267	88.5155
878.318	94.2617
878.368	85.7249
878.419	88.6156
878.469	91.5076
878.52	91.539
878.57	77.2599
878.621	77.2794
878.671	83.0186
878.722	94.4778
878.772	97.3399
878.823	88.742
878.873	94.4501
878.924	85.8441
878.974	91.5459
879.025	97.2502
879.075	88.6632
879.126	85.8106
879.176	85.8334
879.227	91.5959
879.277	88.7845
879.328	83.1102
879.378	88.899
879.429	86.0802
879.479	86.1183
879.53	97.6296
879.58	80.4135
879.631	89.0337
879.681	89.0326
879.732	86.1575
879.782	86.155
879.833	97.6417
879.883	86.1561
879.934	77.5437
879.984	80.4205
880.035	83.2996
880.085	89.0548
880.136	83.3232
880.186	74.7206
880.237	94.8657
880.287	86.2721
880.338	86.306
880.388	89.2189
880.439	97.891
880.489	83.5255
880.54	83.5539
880.59	86.4645
880.641	89.3784
880.691	83.6426
880.742	89.4422
880.792	101.012
880.842	80.8239
880.893	80.8281
880.943	75.0507
880.994	75.0435
881.044	83.6976
881.095	92.361
881.145	72.1719
881.196	95.2999
881.246	86.6738
881.297	95.3841
881.347	72.2899
881.398	80.991
881.448	83.9046
881.499	78.1348
881.549	78.1515
881.6	95.5417
881.65	86.8795
881.701	81.1095
881.751	75.3335
881.802	84.0397
881.852	89.8434
881.902	78.2531
881.953	72.4577
882.003	92.7505
882.054	84.0645
882.104	72.4818
882.155	72.4959
882.205	81.2083
882.256	89.9155
882.306	75.4096
882.357	81.1988
882.407	84.0839
882.458	78.2748
882.508	81.1733
882.559	81.1861
882.609	101.515
882.659	95.7567
882.71	81.2883
882.76	90.0411
882.811	90.0791
882.861	84.2965
882.912	69.7813
882.962	98.8777
883.013	81.4428
883.063	90.1827
883.114	72.7389
883.164	87.3009
883.214	90.2281
883.265	84.4262
883.315	78.6242
883.366	93.2097
883.416	90.3192
883.467	78.6795
883.517	84.516
883.568	87.4327
883.618	81.6036
883.669	87.4349
883.719	78.7004
883.769	93.2954
883.82	75.8261
883.87	67.0999
883.921	87.5487
883.971	81.7313
884.022	87.5829
884.072	70.0745
884.123	87.6049
884.173	81.7809
884.223	81.8037
884.274	70.1403
884.324	87.7027
884.375	87.7234
884.425	102.357
884.476	70.1888
884.526	90.6568
884.577	93.5778
884.627	78.9584
884.677	70.1941
884.728	81.9113
884.778	79.0085
884.829	87.8138
884.879	79.0537
884.93	81.998
884.98	79.0778
885.03	76.1488
885.081	84.9256
885.131	102.474
885.182	79.0285
885.232	81.9292
885.283	78.981
885.333	78.9675
885.383	96.5151
885.434	81.9053
885.484	70.2255
885.535	90.7383
885.585	79.0507
885.635	79.0548
885.686	81.9734
885.736	90.7383
885.787	87.7972
885.837	76.0889
885.888	90.7356
885.938	81.981
885.988	76.1564
886.039	82.0466
886.089	76.2068
886.14	67.4204
886.19	99.6589
886.241	82.0593
886.291	79.1169
886.341	67.3924
886.392	82.0506
886.442	73.2766
886.493	96.7554
886.543	87.9864
886.593	70.4044
886.644	64.5427
886.694	76.2744
886.745	76.2661
886.795	70.3933
886.845	70.3948
886.896	76.2748
886.946	82.1706
886.997	73.4014
887.047	79.3157
887.097	96.9927
887.148	79.3955
887.198	70.6023
887.249	73.5683
887.299	70.644
887.349	82.4341
887.4	61.8335
887.45	79.5053
887.501	79.5064
887.551	79.5062
887.602	67.7294
887.652	79.5165
887.702	67.7496
887.753	82.5011
887.803	70.7387
887.853	88.4521
887.904	76.679
887.954	97.3416
888.005	82.6024
888.055	73.7584
888.105	82.6184
888.156	73.7801
888.206	76.7534
888.257	82.689
888.307	73.861
888.357	88.6694
888.408	76.8713
888.458	79.8424
888.509	85.7594
888.559	88.709
888.609	79.8267
888.66	88.6852
888.71	76.8571
888.76	73.9063
888.811	85.7469
888.861	73.9386
888.912	91.7091
888.962	65.0997
889.012	82.8689
889.063	76.9578
889.113	82.882
889.163	79.9249
889.214	76.969
889.264	76.977
889.315	82.9114
889.365	71.0813
889.415	82.9464
889.466	80.0008
889.516	82.9785
889.566	68.1702
889.617	85.9629
889.667	80.0427
889.718	77.0884
889.768	74.1377
889.818	74.1574
889.869	89.0188
889.919	80.1475
889.969	71.2702
890.02	80.2082
890.07	86.1756
890.12	71.3335
890.171	74.3161
890.221	74.3218
890.272	80.2719
890.322	68.3854
890.372	74.3443
890.423	74.3661
890.473	83.3269
890.523	80.3978
890.574	77.4731
890.624	77.5288
890.674	86.5333
890.725	68.6692
890.775	83.6324
890.826	77.6778
890.876	68.7215
890.926	74.6964
890.977	77.6798
891.027	74.6891
891.077	83.6545
891.128	65.7373
891.178	77.7084
891.228	74.7439
891.279	74.7711
891.329	68.813
891.379	68.8317
891.43	83.8091
891.48	83.8147
891.53	59.8677
891.581	74.8344
891.631	89.807
891.681	74.8536
891.732	71.8851
891.782	92.8996
891.832	77.9656
891.883	87.0218
891.933	81.0742
891.983	66.0975
892.034	69.1298
892.084	63.133
892.134	69.1516
892.185	90.1989
892.235	81.1818
892.286	57.1364
892.336	75.2037
892.386	81.2608
892.437	81.3126
892.487	66.3
892.537	72.3736
892.587	66.3775
892.638	78.4778
892.688	66.4251
892.738	87.5857
892.789	72.5089
892.839	84.6289
892.889	75.5984
892.94	84.7129
892.99	87.7775
893.04	84.7776
893.091	66.6213
893.141	78.7343
893.191	63.5867
893.242	72.6608
893.292	75.6807
893.342	78.7058
893.393	81.7374
893.443	78.7197
893.493	69.6486
893.544	75.7205
893.594	75.7385
893.644	66.6685
893.695	66.6897
893.745	66.7127
893.795	84.9364
893.846	60.6881
893.896	69.8108
893.946	75.9
893.996	69.8452
894.047	72.9019
894.097	72.9245
894.147	66.8686
894.198	88.1689
894.248	66.8979
894.298	66.9002
894.349	82.0988
894.399	66.8884
894.449	66.8864
894.5	69.9354
894.55	72.9986
894.6	88.2472
894.65	63.937
894.701	79.201
894.751	76.189
894.801	76.2183
894.852	67.0969
894.902	82.3807
894.952	88.5284
895.003	76.3642
895.053	67.2453
895.103	82.5827
895.153	79.5711
895.204	70.4242
895.254	64.3248
895.304	88.855
895.355	76.6161
895.405	64.3694
895.455	82.7745
895.505	70.5235
895.556	67.4697
895.606	73.6185
895.656	64.4308
895.707	73.6527
895.757	73.6696
895.807	58.3341
895.858	79.8408
895.908	70.6413
895.958	82.9442
896.008	58.3829
896.059	76.8416
896.109	86.0883
896.159	73.8113
896.21	76.9069
896.26	76.9248
896.31	61.5529
896.36	76.9571
896.411	67.736
896.461	76.9868
896.511	73.9172
896.561	73.9215
896.612	58.5199
896.662	89.3141
896.712	64.6733
896.763	73.918
896.813	77.018
896.863	86.3008
896.913	80.1885
896.964	64.8153
897.014	64.8607
897.064	86.5288
897.115	68.0094
897.165	58.741
897.215	71.1005
897.265	80.357
897.316	77.2467
897.366	61.7829
897.416	71.0369
897.466	71.0268
897.517	64.8446
897.567	71.0184
897.617	80.2881
897.667	74.1295
897.718	80.341
897.768	58.7462
897.818	71.1658
897.868	80.5086
897.919	61.9699
897.969	65.0973
898.019	83.7108
898.069	80.6016
898.12	83.6724
898.17	65.0456
898.22	77.3921
898.27	77.354
898.321	58.7702
898.371	58.7667
898.421	71.1567
898.471	74.2928
898.522	83.6483
898.572	65.1231
898.622	55.8744
898.672	86.9892
898.723	74.608
898.773	62.1951
898.823	74.6434
898.873	74.6424
898.924	65.3094
898.974	68.4206
899.024	87.0909
899.074	77.7751
899.125	82.4588
899.175	80.9138
899.225	56.0165
899.275	62.2289
899.326	52.8773
899.376	77.7309
899.426	71.489
899.476	83.9083
899.527	62.159
899.577	71.5066
899.627	77.7673
899.677	80.9337
899.728	56.0722
899.778	74.8148
899.828	71.7399
899.878	74.8935
899.928	59.3102
899.979	68.6899
