#Acq. time (s)=	2
#Accumulations=	3
#Range (nm)=	520...900
#Windows=	24
#Auto scanning=	On
#Autofocus=	Off
#AutoExposure=	Off
#Spike filter=	Multiple accum.
#Delay time (s)=	0
#Binning=	1
#Readout mode=	Signal
#DeNoise=	Off
#ICS correction=	Off
#Dark correction=	Off
#Inst. Process=	Off
#Detector temperature (°C)=	-59.98
#Instrument=	LabRAM HR Evol
#Detector=	Syncerity OE
#Objective=	x50_VIS
#Grating=	600 (500nm)
#ND Filter=	10%
#Laser=	514nm_Edge
#Hole=	199.981
#Range=	Auto
#StageXY=	Marzhauser
#StageZ=	Marzhauser
#X (µm)=	-19405.3
#Y (µm)=	1755.7
#Z (µm)=	-56.8
#Full time(mm:ss)=	3:04
#Project=	
#Sample=	
#Site=	
#Title=	D
#Remark=	
#Date=	20.02.2024 11:22
#Acquired=	20.02.2024 11:22:37
520.013	30.3932
520.065	28.4936
520.117	28.7645
520.17	30.8376
520.222	29.7444
520.274	31.5879
520.327	29.6504
520.379	28.9238
520.431	29.5828
520.483	29.0144
520.536	26.9169
520.588	28.9728
520.64	31.7366
520.693	26.8863
520.745	27.5571
520.797	30.2448
520.85	34.2292
520.902	26.2758
520.954	27.674
521.007	30.6256
521.059	25.6176
521.111	25.4296
521.163	27.3077
521.216	32.9062
521.268	34.4144
521.32	29.3593
521.373	29.296
521.425	30.3948
521.477	30.6667
521.529	29.6782
521.582	31.4609
521.634	31.3535
521.686	31.5557
521.739	30.4269
521.791	27.9167
521.843	32.7735
521.896	33.5902
521.948	27.2694
522	31.6156
522.052	29.7747
522.105	30.8361
522.157	28.7641
522.209	33.1018
522.262	32.4499
522.314	33.5493
522.366	28.0908
522.418	31.3447
522.471	34.9655
522.523	29.2831
522.575	24.4911
522.628	28.0204
522.68	33.1401
522.732	29.8758
522.784	28.1222
522.837	31.0681
522.889	32.2913
522.941	32.7897
522.994	26.36
523.046	26.071
523.098	31.5201
523.15	29.2012
523.203	28.5697
523.255	34.6911
523.307	34.0037
523.36	30.1336
523.412	32.8039
523.464	32.3869
523.516	32.474
523.569	29.2138
523.621	29.3973
523.673	33.0829
523.726	32.33
523.778	27.9529
523.83	29.0051
523.882	27.4728
523.935	33.2029
523.987	29.1652
524.039	31.1007
524.091	35.4348
524.144	31.9024
524.196	29.6422
524.248	30.0906
524.301	30.345
524.353	32.4871
524.405	33.0188
524.457	32.6339
524.51	29.4536
524.562	29.176
524.614	31.6824
524.666	31.8197
524.719	33.3601
524.771	32.6667
524.823	31.7848
524.875	28.5146
524.928	31.0089
524.98	32.8298
525.032	30.8292
525.085	33.6651
525.137	32.5029
525.189	31.6674
525.241	30.339
525.294	31.3527
525.346	29.9829
525.398	32.7967
525.45	30.2439
525.503	30.9184
525.555	33.0607
525.607	28.335
525.659	28.6988
525.712	30.4433
525.764	33.7706
525.816	29.7933
525.868	26.2531
525.921	34.8367
525.973	29.908
526.025	27.4695
526.077	30.6413
526.13	29.0702
526.182	31.2484
526.234	28.1818
526.286	28.4827
526.339	30.2339
526.391	28.6404
526.443	27.5462
526.495	28.266
526.548	29.82
526.6	31.5724
526.652	25.1446
526.704	27.0186
526.757	32.7772
526.809	33.5742
526.861	30.8728
526.913	28.7292
526.966	28.7103
527.018	32.1119
527.07	30.4015
527.122	28.9161
527.175	29.149
527.227	31.7546
527.279	32.244
527.331	30.9966
527.384	28.2127
527.436	31.5527
527.488	30.6418
527.54	30.1418
527.593	30.5664
527.645	28.7716
527.697	26.6102
527.749	32.6306
527.802	34.8798
527.854	34.561
527.906	27.4541
527.958	29.1789
528.011	33.2459
528.063	32
528.115	30.8168
528.167	29.0298
528.219	26.4857
528.272	30.2095
528.324	29.6094
528.376	34.1935
528.428	31.6195
528.481	28.1006
528.533	30.0791
528.585	32
528.637	32.5237
528.69	31.7652
528.742	28.1059
528.794	33.7851
528.846	33.6002
528.898	25.4748
528.951	27.6244
529.003	33.9178
529.055	31.3116
529.107	28.9893
529.16	30.8822
529.212	31.3056
529.264	33.2073
529.316	30.6608
529.369	31.5827
529.421	32.0347
529.473	32.5071
529.525	26.5486
529.577	26.6927
529.63	31.5784
529.682	32.4938
529.734	33.6563
529.786	30.9786
529.839	30.766
529.891	34.8079
529.943	33.6564
529.995	32.2949
530.047	32.2892
530.1	31.7374
530.152	29.7296
530.204	31.7517
530.256	30.8148
530.308	34.9854
530.361	27.7817
530.413	31.6879
530.465	32.4426
530.517	31.1664
530.57	33.4731
530.622	31.7518
530.674	32.6134
530.726	34.2756
530.778	27.0906
530.831	30.887
530.883	31.2271
530.935	32.7964
530.987	29.7897
531.039	33.1406
531.092	30.1646
531.144	35.1943
531.196	30.5377
531.248	31.4401
531.3	27.6357
531.353	33.7182
531.405	30.6328
531.457	29.2485
531.509	28.9369
531.561	32.4556
531.614	31.0062
531.666	30.2215
531.718	28.4129
531.77	26.5929
531.822	36.9314
531.875	34.8778
531.927	32.7087
531.979	28.0981
532.031	29.4793
532.083	33.0781
532.136	31.4065
532.188	29.9003
532.24	31.1986
532.292	27.9312
532.344	31.1449
532.397	32.6586
532.449	33.1209
532.501	34.0824
532.553	29.9884
532.605	31.8256
532.658	30.1783
532.71	30.0943
532.762	29.2024
532.814	33.2461
532.866	30.8391
532.919	31.3607
532.971	31.5314
533.023	32.305
533.075	35.6353
533.127	34.814
533.179	34.5616
533.232	35.0558
533.284	31.6808
533.336	27.9318
533.388	33.1186
533.44	31.8187
533.493	30.491
533.545	32.2244
533.597	32.5063
533.649	36.9494
533.701	34.5854
533.753	32.8456
533.806	36.2307
533.858	30.1647
533.91	35.3766
533.962	31.1587
534.014	34.1707
534.067	36.1929
534.119	34.2898
534.171	31.4387
534.223	30.1123
534.275	32.2658
534.327	29.858
534.38	33.0412
534.432	29.4807
534.484	29.6758
534.536	34.0955
534.588	29.2336
534.641	34.9056
534.693	33.0572
534.745	33.1772
534.797	27.9104
534.849	29.5596
534.901	35.8466
534.953	32.7099
535.006	35.3948
535.058	32.1651
535.11	38.6784
535.162	35.1296
535.214	33.154
535.267	37.55
535.319	35.7762
535.371	35.8455
535.423	32.2244
535.475	32.8011
535.527	35.3027
535.58	33.0905
535.632	35.3724
535.684	33.1935
535.736	37.313
535.788	30.717
535.84	31.2805
535.892	34.4842
535.945	31.6385
535.997	33.3241
536.049	40.5591
536.101	35.1033
536.153	30.3003
536.205	34.9418
536.258	36.7472
536.31	29.6625
536.362	32.8887
536.414	34.4164
536.466	35.0508
536.518	35.5914
536.57	35.7284
536.623	33.2949
536.675	33.7813
536.727	34.9558
536.779	36.379
536.831	30.1525
536.883	35.3496
536.936	37.5936
536.988	33.9933
537.04	29.9697
537.092	43.4839
537.144	37.7328
537.196	37.4245
537.248	30.7124
537.301	32.044
537.353	34.0236
537.405	31.6536
537.457	33.534
537.509	36.3859
537.561	33.0055
537.613	31.4375
537.666	30.8732
537.718	42.4565
537.77	39.3631
537.778	37.249
537.831	27.2543
537.883	36.6445
537.935	39.4625
537.987	33.5386
538.04	32.9115
538.092	32.7454
538.144	38.2606
538.196	33.8222
538.249	33.7599
538.301	31.6403
538.353	38.253
538.405	33.8666
538.457	34.0126
538.51	35.0671
538.562	34.2179
538.614	36.7909
538.666	39.3565
538.719	33.1476
538.771	35.9455
538.823	36.9618
538.875	30.9264
538.927	30.5519
538.98	33.7712
539.032	37.4428
539.084	32.1669
539.136	32.4855
539.189	33.9255
539.241	35.6153
539.293	36.6247
539.345	33.1006
539.397	31.7404
539.45	36.7354
539.502	34.9771
539.554	32.0078
539.606	29.8129
539.659	37.5506
539.711	33.8827
539.763	34.2012
539.815	31.5547
539.867	34.7323
539.92	30.4649
539.972	35.3322
540.024	33.1292
540.076	31.9821
540.128	30.8213
540.181	33.7935
540.233	36.7025
540.285	32.8487
540.337	31.8711
540.39	34.5737
540.442	35.3871
540.494	36.9063
540.546	30.1928
540.598	40.0108
540.651	36.0302
540.703	37.2202
540.755	32.3607
540.807	35.2055
540.859	34.5782
540.912	34.1205
540.964	30.8885
541.016	38.5285
541.068	32.4427
541.12	35.3762
541.173	32.9029
541.225	35.4306
541.277	33.5502
541.329	33.8727
541.381	39.4177
541.434	36.5859
541.486	35.2634
541.538	33.375
541.59	33.0925
541.642	38.6251
541.695	37.9494
541.747	30.8748
541.799	32.0628
541.851	34.3075
541.903	33.2074
541.956	33.2868
542.008	32.4179
542.06	37.152
542.112	38.3525
542.164	36.3504
542.217	31.6398
542.269	32.9711
542.321	31.9873
542.373	33.7039
542.425	32.8521
542.478	35.5828
542.53	35.0209
542.582	37.881
542.634	36.9383
542.686	33.8943
542.738	32.2524
542.791	35.9489
542.843	27.7432
542.895	36.1218
542.947	35.733
542.999	37.1074
543.052	32.2392
543.104	32.4597
543.156	31.76
543.208	34.2403
543.26	32.5707
543.313	26.958
543.365	38.1005
543.417	33.0269
543.469	35.2306
543.521	35.8651
543.573	32.2222
543.626	36.0025
543.678	32.088
543.73	37.7662
543.782	35.0895
543.834	34.9324
543.886	37.5091
543.939	37.8336
543.991	31.433
544.043	33.3846
544.095	36.0539
544.147	39.2829
544.2	39.1131
544.252	36.5052
544.304	34.1492
544.356	41.0405
544.408	38.1044
544.46	37.5474
544.513	34.1253
544.565	33.0642
544.617	32.2788
544.669	30.808
544.721	33.954
544.773	37.6216
544.826	38.5011
544.878	36.1043
544.93	41.1056
544.982	39.3641
545.034	38.3942
545.086	31.7172
545.139	38.4463
545.191	33.8146
545.243	36.8692
545.295	39.6115
545.347	36.01
545.399	34.7075
545.452	39.4308
545.504	36.2586
545.556	38.9333
545.608	38.7045
545.66	37.7593
545.712	36.5154
545.765	33.1696
545.817	39.3653
545.869	33.1278
545.921	34.7086
545.973	39.2172
546.025	36.2491
546.077	36.3401
546.13	34.5484
546.182	41.5645
546.234	41.941
546.286	32.7712
546.338	35.0469
546.39	41.5886
546.443	44.2701
546.495	37.2082
546.547	37.7688
546.599	40.7374
546.651	34.8467
546.703	36.2866
546.755	36.5848
546.808	41.6585
546.86	43.7376
546.912	38.8343
546.964	39.6528
547.016	37.7666
547.068	37.6651
547.12	39.2659
547.173	43.2556
547.225	40.7917
547.277	39.1876
547.329	40.0425
547.381	37.5574
547.433	42.5406
547.485	42.299
547.538	41.5332
547.59	43.6644
547.642	44.6301
547.694	43.2394
547.746	41.4725
547.798	39.781
547.85	40.8487
547.903	38.9381
547.955	37.6285
548.007	42.5152
548.059	42.5502
548.111	38.4409
548.163	37.3951
548.215	39.2067
548.268	41.0659
548.32	37.7045
548.372	37.9381
548.424	38.1778
548.476	41.844
548.528	43.8454
548.58	39.5306
548.633	41.2224
548.685	39.7309
548.737	40.8468
548.789	40.1991
548.841	42.7719
548.893	43.581
548.945	38.7752
548.997	38.5008
549.049	41.0677
549.102	41.2014
549.154	42.5592
549.206	42.6617
549.258	40.0725
549.31	36.8629
549.362	41.557
549.414	40.8547
549.467	40.8532
549.519	35.9892
549.571	33.2485
549.623	43.9485
549.675	46.4996
549.727	44.4928
549.779	44.5168
549.831	40.1395
549.883	38.2237
549.936	44.5589
549.988	41.2836
550.04	43.1302
550.092	43.7
550.144	46.7511
550.196	42.399
550.248	40.0944
550.3	44.4332
550.353	45.6947
550.405	41.5058
550.457	44.4901
550.509	46.3018
550.561	45.7099
550.613	46.7276
550.665	43.5297
550.717	51.2773
550.769	44.6132
550.822	47.3768
550.874	47.5247
550.926	47.5903
550.978	47.5075
551.03	43.4216
551.082	44.6224
551.134	50.0407
551.186	54.2035
551.238	52.4945
551.291	49.7519
551.343	48.4396
551.395	56.4918
551.447	51.2697
551.499	52.1607
551.551	55.6169
551.603	56.6097
551.655	62.9082
551.707	59.6969
551.759	59.563
551.812	63.9912
551.864	66.277
551.916	70.2843
551.968	77.7672
552.02	80.1184
552.072	88.4215
552.124	93.803
552.176	108.135
552.228	127.01
552.28	155.24
552.332	201.129
552.385	316.715
552.437	652.242
552.489	1334.02
552.541	2453.4
552.593	4454.23
552.645	7540.67
552.697	8424.68
552.749	5706.16
552.801	2724.59
552.853	1072.61
552.905	442.545
552.958	255.978
553.01	187.067
553.062	136.596
553.114	115.884
553.166	98.8652
553.218	87.3617
553.27	83.2445
553.322	75.2428
553.374	75.9349
553.426	66.92
553.478	64.559
553.531	63.0108
553.583	63.0088
553.635	58.9947
553.687	53.3682
553.739	56.6445
553.791	54.333
553.843	49.7635
553.895	52.6951
553.947	51.3135
553.999	51.0213
554.051	51.5302
554.103	48.3145
554.155	49.7991
554.208	55.2403
554.26	52.2197
554.312	49.2078
554.364	49.2962
554.416	51.8429
554.468	46.5428
554.52	46.675
554.572	49.5412
554.624	50.582
554.676	47.5905
554.728	42.4324
554.78	47.4079
554.832	47.8481
554.884	45.4217
554.937	47.3349
554.989	40.9024
555.041	44.0743
555.093	45.1869
555.145	45.3954
555.197	44.6476
555.249	41.7197
555.301	42.2474
555.353	42.3425
555.405	43.326
555.457	45.656
555.509	41.6571
555.529	38.1778
555.582	39.9531
555.634	45.9545
555.686	43.8906
555.738	47.9146
555.79	45.022
555.842	45.897
555.895	48.8388
555.947	41.2838
555.999	41.0763
556.051	40.1277
556.103	44.7171
556.155	47.0021
556.207	43.2493
556.26	43.8619
556.312	47.6808
556.364	42.0923
556.416	44.8316
556.468	46.6269
556.52	55.1227
556.573	46.2311
556.625	46.1089
556.677	42.1062
556.729	43.0809
556.781	44.4236
556.833	44.1771
556.885	49.5609
556.938	47.6948
556.99	43.1741
557.042	45.3464
557.094	43.5829
557.146	50.4288
557.198	42.8539
557.25	47.4048
557.302	37.9659
557.355	45.474
557.407	46.9007
557.459	41.7958
557.511	45.1428
557.563	48.1758
557.615	44.5911
557.667	41.6767
557.72	50.8506
557.772	45.0745
557.824	48.1282
557.876	43.5755
557.928	41.8923
557.98	41.6515
558.032	47.7372
558.085	42.3746
558.137	45.9166
558.189	43.2874
558.241	44.8372
558.293	47.2541
558.345	45.2602
558.397	48.681
558.449	44.437
558.502	46.1204
558.554	47.5021
558.606	43.133
558.658	47.441
558.71	43.6038
558.762	48.916
558.814	43.3668
558.866	45.2859
558.919	41.1569
558.971	44.1865
559.023	43.4745
559.075	46.9641
559.127	46.3217
559.179	47.167
559.231	49.5086
559.283	45.418
559.336	47.7381
559.388	50.0892
559.44	50.6973
559.492	49.1121
559.544	52.0046
559.596	54.1431
559.648	46.4799
559.7	47.3553
559.753	41.0683
559.805	43.7493
559.857	49.5168
559.909	52.945
559.961	45.6721
560.013	45.2576
560.065	44.2009
560.117	46.962
560.169	49.5302
560.222	50.5274
560.274	49.8192
560.326	46.1628
560.378	46.6557
560.43	50.8139
560.482	50.475
560.534	50.0728
560.586	46.453
560.638	53.7514
560.69	49.6069
560.743	47.0926
560.795	48.3434
560.847	45.119
560.899	46.7973
560.951	46.2091
561.003	47.968
561.055	48.5942
561.107	53.7228
561.159	46.0262
561.212	47.0079
561.264	50.6863
561.316	47.2395
561.368	51.652
561.42	50.4613
561.472	46.4311
561.524	49.4451
561.576	44.9772
561.628	48.3886
561.68	43.8287
561.733	51.2293
561.785	51.1036
561.837	48.4096
561.889	47.8727
561.941	51.9815
561.993	51.9346
562.045	48.1444
562.097	49.8826
562.149	55.3386
562.201	51.0612
562.253	49.3694
562.306	50.2632
562.358	48.8167
562.41	44.2803
562.462	50.2025
562.514	53.2837
562.566	52.8622
562.618	53.0173
562.67	49.946
562.722	53.9624
562.774	56.3914
562.826	49.8085
562.879	48.3685
562.931	48.6823
562.983	51.6222
563.035	45.9015
563.087	48.8695
563.139	49.0643
563.191	50.5696
563.243	49.8132
563.295	54.1353
563.347	53.6027
563.399	54.6458
563.451	48.4667
563.504	50.1845
563.556	50.8199
563.608	49.5689
563.66	50.509
563.712	51.4341
563.764	48.3323
563.816	49.0979
563.868	48.4684
563.92	50.263
563.972	54.0877
564.024	56.7634
564.076	52.9164
564.128	49.1311
564.181	52.334
564.233	55.4671
564.285	51.9549
564.337	53.7706
564.389	50.9745
564.441	50.4692
564.493	47.9712
564.545	50.0243
564.597	59.0197
564.649	57.8157
564.701	54.7562
564.753	53.155
564.805	56.8286
564.857	51.5765
564.909	53.0264
564.962	52.179
565.014	54.5235
565.066	50.9875
565.118	52.5231
565.17	52.3054
565.222	58.3299
565.274	54.0023
565.326	56.6593
565.378	52.9114
565.43	53.0385
565.482	58.8607
565.534	54.9154
565.586	53.8108
565.638	55.6356
565.69	56.3565
565.742	56.0984
565.795	58.7818
565.847	62.9065
565.899	54.5491
565.951	55.7116
566.003	57.7131
566.055	59.3816
566.107	56.1667
566.159	55.3488
566.211	55.6486
566.263	60.6148
566.315	57.1573
566.367	55.2987
566.419	53.3301
566.471	54.8548
566.523	55.0338
566.575	52.294
566.627	51.5123
566.679	52.6103
566.732	50.7738
566.784	50.8324
566.836	55.299
566.888	58.8965
566.94	55.3433
566.992	53.8729
567.044	55.9571
567.096	57.0449
567.148	54.1863
567.2	56.2686
567.252	58.4154
567.304	58.2367
567.356	57.3807
567.408	58.4554
567.46	56.0551
567.512	55.6873
567.564	58.0211
567.616	56.767
567.668	59.8371
567.72	61.5545
567.772	57.878
567.824	60.1177
567.876	60.6536
567.928	62.0099
567.98	58.3704
568.033	57.4135
568.085	62.7149
568.137	59.0342
568.189	56.5469
568.241	57.2564
568.293	58.8058
568.345	60.9469
568.397	59.7665
568.449	58.5857
568.501	59.5701
568.553	61.4971
568.605	57.5512
568.657	57.5703
568.709	59.9691
568.761	60.6296
568.813	54.8117
568.865	59.785
568.917	67.1737
568.969	64.5246
569.021	61.9151
569.073	64.2498
569.125	65.2812
569.177	61.6763
569.229	61.5254
569.281	62.8699
569.333	62.997
569.385	60.3275
569.437	59.3549
569.489	57.8334
569.541	59.3679
569.593	60.831
569.645	60.7901
569.697	60.628
569.749	63.0809
569.801	65.4595
569.853	64.8148
569.905	62.4704
569.957	66.0056
570.009	61.8316
570.061	63.4722
570.113	61.6244
570.165	62.7289
570.217	60.3439
570.269	60.4107
570.321	65.6909
570.374	68.5007
570.426	65.0915
570.478	66.9643
570.53	64.7944
570.582	63.6114
570.634	62.9263
570.686	63.4902
570.738	64.0122
570.79	68.6257
570.842	65.8459
570.894	65.9656
570.946	65.2091
570.998	65.4542
571.05	61.1542
571.102	61.8095
571.154	67.0545
571.206	66.2611
571.258	64.0161
571.31	70.3715
571.362	71.3419
571.414	69.3007
571.466	70.3292
571.518	67.9909
571.57	69.3964
571.622	71.6459
571.674	70.5103
571.726	73.9203
571.778	71.1479
571.83	69.3742
571.882	75.5209
571.934	73.426
571.986	75.8446
572.038	74.7386
572.09	71.3069
572.142	73.2446
572.194	70.6307
572.246	74.9773
572.298	80.4038
572.349	78.5017
572.401	79.0823
572.453	77.7043
572.505	74.312
572.557	77.9978
572.609	79.4445
572.661	83.2991
572.713	76.0169
572.765	70.5554
572.817	82.4216
572.869	91.2344
572.921	82.8482
572.973	81.8358
573.025	84.899
573.077	80.3382
573.129	85.5484
573.181	84.7817
573.212	83.0293
573.264	85.9589
573.316	81.0804
573.368	89.5497
573.421	88.4606
573.473	94.436
573.525	88.0246
573.577	96.159
573.629	92.2611
573.681	92.9869
573.733	90.5628
573.785	92.1745
573.837	92.1003
573.889	100.06
573.941	96.9046
573.993	96.5187
574.045	98.1518
574.097	104.331
574.15	103.786
574.202	104.011
574.254	109.243
574.306	102.337
574.358	109.728
574.41	111.406
574.462	109.521
574.514	109.949
574.566	109.331
574.618	111.998
574.67	108.812
574.722	111.945
574.774	117.974
574.826	115.239
574.878	111.276
574.931	119.661
574.983	123.026
575.035	116.675
575.087	118.406
575.139	117.237
575.191	120.963
575.243	116.714
575.295	129.981
575.347	117.903
575.399	119.752
575.451	121.865
575.503	128.027
575.555	120.687
575.607	121.54
575.659	122.099
575.711	119.575
575.763	123.701
575.815	118.524
575.868	124.013
575.92	121.847
575.972	122.336
576.024	120.557
576.076	117.261
576.128	118.564
576.18	112.743
576.232	125.642
576.284	120.167
576.336	120.014
576.388	116.132
576.44	117.675
576.492	112.179
576.544	115.669
576.596	116.415
576.648	116.794
576.7	111.405
576.752	116.104
576.804	109.357
576.856	117.036
576.909	113.847
576.961	114.048
577.013	112.174
577.065	105.08
577.117	102.106
577.169	110.232
577.221	104.124
577.273	109.873
577.325	107.421
577.377	105.442
577.429	100.725
577.481	102.707
577.533	104.031
577.585	107.766
577.637	98.2128
577.689	103.091
577.741	100.617
577.793	102.445
577.845	98.2747
577.897	101.04
577.949	99.8596
578.001	101.899
578.053	98.4366
578.105	96.554
578.157	94.7385
578.209	99.4435
578.261	101.676
578.313	93.0295
578.365	91.5301
578.417	92.5734
578.469	91.48
578.522	95.7572
578.574	97.4096
578.626	101.132
578.678	96.177
578.73	87.1136
578.782	95.5333
578.834	93.9758
578.886	91.2443
578.938	92.2822
578.99	96.4147
579.042	99.2068
579.094	98.0967
579.146	92.5007
579.198	89.6782
579.25	90.2894
579.302	96.7859
579.354	89.9716
579.406	95.8798
579.458	98.4377
579.51	100.166
579.562	91.1288
579.614	95.4299
579.666	92.6887
579.718	98.09
579.77	94.6752
579.822	93.3336
579.874	101.178
579.926	100.929
579.978	96.0745
580.03	90.76
580.082	90.8952
580.134	93.0856
580.186	91.7294
580.238	96.0514
580.29	99.9074
580.342	97.5728
580.394	93.4932
580.446	93.1388
580.498	94.8231
580.55	99.1659
580.602	96.9208
580.654	96.7361
580.706	93.7513
580.758	93.9254
580.81	94.8837
580.862	96.3959
580.914	97.8349
580.966	98.9278
581.018	95.7645
581.07	98.2256
581.122	99.1739
581.174	102.748
581.226	99.2055
581.278	103.865
581.33	97.0318
581.382	97.8163
581.434	98.0249
581.486	103.569
581.538	100.185
581.59	97.1404
581.642	96.6966
581.694	100.082
581.746	101.8
581.798	99.773
581.85	99.8171
581.902	100.449
581.954	101.432
582.006	100.289
582.058	104.915
582.11	108.952
582.162	105.255
582.214	103.308
582.266	103.993
582.318	110.619
582.37	103.31
582.422	104.255
582.474	108.871
582.526	106.653
582.578	105.396
582.63	102.725
582.682	100.269
582.734	103.578
582.786	107.408
582.838	106.26
582.89	107.127
582.942	108.889
582.994	109.244
583.046	104.448
583.098	105.605
583.15	105.298
583.202	107.526
583.254	108.553
583.306	111.88
583.358	114.807
583.41	110.393
583.462	109.242
583.514	111.011
583.566	114.356
583.618	114.907
583.67	110.905
583.721	111.596
583.773	112.437
583.825	116.864
583.877	112.704
583.929	112.564
583.981	114.644
584.033	119.659
584.085	117.916
584.137	119.67
584.189	115.926
584.241	111.432
584.293	118.527
584.345	119.93
584.397	116.134
584.449	121.899
584.501	123.39
584.553	120.889
584.605	122.081
584.657	115.108
584.709	111.01
584.761	116.959
584.813	123.528
584.865	124.194
584.917	124.573
584.969	124.991
585.021	126.601
585.073	125.014
585.125	116.688
585.177	124.872
585.229	130.109
585.281	125.472
585.332	120.84
585.384	126.582
585.436	127.413
585.488	122.786
585.54	122.166
585.592	130.528
585.644	128.657
585.696	133.997
585.748	128.97
585.8	126.914
585.852	127.733
585.904	127.394
585.956	125.588
586.008	130.84
586.06	136.16
586.112	131.431
586.164	128.599
586.216	128.707
586.268	130.105
586.32	124.305
586.371	127.655
586.423	133.5
586.475	128.68
586.527	133.164
586.579	129.33
586.631	126.138
586.683	130.652
586.735	128.461
586.787	129.216
586.839	134.352
586.891	133.417
586.943	129.385
586.995	127.807
587.047	131.394
587.099	136.553
587.151	132.301
587.203	124.801
587.255	131.844
587.306	140.859
587.358	129.799
587.41	130.43
587.462	137.91
587.514	137.618
587.566	136.58
587.618	129.82
587.67	136.194
587.722	135.838
587.774	135.634
587.826	137.75
587.878	138.724
587.93	140.447
587.982	135.776
588.034	138.508
588.085	139.189
588.137	139.971
588.189	137.282
588.241	146.78
588.293	144.797
588.345	138.641
588.397	135.736
588.449	141.478
588.501	142.227
588.553	140.277
588.605	143.874
588.657	137.078
588.709	136.206
588.76	151.12
588.812	144.666
588.864	138.234
588.916	144.065
588.968	140.157
589.02	138.216
589.072	150.439
589.124	151.767
589.176	156.235
589.228	146.972
589.28	148.756
589.332	155.398
589.383	154.346
589.435	149.108
589.487	154.647
589.539	150.811
589.591	154.587
589.643	153.546
589.695	153.255
589.747	151.964
589.799	146.075
589.851	149.582
589.903	151.815
589.955	149.911
590.006	148.5
590.058	142.783
590.11	143.094
590.162	144.185
590.214	145.051
590.266	141.122
590.318	147.836
590.37	154.244
590.422	146.844
590.474	142.417
590.525	148.44
590.577	149.776
590.629	141.796
590.681	138.757
590.733	151.01
590.785	144.638
590.837	138.343
590.889	140.638
590.932	144.006
590.984	151.909
591.036	139.111
591.088	136.193
591.14	147.881
591.192	145.971
591.244	138.989
591.296	138.903
591.348	135
591.4	144.69
591.452	140.8
591.504	141.699
591.556	138.225
591.608	144.793
591.66	133.02
591.712	142.301
591.764	140.578
591.816	136.46
591.868	133.014
591.92	133.163
591.972	134.781
592.024	135.224
592.076	126.92
592.128	123.213
592.18	137.339
592.232	140.977
592.284	124.945
592.336	127.681
592.388	131.242
592.44	123.868
592.492	123.004
592.544	137.421
592.596	133.621
592.648	132.397
592.7	123.705
592.752	138.211
592.804	134.072
592.856	130.85
592.908	124.019
592.96	129.701
593.012	130.663
593.064	133.691
593.116	134.604
593.168	136.001
593.22	130.002
593.272	127.088
593.324	116.15
593.376	130.561
593.428	132.799
593.479	133.019
593.531	124.235
593.583	131.661
593.635	129.539
593.687	121.76
593.739	122.439
593.791	138.993
593.843	133.024
593.895	131.851
593.947	126.003
593.999	122.747
594.051	138.252
594.103	129.51
594.155	126.186
594.207	132.946
594.259	136.379
594.311	127.677
594.363	120.724
594.415	129.296
594.467	139.654
594.519	132.617
594.571	126.558
594.623	131.548
594.675	128.45
594.727	133.374
594.779	134.159
594.831	136.845
594.883	131.198
594.935	137.558
594.986	127.439
595.038	133.068
595.09	127.683
595.142	131.21
595.194	133.621
595.246	135.729
595.298	132.17
595.35	132.542
595.402	132.338
595.454	134.213
595.506	136.794
595.558	126.6
595.61	135.74
595.662	136.017
595.714	141.697
595.766	139.676
595.818	137.987
595.87	141.466
595.922	131.843
595.974	132.473
596.026	136.833
596.077	141.726
596.129	143.219
596.181	131.906
596.233	138.929
596.285	138.825
596.337	133.148
596.389	136.243
596.441	150.227
596.493	148.113
596.545	146.381
596.597	157.635
596.649	145.264
596.701	148.911
596.753	148.779
596.805	151.139
596.857	139.692
596.909	136.275
596.96	144.563
597.012	134.022
597.064	131.22
597.116	136.651
597.168	133.058
597.22	133.466
597.272	133.923
597.324	134.377
597.376	138.457
597.428	128.385
597.48	133.184
597.532	135.755
597.584	131.093
597.636	137.937
597.688	137.525
597.739	139.599
597.791	133.323
597.843	132.644
597.895	129.53
597.947	128.546
597.999	121.623
598.051	127.913
598.103	134.186
598.155	136.341
598.207	137.457
598.259	130.919
598.311	124.979
598.363	131.698
598.414	129.724
598.466	131.248
598.518	133.732
598.57	137.741
598.622	136.5
598.674	133.841
598.726	128.674
598.778	136.306
598.83	139.109
598.882	128.503
598.934	128.885
598.986	138.531
599.037	129.357
599.089	133.95
599.141	130.798
599.193	131.587
599.245	129.611
599.297	129.39
599.349	133.82
599.401	125.238
599.453	124.925
599.505	126.814
599.557	128.22
599.609	128.303
599.66	131.769
599.712	125.909
599.764	134.182
599.816	132.209
599.868	132.232
599.92	135.293
599.972	133.603
600.024	132.319
600.076	133.173
600.128	129.969
600.18	137.233
600.231	134.91
600.283	135.426
600.335	138.941
600.387	139.955
600.439	140.63
600.491	131.91
600.543	129.028
600.595	128.307
600.647	136.828
600.699	137.797
600.75	141.19
600.802	136.598
600.854	136.46
600.906	127.135
600.958	127.055
601.01	135.176
601.062	136.713
601.114	127.232
601.166	130.841
601.217	130.012
601.269	131.826
601.321	135.26
601.373	130.27
601.425	134.463
601.477	129.986
601.529	126.444
601.581	137.509
601.633	136.869
601.685	137.327
601.736	131.876
601.788	132.032
601.84	136.494
601.892	131.669
601.944	126.085
601.996	129.303
602.048	133.481
602.1	137.655
602.151	131.6
602.203	132.391
602.255	138.326
602.307	134.757
602.359	136.189
602.411	133.459
602.463	132.43
602.515	134.136
602.567	130.1
602.618	129.62
602.67	132.4
602.722	134.809
602.774	139.502
602.826	138.528
602.878	130.79
602.93	131.194
602.982	128.698
603.033	137.518
603.085	138.663
603.137	137.459
603.189	135.322
603.241	135.888
603.293	134.04
603.345	130.774
603.396	130.631
603.448	134.861
603.5	139.006
603.552	135.674
603.604	131.396
603.656	135.121
603.708	141.099
603.76	140.138
603.811	133.653
603.863	141.377
603.915	144.152
603.967	137.304
604.019	135.517
604.071	137.987
604.123	139.684
604.174	132.979
604.226	131.192
604.278	130.576
604.33	140.771
604.382	141.996
604.434	143.609
604.486	143.613
604.538	136.601
604.589	123.212
604.641	126.501
604.693	137.71
604.745	136.82
604.797	136.063
604.849	137.751
604.901	141.063
604.952	141.63
605.004	140.528
605.056	137.449
605.108	143.575
605.16	142.084
605.212	129.599
605.263	136.699
605.315	133.757
605.367	144.283
605.419	138.958
605.471	140.041
605.523	140.91
605.575	138.328
605.626	134.573
605.678	139.235
605.73	141.831
605.782	137.745
605.834	136.704
605.886	137.461
605.938	138.954
605.989	140.25
606.041	128.281
606.093	136.263
606.145	136.513
606.197	140.552
606.249	142.246
606.3	137.217
606.352	137.653
606.404	140.507
606.456	138.475
606.508	135.076
606.56	139.468
606.611	141.765
606.663	139.239
606.715	137.314
606.767	130.393
606.819	131.858
606.871	133.13
606.922	134.975
606.974	142.024
607.026	143.818
607.078	133.969
607.13	135.402
607.182	139.992
607.233	138.303
607.285	141.772
607.337	140.954
607.389	139.012
607.441	134.944
607.493	137.844
607.544	139.384
607.596	145.322
607.648	139.118
607.7	134.322
607.752	136.507
607.803	141.328
607.855	141.327
607.907	135.447
607.959	145.352
608.011	151.683
608.063	142.93
608.114	139.647
608.166	136.996
608.218	144.62
608.27	138.405
608.322	135.517
608.374	137.19
608.425	135.395
608.477	131.914
608.529	139.977
608.56	148.101
608.612	138.235
608.664	144.659
608.716	139.855
608.768	134.19
608.82	142.437
608.872	144.453
608.924	134.855
608.976	144.973
609.027	142.551
609.079	142.412
609.131	143.828
609.183	131.895
609.235	137.071
609.287	149.987
609.339	141.196
609.391	138.738
609.443	147.193
609.495	144.399
609.547	141.166
609.598	142.069
609.65	145.765
609.702	150.661
609.754	145.558
609.806	141.826
609.858	138.156
609.91	144.292
609.962	142.715
610.014	153.193
610.065	147.759
610.117	143.619
610.169	144.674
610.221	143.748
610.273	149.681
610.325	140.343
610.377	149.79
610.429	144.934
610.481	148.776
610.533	140.718
610.584	143.989
610.636	145.791
610.688	146.795
610.74	142.517
610.792	140.073
610.844	139.75
610.896	141.202
610.948	138.215
611	154.618
611.052	153.251
611.103	157.055
611.155	142.324
611.207	148.983
611.259	151.031
611.311	153.077
611.363	149.612
611.415	149.097
611.467	147.725
611.518	146.815
611.57	144.829
611.622	149.712
611.674	150.594
611.726	150.728
611.778	148.546
611.83	137.282
611.882	150.208
611.934	146.382
611.985	147.982
612.037	146.668
612.089	151.713
612.141	147.679
612.193	143.37
612.245	142.709
612.297	147.861
612.349	143.894
612.4	142.175
612.452	143.346
612.504	148.624
612.556	153.083
612.608	146.256
612.66	147.602
612.712	155.706
612.764	144.25
612.815	139.907
612.867	150.184
612.919	160.768
612.971	157.589
613.023	148.946
613.075	145.822
613.127	152.51
613.179	150.824
613.23	147.673
613.282	149.34
613.334	151.829
613.386	157.6
613.438	148.655
613.49	157.199
613.542	158.504
613.594	157.363
613.645	142.884
613.697	159.013
613.749	150.331
613.801	151.859
613.853	150.197
613.905	158.063
613.957	154.924
614.008	143.363
614.06	156.092
614.112	149.629
614.164	156.297
614.216	153.825
614.268	149.706
614.32	148.659
614.371	151.256
614.423	160.462
614.475	151.053
614.527	151.591
614.579	156.779
614.631	152.05
614.683	154.345
614.734	153.498
614.786	159.942
614.838	159.238
614.89	153.931
614.942	158.884
614.994	154.41
615.045	149.363
615.097	157.826
615.149	158.465
615.201	160.954
615.253	154.374
615.305	154.012
615.357	155.641
615.408	157.799
615.46	162.078
615.512	156.683
615.564	161.164
615.616	167.037
615.668	167.794
615.719	154.078
615.771	161.073
615.823	162.497
615.875	154.942
615.927	166.173
615.979	167.029
616.031	172.794
616.082	164.951
616.134	165.236
616.186	168.356
616.238	169.541
616.29	165.734
616.342	163.891
616.393	164.675
616.445	161.587
616.497	167.393
616.549	155.75
616.601	165.654
616.653	163.698
616.704	163.481
616.756	161.167
616.808	166.954
616.86	164.367
616.912	168.138
616.964	167.789
617.015	169.577
617.067	166.658
617.119	165.527
617.171	162.088
617.223	157.674
617.274	156.961
617.326	168.834
617.378	162.731
617.43	165.579
617.482	160.725
617.534	162.939
617.585	166.662
617.637	159.013
617.689	166.462
617.741	166.206
617.793	168.496
617.845	166.785
617.896	166.96
617.948	154.687
618	168.212
618.052	173.882
618.104	159.082
618.155	160.303
618.207	168.498
618.259	177.688
618.311	171.81
618.363	168.341
618.415	169.26
618.466	175.379
618.518	168.856
618.57	164.519
618.622	171.027
618.674	169.416
618.725	167.577
618.777	175.945
618.829	173.505
618.881	172.535
618.933	170.254
618.984	167.289
619.036	185.359
619.088	174.243
619.14	169.335
619.192	169.018
619.244	173.418
619.295	172.783
619.347	175.65
619.399	176.319
619.451	173.063
619.503	175.991
619.554	181.418
619.606	174.539
619.658	166.134
619.71	177.729
619.762	184.31
619.813	178.323
619.865	178.218
619.917	167.648
619.969	176.069
620.021	167.31
620.072	174.684
620.124	174.026
620.176	171.425
620.228	176.991
620.279	175.707
620.331	178.346
620.383	175.73
620.435	173.791
620.487	178.083
620.538	174.097
620.59	174.25
620.642	177.92
620.694	178.921
620.746	177.81
620.797	183.775
620.849	177.706
620.901	179.123
620.953	185.349
621.005	179.424
621.056	180.401
621.108	176.051
621.16	174.036
621.212	178.077
621.263	180.824
621.315	175.215
621.367	182.032
621.419	177.961
621.471	178.862
621.522	185.574
621.574	177.652
621.626	174.046
621.678	179.861
621.729	184.094
621.781	186.974
621.833	178.415
621.885	172.872
621.937	188.248
621.988	186.974
622.04	186.063
622.092	183.503
622.144	182.551
622.195	173.627
622.247	171.583
622.299	176.279
622.351	179.766
622.403	175.072
622.454	178.597
622.506	181.696
622.558	183.176
622.61	181.62
622.661	178.744
622.713	171.195
622.765	174.341
622.817	179.043
622.869	175.828
622.92	181.913
622.972	181.281
623.024	175.114
623.076	180.447
623.127	185.052
623.179	181.457
623.231	178.154
623.283	183.702
623.334	180.703
623.386	179.911
623.438	182.797
623.49	182.247
623.541	182.164
623.593	193.185
623.645	189.051
623.697	183.3
623.748	174.592
623.8	181.948
623.852	179.615
623.904	186.153
623.956	181.563
624.007	179.385
624.059	176.795
624.111	181.649
624.162	183.505
624.214	185.04
624.266	184.066
624.318	183.149
624.37	186.299
624.421	183.094
624.473	183.8
624.525	192.137
624.576	183.722
624.628	183.048
624.68	183.763
624.732	180.061
624.784	180.122
624.835	185.79
624.887	180.291
624.939	183.242
624.99	181.233
625.042	190.13
625.094	179.337
625.146	182.02
625.197	184.512
625.249	182.442
625.301	178.737
625.353	187.37
625.404	179.144
625.456	181.722
625.508	177.116
625.56	183.047
625.611	181.134
625.663	182.295
625.715	185.244
625.767	185.559
625.818	189.486
625.87	189.415
625.922	192.504
625.974	187.993
626.025	185.732
626.077	188.515
626.129	183.473
626.18	185.423
626.197	188.535
626.249	183.496
626.3	192.983
626.352	186.473
626.404	187.443
626.456	193.39
626.508	191.816
626.56	191.227
626.611	190.181
626.663	192.675
626.715	198.322
626.767	191.135
626.819	185.926
626.87	182.789
626.922	185.431
626.974	182.21
627.026	189.901
627.078	194.492
627.13	194.917
627.181	184.095
627.233	181.125
627.285	188.667
627.337	187.824
627.389	181.959
627.44	188.334
627.492	181.919
627.544	184.598
627.596	189.848
627.648	196.514
627.7	193.928
627.751	191.882
627.803	179.87
627.855	181.443
627.907	193.737
627.959	197.662
628.01	190.303
628.062	190.267
628.114	183.616
628.166	196.101
628.218	193.239
628.27	194.421
628.321	198.206
628.373	191.126
628.425	194.96
628.477	193.835
628.529	195.166
628.58	194.098
628.632	191.834
628.684	195.536
628.736	202.79
628.788	190.691
628.839	185.188
628.891	192.4
628.943	196.041
628.995	195.584
629.047	192.033
629.098	195.821
629.15	200.752
629.202	195.541
629.254	193.496
629.306	188.518
629.357	198.474
629.409	190.866
629.461	196.728
629.513	187.547
629.565	196.418
629.616	190.637
629.668	190.044
629.72	195.146
629.772	197.04
629.824	203.899
629.875	196.872
629.927	200.01
629.979	203.025
630.031	196.192
630.083	202.075
630.134	200.977
630.186	190.75
630.238	198.133
630.29	180.58
630.342	190.459
630.393	198.242
630.445	199.405
630.497	191.089
630.549	205.692
630.6	195.816
630.652	201.296
630.704	199.537
630.756	202.56
630.808	200.099
630.859	199.197
630.911	195.091
630.963	200.109
631.015	206.098
631.067	203.639
631.118	195.382
631.17	199.198
631.222	202.508
631.274	203.998
631.325	202.806
631.377	201.319
631.429	200.866
631.481	207.966
631.533	200.36
631.584	198.973
631.636	204.041
631.688	201.202
631.74	200.704
631.791	201.578
631.843	200.739
631.895	205.691
631.947	204.183
631.999	204.339
632.05	207.879
632.102	207.11
632.154	200.605
632.206	202.54
632.257	207.653
632.309	213.43
632.361	198.311
632.413	195.632
632.464	203.353
632.516	206.665
632.568	215.498
632.62	210.828
632.672	214.744
632.723	211.97
632.775	211.129
632.827	212.896
632.879	207.569
632.93	208.837
632.982	208.616
633.034	216.237
633.086	214.395
633.137	215.609
633.189	206.825
633.241	207.853
633.293	210.263
633.344	211.483
633.396	202.275
633.448	217.359
633.5	216.941
633.551	214.996
633.603	214.667
633.655	216.896
633.707	215.723
633.758	209.633
633.81	212.93
633.862	221.138
633.914	215.382
633.965	211.786
634.017	204.586
634.069	211.245
634.121	221.416
634.172	219.128
634.224	218.3
634.276	225.856
634.328	224.727
634.379	223.931
634.431	220.629
634.483	218.888
634.535	226.642
634.586	225.977
634.638	223.564
634.69	230.209
634.742	227.675
634.793	216.16
634.845	226.915
634.897	228.148
634.949	225.268
635	221.33
635.052	229.736
635.104	227.486
635.156	226.003
635.207	224.61
635.259	230.945
635.311	237.108
635.363	238.39
635.414	240.126
635.466	239.288
635.518	234.655
635.57	236.037
635.621	229.938
635.673	230.324
635.725	245.197
635.776	239.409
635.828	237.633
635.88	241.138
635.932	239.146
635.983	234.975
636.035	231.779
636.087	246.055
636.139	250.292
636.19	246.127
636.242	252.663
636.294	242.77
636.345	253.688
636.397	257.204
636.449	257.023
636.501	266.969
636.552	268.11
636.604	265.868
636.656	259.219
636.708	264.116
636.759	268.985
636.811	270.325
636.863	271.566
636.914	274.151
636.966	276.224
637.018	263.697
637.07	275.39
637.121	284.903
637.173	283.152
637.225	287.89
637.276	278.567
637.328	276.83
637.38	290.542
637.432	276.724
637.483	278.242
637.535	294.451
637.587	298.128
637.638	296.984
637.69	286.562
637.742	293.319
637.794	301.284
637.845	294.427
637.897	282.037
637.949	297.084
638	294.354
638.052	292.487
638.104	290.104
638.156	294.721
638.207	299.749
638.259	290.067
638.311	295.184
638.362	299.795
638.414	290.52
638.466	288.466
638.517	292.84
638.569	295.958
638.621	289.075
638.673	278.21
638.724	285.701
638.776	282.72
638.828	285.96
638.879	281.656
638.931	285.189
638.983	271.226
639.034	276.281
639.086	267.471
639.138	261.111
639.19	264.476
639.241	284.958
639.293	271.87
639.345	267.159
639.396	277.535
639.448	264.244
639.5	258.836
639.551	276.241
639.603	269.488
639.655	269.121
639.706	258.481
639.758	267.843
639.81	266.726
639.862	267.088
639.913	266.554
639.965	266.071
640.017	265.396
640.068	274.248
640.12	253.692
640.172	261.951
640.223	259.192
640.275	269.876
640.327	252.956
640.378	258.865
640.43	257.768
640.482	269.044
640.533	251.728
640.585	266.872
640.637	254.123
640.688	249.473
640.74	242.138
640.792	247.14
640.844	249.485
640.895	256.605
640.947	261.304
640.999	252.8
641.05	248.046
641.102	250.658
641.154	250.799
641.205	256.052
641.257	261.385
641.309	259.024
641.36	251.667
641.412	259.341
641.464	256.869
641.515	250.655
641.567	257.668
641.619	263.381
641.67	259.454
641.722	253.71
641.774	244.107
641.825	250.088
641.877	250.556
641.929	253.587
641.98	251.257
642.032	254.927
642.084	255.301
642.135	249.372
642.187	249.626
642.239	257.062
642.29	260.286
642.342	245.66
642.394	250.144
642.445	266.126
642.497	260.352
642.549	254.684
642.6	253.788
642.652	262.925
642.704	252.206
642.755	253.472
642.807	245.79
642.859	258.328
642.91	257.443
642.962	240.749
643.013	249.605
643.065	248.065
643.117	259.743
643.168	250.957
643.22	253.906
643.272	255.322
643.323	256.078
643.375	250.102
643.427	262.943
643.478	265.527
643.53	248.085
643.582	254.257
643.633	250.754
643.685	254.584
643.737	258.367
643.788	257.759
643.84	265.167
643.891	257.467
643.898	255.576
643.949	260.088
644.001	249.891
644.053	261.578
644.105	258.336
644.156	254.242
644.208	249.873
644.26	257.957
644.312	259.955
644.363	253.041
644.415	256.911
644.467	266.133
644.519	257.263
644.57	263.395
644.622	261.127
644.674	261.493
644.726	257.871
644.777	263.28
644.829	258.686
644.881	263.63
644.932	258.479
644.984	258.46
645.036	262.274
645.088	267.53
645.139	258.9
645.191	254.944
645.243	257.338
645.295	268.823
645.346	264.175
645.398	260.098
645.45	259.792
645.502	262.545
645.553	261.579
645.605	271.177
645.657	261.644
645.708	265.205
645.76	268.243
645.812	268.474
645.864	260.926
645.915	273.726
645.967	262.454
646.019	262.748
646.071	270.432
646.122	261.964
646.174	268.962
646.226	263.522
646.277	261.831
646.329	270.453
646.381	263.618
646.433	258.824
646.484	261.613
646.536	271.471
646.588	262.078
646.639	271.528
646.691	263.232
646.743	266.671
646.795	267.359
646.846	254.153
646.898	271.785
646.95	264.11
647.001	258.234
647.053	267.49
647.105	262.387
647.157	268.645
647.208	268.643
647.26	265.065
647.312	273.918
647.363	270.977
647.415	263.012
647.467	267.328
647.519	261.816
647.57	268.799
647.622	264.582
647.674	273.658
647.725	278.863
647.777	267.154
647.829	270.094
647.881	263.676
647.932	274.097
647.984	273.366
648.036	272.605
648.087	272.328
648.139	273.022
648.191	284.308
648.242	271.595
648.294	272.185
648.346	269.006
648.398	276.6
648.449	277.38
648.501	265.339
648.553	285.872
648.604	284.423
648.656	270.767
648.708	265.48
648.759	274.046
648.811	269.081
648.863	278.108
648.914	275.904
648.966	274.187
649.018	277.431
649.07	287.951
649.121	275.185
649.173	281.339
649.225	277.591
649.276	282.868
649.328	274.614
649.38	295.371
649.431	285.901
649.483	273.819
649.535	286.161
649.586	284.791
649.638	269.816
649.69	283.455
649.742	290.924
649.793	287.3
649.845	282.638
649.897	277.203
649.948	279.366
650	281.138
650.052	295.164
650.103	268.732
650.155	287.629
650.207	283.104
650.258	285.957
650.31	291.301
650.362	281.044
650.413	286.29
650.465	288.533
650.517	273.856
650.568	285.694
650.62	280.616
650.672	275.005
650.723	281.282
650.775	285.793
650.827	275.054
650.878	284.317
650.93	281.626
650.982	282.484
651.034	294.053
651.085	286.309
651.137	295.949
651.189	285.716
651.24	298.341
651.292	275.511
651.344	279.387
651.395	287.001
651.447	291.758
651.499	295.289
651.55	288.458
651.602	304.428
651.654	297.833
651.705	279.521
651.757	291.594
651.809	295.266
651.86	299.019
651.912	280.33
651.964	296.585
652.015	286.765
652.067	299.29
652.118	285.859
652.17	297.078
652.222	303.429
652.273	296.157
652.325	301.622
652.377	296.933
652.428	304.665
652.48	296.427
652.532	291.318
652.583	309.138
652.635	308.327
652.687	299.726
652.738	297.629
652.79	301.156
652.842	305.252
652.893	308.535
652.945	293.573
652.997	300.036
653.048	309.283
653.1	296.836
653.152	294.311
653.203	300.084
653.255	295.196
653.307	300.352
653.358	306.926
653.41	306.372
653.461	313.463
653.513	296.789
653.565	299.525
653.616	302.14
653.668	312.944
653.72	305.777
653.771	309.873
653.823	308.245
653.875	318.009
653.926	304.906
653.978	304.292
654.029	297.24
654.081	311.21
654.133	311.431
654.184	310.202
654.236	313.514
654.288	309.755
654.339	312.324
654.391	308.072
654.443	316.098
654.494	314.516
654.546	317.974
654.597	306.921
654.649	309.444
654.701	317.092
654.752	324.944
654.804	323.311
654.856	316.697
654.907	320.805
654.959	307.389
655.01	304.291
655.062	320.969
655.114	316.59
655.165	321.071
655.217	327.635
655.269	325.125
655.32	321.868
655.372	323.83
655.424	327.517
655.475	325.822
655.527	326.667
655.578	329.892
655.63	324.399
655.682	328.667
655.733	326.507
655.785	325.686
655.836	321.389
655.888	330.395
655.94	333.389
655.991	328.326
656.043	333.114
656.095	338.551
656.146	329.794
656.198	327.833
656.249	323.224
656.301	336.202
656.353	334.572
656.404	335.832
656.456	337.819
656.508	337.592
656.559	330.327
656.611	335.291
656.662	338.389
656.714	340.812
656.766	336.621
656.817	341.863
656.869	335.877
656.92	337.319
656.972	331.87
657.024	338.262
657.075	340.211
657.127	353.833
657.178	343.607
657.23	341.461
657.282	340.47
657.333	341.59
657.385	340.108
657.436	342.645
657.488	347.706
657.54	343.705
657.591	346.953
657.643	355.458
657.694	346.92
657.746	335.475
657.798	335.835
657.849	340.123
657.901	347.366
657.952	350.222
658.004	351.369
658.056	346.76
658.107	350.275
658.159	352.363
658.21	348.486
658.262	346.134
658.314	351.686
658.365	355.436
658.417	354.459
658.468	353.47
658.52	361.781
658.571	358.62
658.623	344.463
658.675	352.724
658.726	351.216
658.778	355.146
658.829	357.815
658.881	357.883
658.933	352.04
658.984	356.507
659.036	360.896
659.087	357.058
659.139	355.972
659.19	352.289
659.242	348.831
659.294	348.271
659.345	347.072
659.397	363.942
659.448	341.903
659.5	356.021
659.552	348.985
659.603	353.073
659.655	362.296
659.706	357.944
659.758	354.079
659.809	353.464
659.861	341.773
659.913	340.329
659.964	345.459
660.016	352.758
660.067	363.738
660.119	357.531
660.17	360.476
660.222	355.751
660.274	362.066
660.325	345.614
660.377	339.067
660.428	348.444
660.48	351.175
660.531	352.038
660.583	357.499
660.635	356.151
660.686	353.259
660.738	360.27
660.789	356.094
660.841	352.448
660.892	358.472
660.944	356.226
660.995	352.722
661.047	349.697
661.099	354.173
661.15	349.734
661.202	353.814
661.253	351.831
661.305	367.344
661.356	355.804
661.408	362.22
661.46	347.117
661.511	347.893
661.532	352.785
661.583	345.356
661.635	351.862
661.687	350.401
661.738	353.467
661.79	345.818
661.842	346.825
661.893	347.651
661.945	346.089
661.997	348.775
662.048	354.03
662.1	346.078
662.151	359.64
662.203	352.567
662.255	354.06
662.306	348.761
662.358	357.089
662.41	356.953
662.461	359.644
662.513	354.105
662.565	344.365
662.616	360.949
662.668	350.119
662.72	362.611
662.771	355.563
662.823	362.926
662.875	352.148
662.926	361.272
662.978	359.796
663.03	340.977
663.081	356.968
663.133	362.235
663.184	359.582
663.236	352.988
663.288	364.254
663.339	349.225
663.391	353.871
663.443	351.83
663.494	357.589
663.546	357.629
663.598	358.436
663.649	363.638
663.701	357.172
663.752	347.173
663.804	346.255
663.856	350.235
663.907	343.854
663.959	359.39
664.011	343.774
664.062	348.838
664.114	358.058
664.166	342.427
664.217	347.371
664.269	354.972
664.32	352.251
664.372	356.594
664.424	354.413
664.475	367.581
664.527	356.48
664.579	345.44
664.63	350.957
664.682	342.096
664.733	352.239
664.785	363.836
664.837	361.011
664.888	360.056
664.94	353.227
664.992	356.222
665.043	351.674
665.095	358.561
665.146	354.416
665.198	354.606
665.25	351.717
665.301	356.262
665.353	360.379
665.405	356.672
665.456	362.691
665.508	357.517
665.559	364.189
665.611	349.638
665.663	353.775
665.714	361.229
665.766	357.375
665.817	343.858
665.869	355.047
665.921	365.089
665.972	357.262
666.024	349.73
666.076	350.318
666.127	355.064
666.179	357.257
666.23	361.714
666.282	352.593
666.334	332.386
666.385	353.68
666.437	360.877
666.488	360.783
666.54	342.088
666.592	351.035
666.643	354.319
666.695	344.644
666.746	354.355
666.798	356.828
666.85	363.516
666.901	352.161
666.953	347.056
667.004	354.804
667.056	336.719
667.108	347.378
667.159	360.326
667.211	351.91
667.262	343.983
667.314	348.526
667.366	350.252
667.417	358.848
667.469	353.705
667.52	360.6
667.572	360.935
667.624	354.866
667.675	348.716
667.727	348.635
667.778	345.977
667.83	355.992
667.882	355.393
667.933	351.393
667.985	359.341
668.036	353.613
668.088	353.03
668.14	345.197
668.191	352.095
668.243	352.564
668.294	358.725
668.346	353.655
668.397	356.494
668.449	361.956
668.501	352.433
668.552	349.92
668.604	358.184
668.655	356.438
668.707	352.998
668.759	356.436
668.81	348.01
668.862	355.758
668.913	351.807
668.965	341.166
669.016	360.282
669.068	360.974
669.12	361.513
669.171	361.728
669.223	367.817
669.274	344.797
669.326	372.491
669.377	366.494
669.429	371.561
669.481	361.613
669.532	346.659
669.584	343.06
669.635	365.096
669.687	355.605
669.738	352.31
669.79	361.206
669.842	346.866
669.893	367.947
669.945	351.996
669.996	344.362
670.048	352.9
670.099	349.531
670.151	353.866
670.203	349.891
670.254	360.898
670.306	352.589
670.357	346.437
670.409	359.584
670.46	355.529
670.512	351.793
670.564	350.574
670.615	353.526
670.667	351.046
670.718	349.392
670.77	353.389
670.821	343.601
670.873	345.249
670.924	346.404
670.976	353.007
671.028	361.675
671.079	362.047
671.131	358.241
671.182	360.91
671.234	350.686
671.285	352.362
671.337	359.106
671.388	353.212
671.44	355.581
671.492	364.117
671.543	355.916
671.595	354.333
671.646	357.931
671.698	356.127
671.749	350.32
671.801	349.045
671.852	344.741
671.904	342.176
671.956	343.939
672.007	355.303
672.059	359.796
672.11	352.687
672.162	363.805
672.213	364.219
672.265	353.287
672.316	351.326
672.368	367.412
672.419	361.393
672.471	360.68
672.522	361.639
672.574	359.457
672.626	355.188
672.677	357.126
672.729	358.328
672.78	360.775
672.832	362.206
672.883	358.545
672.935	368.415
672.986	355.442
673.038	363.416
673.089	360.842
673.141	358.582
673.192	354.621
673.244	354.237
673.296	364.015
673.347	368.536
673.399	349.731
673.45	364.665
673.502	370.288
673.553	353.479
673.605	360.437
673.656	372.853
673.708	353.668
673.759	351.329
673.811	358.645
673.862	372.442
673.914	368.514
673.965	364.504
674.017	363.516
674.068	364.49
674.12	364.781
674.171	364.571
674.223	364.59
674.275	369.101
674.326	365.467
674.378	363.212
674.429	369.422
674.481	370.302
674.532	364.461
674.584	360.58
674.635	370.228
674.687	367.478
674.738	367.697
674.79	365.073
674.841	359.511
674.893	373.233
674.944	369.237
674.996	366.34
675.047	359.188
675.099	365.751
675.15	369.285
675.202	366.728
675.253	363.145
675.305	370.944
675.356	370.568
675.408	372.423
675.459	372.161
675.511	369.241
675.562	366.291
675.614	376.602
675.665	381.866
675.717	382.937
675.768	378.253
675.82	380.005
675.871	367.35
675.923	367.939
675.974	376.473
676.026	379.578
676.077	375.31
676.129	380.342
676.18	382.583
676.232	374.626
676.283	379.486
676.335	374.944
676.386	385.668
676.438	377.917
676.489	369.809
676.541	376.713
676.592	384.88
676.644	374.949
676.695	382.841
676.747	371.467
676.798	372.445
676.85	368.14
676.901	374.231
676.953	377.086
677.004	369.81
677.056	380.248
677.107	369.814
677.159	378.551
677.21	376.004
677.262	386.463
677.313	373.33
677.365	380.494
677.416	381.467
677.468	371.817
677.519	380.662
677.571	385.607
677.622	381.677
677.674	372.199
677.725	379.861
677.777	375.082
677.828	371.014
677.88	375.258
677.931	382.728
677.982	386.066
678.034	380.147
678.085	379.416
678.137	372.293
678.188	378.846
678.24	374.012
678.291	371.759
678.343	376.058
678.394	371.241
678.446	378.103
678.497	383.348
678.549	370.127
678.6	376.341
678.652	377.81
678.703	371.289
678.755	364.755
678.806	367.125
678.857	367.794
678.909	381.7
678.96	373.358
679.012	376.344
679.063	375.484
679.083	373.896
679.135	369.214
679.186	395.133
679.238	369.747
679.289	371.654
679.341	373.287
679.392	368.106
679.444	374.593
679.496	382.601
679.547	381.342
679.599	378.596
679.65	369.464
679.702	381.613
679.753	371.697
679.805	378.178
679.857	386.6
679.908	381.924
679.96	384.089
680.011	384.103
680.063	372.313
680.114	375.301
680.166	381.838
680.217	383.213
680.269	366.881
680.321	381.794
680.372	370.292
680.424	381.273
680.475	386.889
680.527	366.979
680.578	370.937
680.63	378.518
680.682	380.968
680.733	382.196
680.785	389.044
680.836	375.505
680.888	371.108
680.939	366.769
680.991	382.578
681.042	376.657
681.094	385.722
681.146	389.882
681.197	383.453
681.249	379.029
681.3	377.653
681.352	380.959
681.403	390.225
681.455	379.64
681.506	390.553
681.558	386.285
681.609	381.101
681.661	383.758
681.712	378.304
681.764	393.05
681.816	378.446
681.867	379.65
681.919	377.068
681.97	390.51
682.022	399.282
682.073	389.289
682.125	374.274
682.176	388.961
682.228	386.004
682.279	382.192
682.331	389.037
682.383	379.26
682.434	390.377
682.486	383.039
682.537	378.281
682.589	383.913
682.64	391.64
682.692	381.575
682.743	392.055
682.795	378.603
682.846	370.912
682.898	385.787
682.949	384.283
683.001	371.194
683.052	387.606
683.104	385.882
683.156	387.987
683.207	394.075
683.259	379.426
683.31	382.956
683.362	378.695
683.413	387.416
683.465	390.427
683.516	394.41
683.568	382.227
683.619	382.415
683.671	382.766
683.722	388.736
683.774	389.409
683.825	383.304
683.877	398.478
683.928	379.774
683.98	395.967
684.031	393.79
684.083	375.691
684.134	386.226
684.186	370.506
684.237	374.152
684.289	378.975
684.341	378.471
684.392	380.283
684.444	387.556
684.495	389.641
684.547	381.116
684.598	380.702
684.65	380.515
684.701	392.859
684.753	386.221
684.804	385.925
684.856	383.11
684.907	375.09
684.959	368.98
685.01	387.763
685.062	379.546
685.113	386.871
685.165	374.09
685.216	376.904
685.268	375.671
685.319	373.572
685.371	372.962
685.422	390.456
685.474	372.407
685.525	383.646
685.577	384.442
685.628	385.57
685.68	384.678
685.731	372.381
685.783	377.121
685.834	377.371
685.886	369.406
685.937	361.649
685.989	378.681
686.04	381.115
686.092	368.526
686.143	379.625
686.195	370.469
686.246	381.543
686.298	386.316
686.349	372.954
686.401	380.992
686.452	371.302
686.504	369.467
686.555	376.12
686.607	371.389
686.658	383.873
686.71	379.071
686.761	373.219
686.813	380.316
686.864	375.887
686.916	375.976
686.967	383.295
687.018	379.56
687.07	372.389
687.121	373.044
687.173	384.025
687.224	378.277
687.276	365.706
687.327	386.136
687.379	378.633
687.43	378.057
687.482	374.439
687.533	372.679
687.585	372.682
687.636	391.378
687.688	368.362
687.739	384.263
687.791	365.846
687.842	380.891
687.894	381.464
687.945	381.698
687.997	378.945
688.048	362.472
688.1	369.716
688.151	373.438
688.203	375.855
688.254	353.699
688.305	365.722
688.357	367.915
688.408	369.398
688.46	382.404
688.511	370.139
688.563	367.223
688.614	369.514
688.666	369.339
688.717	379.404
688.769	370.492
688.82	384.148
688.872	380.688
688.923	376.974
688.974	380.917
689.026	365.373
689.077	369.922
689.129	366.635
689.18	365.904
689.232	353.296
689.283	374.634
689.335	372.243
689.386	372.659
689.438	360.268
689.489	369.569
689.541	371.109
689.592	362.449
689.643	360.78
689.695	365.333
689.746	375.009
689.798	362.173
689.849	362.594
689.901	357.47
689.952	372.632
690.004	363.724
690.055	360.262
690.107	359.8
690.158	367.666
690.209	378.949
690.261	366.265
690.312	364.503
690.364	374.433
690.415	370.868
690.467	363.279
690.518	374.195
690.57	370.629
690.621	376.43
690.672	374.828
690.724	377.105
690.775	364.743
690.827	367.697
690.878	363.744
690.93	356.259
690.981	364.08
691.033	369.638
691.084	371.147
691.135	350.916
691.187	360.482
691.238	358.776
691.29	357.195
691.341	357.531
691.393	370.079
691.444	375.406
691.495	360.028
691.547	358.887
691.598	381.22
691.65	367.825
691.701	362.25
691.753	368.856
691.804	355.564
691.856	364.45
691.907	358.431
691.958	366.641
692.01	365.341
692.061	355.434
692.113	360.49
692.164	365.746
692.216	361.237
692.267	363.804
692.318	361.614
692.37	367.824
692.421	373.12
692.473	361.259
692.524	371.358
692.576	375.643
692.627	366.74
692.678	364.264
692.73	364.673
692.781	357.056
692.833	360.859
692.884	360.005
692.935	359.918
692.987	351.453
693.038	364.511
693.09	356.839
693.141	361.325
693.193	367.798
693.244	357.104
693.295	342.766
693.347	351.022
693.398	357.205
693.45	354.633
693.501	358.705
693.552	361.682
693.604	355.501
693.655	350.508
693.707	352.448
693.758	355.849
693.809	358.676
693.861	361.222
693.912	349.694
693.964	359.064
694.015	350.934
694.066	353.499
694.118	351.379
694.169	357.073
694.221	355.774
694.272	352.82
694.323	357.666
694.375	358.154
694.426	357.385
694.478	345.63
694.529	348.365
694.581	354.377
694.632	365.756
694.683	358.221
694.735	350.333
694.786	359.46
694.837	365.746
694.889	365.95
694.94	354.591
694.992	347.688
695.043	356.557
695.094	353.316
695.146	352.799
695.197	355.563
695.249	357.064
695.3	354.561
695.351	348.589
695.403	344.232
695.454	346.561
695.506	351.68
695.557	348.64
695.608	351.658
695.66	361.067
695.711	358.871
695.763	355.001
695.814	353.294
695.865	358.743
695.917	358.95
695.968	352.435
696.019	348.612
696.071	359.091
696.122	356.375
696.174	350.075
696.225	333.727
696.276	340.589
696.328	344.384
696.379	354.167
696.43	355.76
696.482	356.292
696.533	343.556
696.585	345.735
696.636	349.671
696.687	353.52
696.707	352.357
696.759	349.899
696.81	338.335
696.862	361.645
696.913	356.623
696.965	335.141
697.016	345.014
697.068	352.472
697.119	359.431
697.171	340.146
697.222	349.018
697.274	352.772
697.325	346.635
697.377	348.747
697.428	350.925
697.479	347.678
697.531	346.254
697.582	345.878
697.634	345.672
697.685	349.585
697.737	335.762
697.788	338.248
697.84	344.679
697.891	335.372
697.943	335.968
697.994	341.773
698.046	341.495
698.097	341.025
698.149	336.313
698.2	344.737
698.252	346.968
698.303	350.008
698.354	342.871
698.406	334.083
698.457	337.481
698.509	346.008
698.56	349.323
698.612	340.974
698.663	342.823
698.715	340.791
698.766	330.421
698.818	344.627
698.869	351.266
698.921	344.417
698.972	326.998
699.023	331.453
699.075	339.497
699.126	351.111
699.178	347.278
699.229	333.086
699.281	337.096
699.332	336.774
699.384	327.35
699.435	328.989
699.487	333.48
699.538	336.186
699.589	332.24
699.641	343.228
699.692	335.97
699.744	332.958
699.795	328.505
699.847	329.59
699.898	338.977
699.95	338.802
700.001	324.469
700.052	324.317
700.104	335.87
700.155	330.448
700.207	335.683
700.258	338.219
700.31	337.364
700.361	344.712
700.413	335.256
700.464	344.035
700.515	334.779
700.567	334.2
700.618	336.534
700.67	332.395
700.721	330.146
700.773	326.755
700.824	324.858
700.875	336.108
700.927	343.442
700.978	334.843
701.03	345.24
701.081	345.552
701.133	341.104
701.184	340.244
701.235	329.494
701.287	333.654
701.338	330.718
701.39	329.452
701.441	329.558
701.493	329.939
701.544	339.327
701.596	337.879
701.647	325.062
701.698	324.367
701.75	328.489
701.801	334.507
701.853	328.666
701.904	326.401
701.956	344.056
702.007	337.952
702.058	328.671
702.11	332.443
702.161	328.365
702.213	327.922
702.264	323.603
702.315	330.467
702.367	337.48
702.418	334.584
702.47	329.514
702.521	328.933
702.573	340.043
702.624	343.105
702.675	338.445
702.727	323.276
702.778	319.495
702.83	327.051
702.881	328.891
702.932	333.193
702.984	338.599
703.035	333.556
703.087	331.411
703.138	336.981
703.19	340.233
703.241	338.19
703.292	326.187
703.344	334.238
703.395	344.032
703.447	337.262
703.498	328.616
703.549	328.42
703.601	331.2
703.652	331.35
703.704	321.856
703.755	328.808
703.806	328.758
703.858	328.969
703.909	330.17
703.961	333.085
704.012	327.493
704.063	327.281
704.115	333.157
704.166	339.2
704.218	339.847
704.269	332.953
704.32	334.937
704.372	334.118
704.423	330.695
704.475	332.662
704.526	326.352
704.577	321.308
704.629	321.959
704.68	321.68
704.732	326.73
704.783	335.52
704.834	326.155
704.886	326.102
704.937	324.518
704.988	328.913
705.04	330.868
705.091	327.838
705.143	329.332
705.194	324.497
705.245	325.22
705.297	327.622
705.348	315.69
705.4	323.588
705.451	325.654
705.502	320.405
705.554	324.47
705.605	334.925
705.656	319.921
705.708	318.222
705.759	325.993
705.811	330.496
705.862	324.901
705.913	327.003
705.965	332.595
706.016	324.093
706.068	323.821
706.119	321.119
706.17	320.917
706.222	319.698
706.273	321.532
706.324	314.529
706.376	316.605
706.427	322.498
706.479	314.72
706.53	310.312
706.581	322.594
706.633	323.25
706.684	320.079
706.735	316.086
706.787	318.529
706.838	318.863
706.889	320.967
706.941	304.488
706.992	307.162
707.044	318.025
707.095	317.296
707.146	303.445
707.198	308.297
707.249	315.34
707.3	320.136
707.352	314.775
707.403	315.949
707.454	305.581
707.506	309.685
707.557	309.123
707.609	319.953
707.66	323.445
707.711	314.165
707.763	312.314
707.814	305.643
707.865	322.509
707.917	310.478
707.968	295.682
708.019	315.494
708.071	315.909
708.122	305.742
708.173	306.975
708.225	308.317
708.276	308.81
708.328	312.334
708.379	296.138
708.43	306.913
708.482	315.267
708.533	300.474
708.584	304.499
708.636	314.865
708.687	314.15
708.738	302.734
708.79	312.993
708.841	304.935
708.892	305.501
708.944	305.705
708.995	304.758
709.046	315.9
709.098	319.978
709.149	308.849
709.2	306.079
709.252	311.508
709.303	309.289
709.354	303.355
709.406	313.425
709.457	313.812
709.508	313.309
709.56	308.188
709.611	315.449
709.662	306.532
709.714	305.346
709.765	309.203
709.816	309.47
709.868	307.104
709.919	306.166
709.97	303.869
710.022	300.766
710.073	305.464
710.124	307.854
710.176	309.938
710.227	301.404
710.278	299.314
710.33	301.153
710.381	302.242
710.432	304.682
710.484	302.042
710.535	308.016
710.586	303.707
710.638	308.742
710.689	307.762
710.74	310.28
710.792	305.16
710.843	306.526
710.894	299.507
710.946	302.521
710.997	303.159
711.048	309.036
711.1	312.647
711.151	306.53
711.202	298.652
711.254	308.688
711.305	295.807
711.356	305.892
711.407	303.923
711.459	305.335
711.51	306.779
711.561	310.943
711.613	306.049
711.664	303.405
711.715	305.73
711.767	292.301
711.818	302.052
711.869	302.008
711.921	294.174
711.972	297.76
712.023	291.788
712.075	304.448
712.126	304.628
712.177	288.165
712.228	300.553
712.28	307.363
712.331	292.423
712.382	304.583
712.434	290.988
712.485	295.347
712.536	298.984
712.588	300.253
712.639	292.875
712.69	289.583
712.741	297.986
712.793	293.192
712.844	287.003
712.895	300.512
712.947	300.682
712.998	299.065
713.049	292.03
713.101	294.553
713.152	287.843
713.203	283.767
713.254	296.178
713.306	291.847
713.357	296.892
713.408	284.55
713.46	280.52
713.511	281.749
713.562	285.844
713.613	287.854
713.665	281.28
713.716	290.051
713.767	294.443
713.819	285.001
713.87	283.937
713.921	288.003
713.972	287.033
714.024	280.665
714.075	285.199
714.126	282.799
714.178	283.317
714.18	283.464
714.231	283.242
714.283	285.126
714.334	292.753
714.385	291.25
714.437	285.866
714.488	282.262
714.539	283.152
714.591	290.419
714.642	293.15
714.694	281.851
714.745	280.688
714.796	285.194
714.848	282.081
714.899	294.23
714.951	282.367
715.002	282.749
715.053	281.641
715.105	285.393
715.156	284.275
715.207	289.878
715.259	286.04
715.31	287.498
715.362	282.706
715.413	280.055
715.464	284.227
715.516	277.038
715.567	271.46
715.618	265.005
715.67	268.376
715.721	278.426
715.773	282.57
715.824	277.16
715.875	284.165
715.927	280.191
715.978	278.364
716.029	275.382
716.081	279.161
716.132	272.468
716.184	281.827
716.235	286.202
716.286	274.118
716.338	277.93
716.389	281.597
716.44	271.963
716.492	275.673
716.543	275.884
716.594	270.147
716.646	278.171
716.697	275.609
716.749	272.055
716.8	273.324
716.851	276.034
716.903	285.552
716.954	276.309
717.005	282.839
717.057	271.598
717.108	274.946
717.159	275.086
717.211	273.41
717.262	274.81
717.314	266.643
717.365	277.878
717.416	274.714
717.468	268.061
717.519	267.562
717.57	270.724
717.622	263.848
717.673	276.665
717.724	280.315
717.776	276.811
717.827	279.637
717.878	278.777
717.93	274.634
717.981	275.869
718.032	275.029
718.084	276.273
718.135	274.545
718.187	269.684
718.238	267.956
718.289	275.076
718.341	270.591
718.392	267.249
718.443	269.831
718.495	276.694
718.546	277.471
718.597	274.188
718.649	270.604
718.7	269.304
718.751	278.028
718.803	270.433
718.854	270.653
718.905	270.434
718.957	260.694
719.008	266.96
719.059	269.161
719.111	273.688
719.162	268.118
719.213	268.927
719.265	275.578
719.316	267.155
719.367	264.718
719.419	268.423
719.47	263.776
719.521	266.301
719.573	270.551
719.624	267.816
719.675	264.49
719.727	265.687
719.778	264.333
719.829	267.783
719.881	264.798
719.932	262.716
719.983	262.36
720.035	265.164
720.086	262.943
720.137	266.226
720.189	263.508
720.24	266.39
720.291	269.201
720.343	266.846
720.394	266.649
720.445	263.482
720.496	266.463
720.548	263.225
720.599	260.291
720.65	258.04
720.702	257.872
720.753	262.554
720.804	262.392
720.856	251.89
720.907	257.558
720.958	259.023
721.01	258.656
721.061	266.059
721.112	264.896
721.164	265.007
721.215	266.692
721.266	255.228
721.318	256.737
721.369	263.302
721.42	259.105
721.471	258.801
721.523	262.531
721.574	267.218
721.625	266.303
721.677	262.772
721.728	264.996
721.779	255.595
721.831	255.452
721.882	258.402
721.933	252.021
721.984	264.445
722.036	270.298
722.087	248.443
722.138	256.951
722.19	258.251
722.241	259.419
722.292	249.977
722.344	255.496
722.395	262.127
722.446	261.803
722.497	252.186
722.549	243.363
722.6	244.88
722.651	255.735
722.703	254.001
722.754	246.395
722.805	262.815
722.857	260.952
722.908	254.207
722.959	251.472
723.01	253.183
723.062	248.227
723.113	250.806
723.164	258.425
723.216	254.609
723.267	254.218
723.318	253.945
723.369	256.46
723.421	252.991
723.472	254.043
723.523	252.545
723.575	247.534
723.626	251.532
723.677	259.329
723.728	254.588
723.78	238.447
723.831	243.603
723.882	253.642
723.934	257.011
723.985	249.511
724.036	245.246
724.087	254.181
724.139	246.972
724.19	256.032
724.241	255.375
724.292	255.818
724.344	254.994
724.395	247.946
724.446	247.534
724.498	260.493
724.549	250.645
724.6	246.735
724.651	243.312
724.703	243.161
724.754	244.008
724.805	237.918
724.856	247.52
724.908	250.671
724.959	253.539
725.01	250.325
725.062	253.559
725.113	247.16
725.164	253.031
725.215	254.4
725.267	254.154
725.318	255.367
725.369	251.955
725.42	243.55
725.472	245.745
725.523	248.575
725.574	243.292
725.625	238.262
725.677	246.367
725.728	257.144
725.779	241.147
725.83	251.192
725.882	248.655
725.933	249.656
725.984	243.554
726.036	249.013
726.087	250.901
726.138	252.354
726.189	249.554
726.241	250.512
726.292	248.214
726.343	250.468
726.394	239.194
726.445	244.046
726.497	247.098
726.548	249.629
726.599	245.173
726.651	250.557
726.702	247.424
726.753	245.993
726.804	248.262
726.855	242.172
726.907	257.229
726.958	254.418
727.009	236.101
727.06	249.32
727.112	249.336
727.163	239.628
727.214	248.547
727.265	250.526
727.317	241.214
727.368	243.793
727.419	249.771
727.47	246.13
727.522	249.087
727.573	247.632
727.624	253.266
727.675	242.349
727.727	245.366
727.778	242.17
727.829	238.671
727.88	235.017
727.932	238.376
727.983	244.799
728.034	242.249
728.085	235.331
728.136	239.077
728.188	224.169
728.239	241.144
728.29	245.671
728.341	238.944
728.393	239.252
728.444	242.361
728.495	237.594
728.546	237.836
728.597	237.387
728.649	248.582
728.7	244.176
728.751	235.791
728.802	232.608
728.854	233.813
728.905	248.156
728.956	241.84
729.007	231.701
729.058	240.963
729.11	244.571
729.161	233.985
729.212	233.728
729.263	236.28
729.315	245.429
729.366	237.348
729.417	235.653
729.468	237.621
729.519	249.557
729.571	242.185
729.622	229.549
729.673	238.719
729.724	231.861
729.775	235.651
729.827	230.642
729.878	238.249
729.929	240.859
729.98	233.537
730.031	233.434
730.083	235.582
730.134	248.845
730.185	239.853
730.236	233.519
730.288	228.205
730.339	238.881
730.39	234.949
730.441	235.727
730.492	220.341
730.544	222.689
730.595	237.489
730.646	222.093
730.697	230.042
730.748	233.34
730.8	229.809
730.851	220.171
730.902	234.354
730.953	237.234
731.004	239.996
731.056	236.102
731.107	223.711
731.158	231.449
731.209	235.4
731.26	224.014
731.312	226.047
731.363	234.183
731.414	232.811
731.465	232.341
731.516	234.443
731.567	228.976
731.619	224
731.622	223.653
731.673	222.898
731.725	233.447
731.776	238.631
731.827	239.641
731.878	236.228
731.93	233.723
731.981	234.978
732.032	225.421
732.084	224.536
732.135	230.732
732.186	239.386
732.237	232.509
732.289	231.41
732.34	230.117
732.391	231.968
732.443	232.038
732.494	225.335
732.545	233.788
732.597	236.128
732.648	229.827
732.699	235.594
732.75	225.218
732.802	238.935
732.853	227.61
732.904	228.83
732.956	224.368
733.007	239.949
733.058	230.511
733.109	229.238
733.161	235.489
733.212	239.605
733.263	235.891
733.315	237.339
733.366	229.358
733.417	232.406
733.468	231.39
733.52	235.287
733.571	236.088
733.622	235.992
733.673	241.644
733.725	227.486
733.776	241.509
733.827	238.965
733.879	240.694
733.93	241.185
733.981	235.28
734.032	237.9
734.084	233.943
734.135	224.183
734.186	235.119
734.237	239.01
734.289	229.25
734.34	240.315
734.391	244.113
734.443	239.12
734.494	238.695
734.545	243.75
734.596	250.961
734.648	242.991
734.699	236.837
734.75	240.333
734.801	249.255
734.853	247.325
734.904	247.646
734.955	243.011
735.006	233.783
735.058	246.708
735.109	250.502
735.16	253.56
735.211	250.388
735.263	255.128
735.314	245.332
735.365	252.079
735.417	253.608
735.468	247.69
735.519	247.152
735.57	256.597
735.622	255.847
735.673	253.239
735.724	267.829
735.775	267.41
735.827	253.413
735.878	254.008
735.929	255.401
735.98	275.684
736.032	271.882
736.083	278.407
736.134	263.744
736.185	265.302
736.237	271.477
736.288	270.592
736.339	269.642
736.39	270.25
736.442	273.789
736.493	272.338
736.544	273.126
736.595	276.452
736.646	273.213
736.698	285.455
736.749	283.91
736.8	277.675
736.851	284.378
736.903	283.636
736.954	292.68
737.005	290.576
737.056	292.717
737.108	294.845
737.159	299.534
737.21	309.603
737.261	294.416
737.313	296.147
737.364	296.361
737.415	303.209
737.466	300.674
737.518	292.901
737.569	308.948
737.62	303.683
737.671	313.172
737.722	319.789
737.774	313.345
737.825	312.581
737.876	312.153
737.927	313.19
737.979	315.205
738.03	318.216
738.081	321.977
738.132	322.703
738.183	320.977
738.235	320.915
738.286	328.675
738.337	323.699
738.388	313.8
738.44	324.506
738.491	322.174
738.542	322.8
738.593	320.807
738.644	317.556
738.696	318.684
738.747	313.835
738.798	310.464
738.849	307.819
738.901	309.956
738.952	300.529
739.003	301.721
739.054	310.488
739.105	309.86
739.157	307.28
739.208	300.726
739.259	302.615
739.31	296.659
739.361	296.04
739.413	296.586
739.464	293.935
739.515	287.994
739.566	286.082
739.617	295.205
739.669	288.457
739.72	291.32
739.771	284.183
739.822	279.752
739.874	279.389
739.925	282.753
739.976	276.045
740.027	277.24
740.078	281.037
740.13	274.506
740.181	268.655
740.232	266.348
740.283	264.819
740.334	264.796
740.385	266.159
740.437	266.645
740.488	266.614
740.539	263.559
740.59	261.018
740.641	260.399
740.693	263.609
740.744	256.795
740.795	254.295
740.846	250.703
740.897	251.546
740.949	256.784
741	248.375
741.051	244.688
741.102	247.692
741.153	240.571
741.205	240.782
741.256	243.358
741.307	236.032
741.358	233.84
741.409	235.624
741.461	242.326
741.512	234.774
741.563	236.601
741.614	238.83
741.665	240.422
741.716	243.276
741.768	235.051
741.819	229.196
741.87	232.612
741.921	233.293
741.972	221.757
742.024	231.953
742.075	232.895
742.126	228.729
742.177	228.1
742.228	223.207
742.279	229.652
742.331	229.221
742.382	227.425
742.433	223.133
742.484	225.601
742.535	216.793
742.586	219.357
742.638	220.532
742.689	215.794
742.74	217.446
742.791	216.786
742.842	210.609
742.893	217.884
742.945	218.805
742.996	215.273
743.047	210.162
743.098	206.657
743.149	217.369
743.201	208.672
743.252	208.914
743.303	217.902
743.354	220.266
743.405	217.531
743.456	213.374
743.507	215.654
743.559	210.779
743.61	206.657
743.661	205.71
743.712	208.116
743.763	211.595
743.814	212.476
743.866	210.964
743.917	209.444
743.968	202.233
744.019	202.54
744.07	211.405
744.121	212.15
744.172	207.732
744.224	201.74
744.275	203.627
744.326	206.927
744.377	208.898
744.428	202.866
744.479	209.554
744.531	208.869
744.582	199.045
744.633	193.4
744.684	198.509
744.735	207.071
744.786	201.725
744.837	198.817
744.889	200.025
744.94	199.074
744.991	202.35
745.042	204.479
745.093	202.683
745.144	206.589
745.195	203.118
745.247	200.73
745.298	202.318
745.349	208.853
745.4	207.651
745.451	197.122
745.502	196.92
745.553	199.325
745.605	197.588
745.656	191.902
745.707	192.919
745.758	196.928
745.809	197.596
745.86	193.304
745.911	190.996
745.962	196.725
746.014	192.659
746.065	185.005
746.116	190.666
746.167	196.447
746.218	195.472
746.269	189.325
746.32	194.645
746.372	192.76
746.423	190.852
746.474	187.199
746.525	192.735
746.576	195.28
746.627	191.889
746.678	194.055
746.729	190.005
746.78	187.483
746.832	184.869
746.883	188.978
746.934	188.823
746.985	189.922
747.036	188.322
747.087	194.44
747.138	192.752
747.189	189.355
747.241	188.15
747.292	191.913
747.343	192.573
747.394	193.11
747.445	184.381
747.496	187.37
747.547	189.739
747.598	186.091
747.649	183.954
747.701	183.784
747.752	185.605
747.803	189.887
747.854	181.577
747.905	188.426
747.956	190.26
748.007	185.261
748.058	183.12
748.109	187.494
748.161	190.577
748.212	194.272
748.263	193.325
748.314	189.173
748.365	185.649
748.416	189.399
748.467	184.327
748.518	182.58
748.569	186.465
748.62	186.889
748.672	183.252
748.723	182.399
748.774	182.585
748.825	183.65
748.876	184.193
748.927	187.191
748.978	193.027
749.029	178.419
749.08	182.859
749.131	188.861
749.173	194.877
749.224	182.475
749.275	187.686
749.326	180.137
749.378	185.457
749.429	182.346
749.48	191.292
749.531	177.988
749.582	185.614
749.634	177.422
749.685	180.986
749.736	179.592
749.787	187.783
749.838	187.206
749.89	181.258
749.941	189.923
749.992	181.292
750.043	177.459
750.094	175.602
750.146	173.322
750.197	180.262
750.248	176.926
750.299	182.838
750.35	179.47
750.401	182.103
750.453	177.959
750.504	176.369
750.555	173.921
750.606	179.392
750.657	172.783
750.709	173.818
750.76	175.933
750.811	177.118
750.862	177.331
750.913	168.99
750.964	175.599
751.016	179.029
751.067	174.762
751.118	179.518
751.169	178.612
751.22	177.502
751.272	184.019
751.323	174.842
751.374	185.766
751.425	178.271
751.476	181.688
751.528	174.921
751.579	178.121
751.63	181.593
751.681	175.756
751.732	177.063
751.783	175.745
751.835	184.615
751.886	177.094
751.937	172.972
751.988	175.798
752.039	173.671
752.09	179.759
752.142	174.407
752.193	176.584
752.244	186.052
752.295	174.406
752.346	172.277
752.397	172.87
752.449	171.558
752.5	169.806
752.551	169.013
752.602	175.584
752.653	165.423
752.704	178.353
752.756	165.608
752.807	172.269
752.858	176.937
752.909	170.137
752.96	172.435
753.011	171.79
753.063	175.218
753.114	180.948
753.165	171.566
753.216	178.453
753.267	170.772
753.318	170.878
753.37	167.407
753.421	166.007
753.472	159.993
753.523	172.345
753.574	176.425
753.625	173.056
753.676	163.042
753.728	169.481
753.779	168.224
753.83	170.824
753.881	163.643
753.932	168.029
753.983	171.431
754.034	171.996
754.086	165.9
754.137	174.507
754.188	168.502
754.239	175.298
754.29	173.727
754.341	173.207
754.393	166.654
754.444	165.933
754.495	168.09
754.546	161.587
754.597	164.613
754.648	164.436
754.699	175.661
754.75	159.735
754.802	160.379
754.853	166.749
754.904	171.422
754.955	168.561
755.006	166.924
755.057	169.097
755.108	165.043
755.16	168.708
755.211	158.829
755.262	166.959
755.313	163.672
755.364	152.802
755.415	169.044
755.466	162.508
755.518	162.889
755.569	160.373
755.62	162.58
755.671	167.563
755.722	160.055
755.773	157.764
755.824	165.123
755.875	156.945
755.927	162.733
755.978	156.878
756.029	164.709
756.08	154.935
756.131	166.926
756.182	161.515
756.233	160.146
756.284	163.407
756.336	158.827
756.387	160.555
756.438	159.44
756.489	159.855
756.54	160.184
756.591	152.015
756.642	152.313
756.693	147.414
756.745	158.92
756.796	160.355
756.847	162.79
756.898	162.317
756.949	164.024
757	156.738
757.051	158.786
757.102	164.548
757.153	158.866
757.205	151.652
757.256	158.704
757.307	160.188
757.358	154.146
757.409	149.574
757.46	155.983
757.511	155.714
757.562	149.482
757.613	151.878
757.664	154.966
757.716	161.73
757.767	164.942
757.818	162.687
757.869	153.301
757.92	157.461
757.971	159.346
758.022	151.675
758.073	156.039
758.124	156.202
758.175	163.116
758.227	165.471
758.278	157.415
758.329	148.953
758.38	153.167
758.431	155.746
758.482	155.808
758.533	150.438
758.584	153.596
758.635	154.483
758.686	154.722
758.738	155.149
758.789	145.71
758.84	154.073
758.891	158.973
758.942	157.272
758.993	153.904
759.044	162.614
759.095	153.413
759.146	162.308
759.197	159.997
759.248	149.165
759.3	150.071
759.351	149.475
759.402	146.084
759.453	157.667
759.504	153.572
759.555	153.032
759.606	154.199
759.657	154.983
759.708	143.702
759.759	150.118
759.81	161.612
759.861	157.499
759.913	150.822
759.964	150.905
760.015	146.942
760.066	140.829
760.117	143.647
760.168	156.22
760.219	151.718
760.27	154.991
760.321	143.352
760.372	148.06
760.423	146.845
760.474	150.927
760.525	154.007
760.576	147.267
760.628	150.156
760.679	157.629
760.73	159.27
760.781	155.087
760.832	157.04
760.883	143.229
760.934	141.323
760.985	147.404
761.036	141.662
761.087	146.451
761.138	149.403
761.189	146.393
761.24	151.172
761.291	151.39
761.342	142.152
761.393	147.861
761.445	146.395
761.496	144.661
761.547	142.233
761.598	148.774
761.649	152.153
761.7	147.148
761.751	149.211
761.802	151.097
761.853	149.269
761.904	145.11
761.955	141.263
762.006	144.248
762.057	143.849
762.108	141.637
762.159	144.351
762.21	144.816
762.261	147.239
762.313	140.675
762.364	139.336
762.415	143.664
762.466	148.198
762.517	146.832
762.568	147.91
762.619	143.033
762.67	138.946
762.721	140.507
762.772	143.981
762.823	144.855
762.874	149.266
762.925	145.805
762.976	139.973
763.027	138.741
763.078	141.812
763.129	143.241
763.18	142.596
763.231	147.559
763.282	147.306
763.333	139.585
763.384	137.644
763.435	138.054
763.486	141.537
763.537	141.771
763.589	140.686
763.64	133.513
763.691	138.608
763.742	142.655
763.793	144.225
763.844	142.214
763.895	143.235
763.946	141.403
763.997	135.699
764.048	135.296
764.099	131.017
764.15	133.631
764.201	136.966
764.252	141.454
764.303	143.399
764.354	137.325
764.405	136.906
764.456	138.895
764.507	140.025
764.558	136.179
764.609	140.942
764.66	137.968
764.711	132.143
764.762	132.102
764.813	135.856
764.864	142.313
764.915	142.33
764.966	139.692
765.017	137.727
765.068	135.569
765.119	136.788
765.17	137.561
765.221	136.334
765.272	135.926
765.323	132.997
765.374	134.993
765.425	142.672
765.476	140.207
765.527	138.038
765.578	142.233
765.629	136.87
765.68	131.38
765.731	128.582
765.782	129.8
765.833	135.94
765.884	136.991
765.935	134.39
765.986	130.655
766.037	128.323
766.088	130.237
766.139	132.346
766.19	136.998
766.241	137.146
766.292	133.322
766.343	134.132
766.394	132.296
766.445	132.963
766.496	136.506
766.547	138.928
766.598	133.873
766.649	129.792
766.677	129.811
766.729	136.009
766.78	131.158
766.831	136.82
766.882	135.383
766.933	129.953
766.984	133.683
767.035	137.022
767.086	134.092
767.137	131.405
767.188	130.062
767.24	131.867
767.291	130.45
767.342	135.578
767.393	125.574
767.444	128.443
767.495	125.85
767.546	132.554
767.597	138.782
767.648	136.519
767.7	137.885
767.751	128.332
767.802	131.932
767.853	133.975
767.904	133.324
767.955	123.512
768.006	124.546
768.057	133.699
768.108	127.545
768.159	132.57
768.21	137.387
768.262	132.693
768.313	121.04
768.364	131.09
768.415	128.501
768.466	132.957
768.517	129.305
768.568	134.396
768.619	127.227
768.67	126.573
768.721	128.351
768.772	123.623
768.823	128.578
768.875	125.47
768.926	128.236
768.977	132.553
769.028	125.677
769.079	120.102
769.13	120.934
769.181	117.294
769.232	120.565
769.283	125.745
769.334	125.614
769.385	123.475
769.436	125.002
769.488	125.304
769.539	127.242
769.59	126.579
769.641	128.231
769.692	128.612
769.743	126.917
769.794	127.798
769.845	131.839
769.896	118.299
769.947	126.103
769.998	123.152
770.049	129.279
770.1	123.194
770.151	114.842
770.203	122.061
770.254	119.904
770.305	115.057
770.356	119.936
770.407	125.459
770.458	126.94
770.509	121.862
770.56	127.427
770.611	124.611
770.662	125.185
770.713	115.375
770.764	125.658
770.815	119.366
770.866	113.857
770.917	119.885
770.968	120.584
771.02	117.545
771.071	120.58
771.122	116.111
771.173	122.819
771.224	113.913
771.275	120.064
771.326	118.449
771.377	122.852
771.428	116.677
771.479	120.09
771.53	117.795
771.581	116.092
771.632	121.041
771.683	118.367
771.734	123.407
771.785	120.671
771.836	119.065
771.887	122.683
771.938	115.116
771.99	122.647
772.041	119.451
772.092	119.099
772.143	119.276
772.194	114.447
772.245	111.765
772.296	114.926
772.347	117.316
772.398	117.261
772.449	113.964
772.5	122.667
772.551	124.408
772.602	116.132
772.653	110.678
772.704	118.021
772.755	111.357
772.806	114.508
772.857	113.032
772.908	118.791
772.959	115.294
773.01	115.074
773.061	116.932
773.112	113.096
773.163	114.41
773.214	112.571
773.265	111.385
773.316	115.529
773.367	112.289
773.419	110.481
773.47	109.238
773.521	112.172
773.572	121.666
773.623	116.848
773.674	111.313
773.725	104.545
773.776	108.556
773.827	117.749
773.878	121.414
773.929	113.924
773.98	109.794
774.031	106.135
774.082	109.319
774.133	110.109
774.184	109.283
774.235	106.141
774.286	111.405
774.337	110.909
774.388	109.325
774.439	114.018
774.49	117.131
774.541	109.087
774.592	112.492
774.643	113.869
774.694	110.715
774.745	111.541
774.796	108.289
774.847	106.7
774.898	113.254
774.949	103.159
775	109.135
775.051	108.07
775.102	108.671
775.153	105.588
775.204	108.446
775.255	107.852
775.306	108.808
775.357	109.827
775.408	106.789
775.459	109.929
775.51	113.241
775.561	107.927
775.612	109.909
775.663	109.836
775.714	115.418
775.765	109.656
775.816	110.548
775.867	109.281
775.918	109.004
775.969	104.112
776.02	109.322
776.071	114.075
776.122	107.699
776.173	108.084
776.224	114.891
776.275	109.708
776.326	103.834
776.377	106.393
776.428	105.373
776.479	103.286
776.53	107.108
776.581	107.036
776.632	107.065
776.683	104.971
776.734	108.795
776.785	105.176
776.836	103.97
776.887	109.342
776.938	110.762
776.989	113.923
777.04	105.725
777.091	104.257
777.142	109.427
777.193	110.905
777.244	107.427
777.295	106.675
777.346	106.14
777.397	108.238
777.448	110.63
777.499	104.873
777.55	99.5164
777.601	97.1187
777.652	101.434
777.703	106.949
777.754	103.486
777.805	100.036
777.856	104.657
777.907	107.109
777.958	101.2
778.009	102.727
778.06	106.647
778.111	105.122
778.161	103.794
778.212	103.324
778.263	101.608
778.314	99.9106
778.365	97.6095
778.416	104.157
778.467	101.911
778.518	104.368
778.569	101.904
778.62	97.9375
778.671	99.5241
778.722	102.818
778.773	99.6462
778.824	102.144
778.875	101.146
778.926	101.37
778.977	98.4165
779.028	98.473
779.079	94.8788
779.13	95.9922
779.181	98.0446
779.232	100.8
779.283	99.8199
779.334	97.9545
779.385	100.631
779.436	99.7592
779.487	96.3706
779.537	100.17
779.588	98.0286
779.639	100.884
779.69	100.422
779.741	97.076
779.792	97.2746
779.843	101.852
779.894	99.0016
779.945	96.895
779.996	95.4748
780.047	99.1221
780.098	97.8845
780.149	95.9767
780.2	96.1438
780.251	99.0852
780.302	96.5652
780.353	96.2228
780.404	92.0647
780.455	95.6139
780.505	97.6176
780.556	98.0799
780.607	96.0371
780.658	100.946
780.709	96.3617
780.76	97.6753
780.811	102.259
780.862	102.348
780.913	96.36
780.964	95.155
781.015	94.6081
781.066	95.4591
781.117	89.5999
781.168	90.1241
781.219	90.3738
781.27	89.919
781.32	92.625
781.371	98.8717
781.422	99.325
781.473	95.0483
781.524	90.6586
781.575	94.79
781.626	94.4971
781.677	97.1441
781.728	95.7889
781.779	91.7959
781.83	94.0399
781.881	102.03
781.932	100.029
781.983	94.9911
782.033	89.8654
782.084	86.8947
782.135	89.278
782.186	95.6691
782.237	97.3099
782.288	99.5217
782.339	95.4257
782.39	89.265
782.441	92.7785
782.492	93.0396
782.543	96.7599
782.594	92.4614
782.644	87.672
782.695	88.6372
782.746	87.4109
782.797	90.1003
782.848	97.5798
782.899	94.5069
782.95	89.4316
783.001	95.7352
783.052	96.4253
783.103	93.2519
783.154	90.2218
783.204	88.0533
783.255	95.1155
783.306	93.1975
783.357	95.0341
783.408	94.3033
783.459	92.7528
783.51	98.0236
783.561	88.2937
783.612	87.3498
783.663	90.501
783.714	84.6228
783.764	92.7467
783.815	91.3023
783.866	89.3789
783.917	89.3805
783.968	83.0763
784.019	88.1385
784.07	89.8245
784.109	92.9176
784.16	94.9971
784.211	94.8738
784.262	90.1702
784.313	91.998
784.364	90.0826
784.415	79.3548
784.466	94.4092
784.517	85.3594
784.568	88.9859
784.619	89.8654
784.67	85.8758
784.721	92.8819
784.772	78.6268
784.823	87.6448
784.874	88.9697
784.925	94.5938
784.976	87.4762
785.027	91.3578
785.078	89.7582
785.129	86.6299
785.18	89.703
785.231	87.8598
785.282	98.0846
785.333	88.4624
785.384	89.6914
785.435	84.4872
785.486	75.2389
785.537	88.1083
785.588	86.7653
785.639	90.7817
785.69	88.8013
785.741	83.8856
785.792	88.5406
785.843	88.5776
785.894	85.621
785.945	89.7909
785.996	85.6002
786.047	87.5838
786.098	89.9297
786.149	80.5159
786.2	86.3535
786.251	86.3595
786.302	82.8991
786.353	89.6348
786.404	84.1853
786.455	85.3658
786.506	77.3324
786.557	85.2977
786.608	82.3375
786.659	82.3794
786.71	81.3347
786.761	77.5595
786.812	81.1757
786.863	84.6983
786.914	82.8709
786.965	80.5744
787.016	80.7009
787.067	88.5273
787.118	79.9001
787.169	83.2901
787.22	86.8192
787.271	86.8847
787.322	82.3658
787.373	83.9186
787.424	80.0587
787.475	82.4011
787.526	82.3151
787.576	82.5835
787.627	79.1505
787.678	81.7576
787.729	85.3007
787.78	84.2243
787.831	82.0674
787.882	84.7515
787.933	81.4919
787.984	83.1601
788.035	84.7054
788.086	84.5895
788.137	79.1875
788.188	81.0665
788.239	79.5023
788.29	83.9422
788.341	83.7678
788.392	86.3758
788.443	87.2961
788.494	77.0378
788.545	79.8765
788.596	84.779
788.647	77.5364
788.698	79.8284
788.749	77.3622
788.8	82.9384
788.851	78.9111
788.901	82.8173
788.952	79.0183
789.003	78.4832
789.054	78.38
789.105	81.8816
789.156	76.6816
789.207	78.7173
789.258	79.8682
789.309	80.5192
789.36	79.2378
789.411	81.4533
789.462	83.2922
789.513	78.9147
789.564	80.0247
789.615	80.2775
789.666	81.3077
789.717	84.2305
789.768	85.1389
789.819	74.0688
789.87	79.7645
789.92	79.0203
789.971	79.1204
790.022	81.3668
790.073	79.3224
790.124	85.9664
790.175	79.5816
790.226	79.2597
790.277	81.1694
790.328	83.571
790.379	81.2359
790.43	76.5058
790.481	82.2036
790.532	83.7452
790.583	81.7897
790.634	74.6662
790.685	80.9623
790.735	81.2843
790.786	79.4178
790.837	72.565
790.888	77.7473
790.939	85.3678
790.99	74.6065
791.041	74.0643
791.092	72.6773
791.143	74.438
791.194	75.8564
791.245	77.9972
791.296	82.408
791.347	74.4972
791.397	75.5019
791.448	77.7934
791.499	73.598
791.55	73.8726
791.601	76.2494
791.652	79.1091
791.703	84.0233
791.754	79.0809
791.805	75.7503
791.856	80.8439
791.907	81.7572
791.958	73.5193
792.008	78.0354
792.059	74.9249
792.11	77.2455
792.161	77.9555
792.212	79.7269
792.263	77.7191
792.314	75.5609
792.365	75.8078
792.416	77.1307
792.467	73.1937
792.518	79.1861
792.569	78.422
792.619	76.275
792.67	76.4889
792.721	77.3672
792.772	74.4517
792.823	72.1622
792.874	74.4036
792.925	73.3626
792.976	77.8833
793.027	76.9505
793.078	77.4914
793.128	71.3709
793.179	79.7562
793.23	72.661
793.281	70.5096
793.332	75.7802
793.383	74.4611
793.434	74.5552
793.485	75.4069
793.536	76.672
793.587	72.8131
793.638	72.514
793.688	71.3589
793.739	69.4548
793.79	69.7955
793.841	71.5187
793.892	77.702
793.943	77.7372
793.994	79.5101
794.045	79.3873
794.096	74.2298
794.146	74.7776
794.197	78.0695
794.248	76.5234
794.299	73.8131
794.35	75.3711
794.401	75.089
794.452	72.9438
794.503	73.5697
794.554	76.8598
794.604	76.7836
794.655	76.9197
794.706	77.966
794.757	75.5949
794.808	72.4212
794.859	72.3937
794.91	75.5507
794.961	77.2128
795.011	74.2693
795.062	75.111
795.113	73.1974
795.164	68.477
795.215	70.4876
795.266	74.4264
795.317	74.0627
795.368	73.461
795.418	77.33
795.469	72.3723
795.52	72.3998
795.571	76.5841
795.622	74.5141
795.673	70.8825
795.724	69.9659
795.775	71.1635
795.825	70.2757
795.876	75.4666
795.927	71.6995
795.978	71.3021
796.029	68.4751
796.08	70.1927
796.131	72.9886
796.181	75.6689
796.232	75.1487
796.283	70.3392
796.334	69.1084
796.385	69.4989
796.436	70.3417
796.487	68.9092
796.537	73.2307
796.588	74.6089
796.639	72.5651
796.69	71.4657
796.741	70.8915
796.792	74.9165
796.843	73.0073
796.893	71.1373
796.944	74.4161
796.995	75.1839
797.046	71.108
797.097	67.5446
797.148	72.3477
797.199	70.7622
797.249	68.0884
797.3	64.1317
797.351	70.0945
797.402	70.834
797.453	68.6626
797.504	66.6135
797.555	64.075
797.605	66.801
797.656	68.8733
797.707	69.0146
797.758	71.1728
797.809	67.4527
797.86	68.1345
797.91	65.4546
797.961	68.9837
798.012	73.7617
798.063	72.0197
798.114	65.6655
798.165	68.9209
798.216	65.9756
798.266	68.7546
798.317	68.4322
798.368	68.7159
798.419	69.1871
798.47	69.8671
798.521	68.4389
798.571	69.2498
798.622	65.7517
798.673	69.1048
798.724	69.204
798.775	67.3492
798.826	68.4972
798.876	66.3124
798.927	65.1422
798.978	70.8969
799.029	69.6643
799.08	69.4491
799.13	69.188
799.181	70.3972
799.232	70.8846
799.283	69.2796
799.334	66.4055
799.385	69.6628
799.435	68.7747
799.486	63.9231
799.537	65.772
799.588	70.0646
799.639	70.9468
799.69	64.0475
799.74	66.0509
799.791	67.5903
799.842	72.8657
799.893	69.956
799.944	69.8718
799.994	60.4013
800.045	63.7935
800.096	65.3216
800.147	62.2201
800.198	64.6
800.248	67.4181
800.299	65.9358
800.35	68.8959
800.401	69.2731
800.452	70.1597
800.503	63.7125
800.553	60.8929
800.604	66.6777
800.655	69.7361
800.706	64.289
800.757	66.0618
800.807	66.3038
800.858	71.61
800.909	67.7042
800.96	61.9373
801.011	64.7377
801.061	61.2073
801.112	66.838
801.163	69.8708
801.214	65.2171
801.265	67.7531
801.315	70.9729
801.366	63.004
801.417	60.5029
801.457	63.0191
801.508	68.5026
801.558	67.9544
801.609	62.9949
801.66	61.4963
801.711	68.6265
801.762	62.2765
801.813	66.6964
801.864	59.5936
801.915	66.4762
801.966	57.5043
802.017	59.4064
802.068	60.9971
802.118	68.4023
802.169	66.6707
802.22	64.3077
802.271	65.4411
802.322	60.3459
802.373	67.6516
802.424	63.2282
802.475	63.8386
802.526	67.952
802.577	62.9144
802.627	66.083
802.678	60.3291
802.729	68.2968
802.78	58.763
802.831	64.5954
802.882	62.9893
802.933	63.5927
802.984	62.7633
803.035	69.5346
803.086	66.195
803.136	65.5966
803.187	65.206
803.238	69.2986
803.289	55.959
803.34	63.6311
803.391	58.4675
803.442	60.9805
803.493	68.0361
803.544	59.986
803.594	58.9503
803.645	61.2102
803.696	61.178
803.747	58.3423
803.798	61.1738
803.849	60.568
803.9	60.2293
803.951	65.4726
804.002	58.398
804.052	60.3411
804.103	62.6921
804.154	64.8982
804.205	60.1099
804.256	58.5642
804.307	63.4792
804.358	61.9799
804.409	65.2982
804.459	60.498
804.51	60.9186
804.561	61.4452
804.612	59.8372
804.663	55.5691
804.714	57.6374
804.765	50.4888
804.816	61.5797
804.866	57.1698
804.917	56.378
804.968	63.0298
805.019	58.34
805.07	64.3076
805.121	62.3795
805.172	60.018
805.223	56.3015
805.273	63.0204
805.324	65.9579
805.375	60.1987
805.426	61.5418
805.477	57.8573
805.528	61.9569
805.579	59.4707
805.629	62.9675
805.68	60.2604
805.731	58.5977
805.782	58.7854
805.833	60.7756
805.884	60.8422
805.935	58.5961
805.985	60.146
806.036	62.9082
806.087	60.7241
806.138	61.2466
806.189	65.41
806.24	59.124
806.291	62.4805
806.341	63.0854
806.392	55.5006
806.443	54.4983
806.494	57.1226
806.545	55.3072
806.596	57.2075
806.647	67.1728
806.697	65.6394
806.748	56.7765
806.799	54.1239
806.85	57.9322
806.901	65.9171
806.952	55.6459
807.003	58.5657
807.053	59.24
807.104	57.132
807.155	60.4926
807.206	54.1802
807.257	62.5249
807.308	60.9825
807.358	54.273
807.409	53.1884
807.46	57.0895
807.511	58.0412
807.562	57.5253
807.613	55.7467
807.663	61.0003
807.714	54.5212
807.765	53.7462
807.816	56.2942
807.867	64.2013
807.918	56.1358
807.969	55.6801
808.019	57.5858
808.07	58.8883
808.121	59.04
808.172	55.1732
808.223	55.1334
808.273	64.1742
808.324	65.9588
808.375	55.4529
808.426	56.3894
808.477	55.217
808.528	59.0524
808.578	53.4958
808.629	58.8941
808.68	56.5813
808.731	59.7929
808.782	52.614
808.833	59.1473
808.883	57.6966
808.934	57.0923
808.985	55.6165
809.036	53.4406
809.087	61.1946
809.138	60.4883
809.188	56.0497
809.239	56.8905
809.29	61.6651
809.341	61.8378
809.392	54.8872
809.442	60.7534
809.493	59.5319
809.544	57.4538
809.595	54.5697
809.646	59.5131
809.696	59.0519
809.747	51.486
809.798	54.2199
809.849	55.3573
809.9	61.1533
809.951	56.7286
810.001	51.4206
810.052	56.7858
810.103	55.5802
810.154	58.9202
810.205	56.0086
810.255	58.2828
810.306	49.6455
810.357	56.8057
810.408	51.6267
810.459	56.9521
810.509	59.6299
810.56	60.98
810.611	58.5378
810.662	60.2756
810.713	55.8532
810.763	57.903
810.814	48.7909
810.865	56.7631
810.916	58.1301
810.967	56.3307
811.017	58.8161
811.068	55.1109
811.119	56.235
811.17	54.8381
811.221	52.2845
811.271	54.6795
811.322	58.1905
811.373	52.2026
811.424	48.4248
811.474	57.6799
811.525	56.6838
811.576	57.0472
811.627	54.2792
811.678	56.9175
811.728	55.3634
811.779	50.0053
811.83	52.9369
811.881	59.3507
811.932	52.7688
811.982	59.0301
812.033	54.588
812.084	58.5331
812.135	53.5776
812.185	53.2275
812.236	54.239
812.287	53.8392
812.338	60.6402
812.389	50.8103
812.439	51.5949
812.49	56.2742
812.541	54.1773
812.592	48.8845
812.642	50.3427
812.693	55.3508
812.744	58.6333
812.795	52.114
812.846	53.8616
812.896	52.5651
812.947	51.4511
812.998	52.0711
813.049	56.4083
813.099	57.1767
813.15	60.9453
813.201	56.4658
813.252	47.4324
813.302	48.8845
813.353	54.7182
813.404	55.1252
813.455	57.5243
813.506	57.2725
813.556	54.0141
813.607	45.5896
813.658	49.971
813.709	53.4803
813.759	49.9132
813.81	43.1777
813.861	54.842
813.912	55.5067
813.962	52.6517
814.013	52.4513
814.064	55.5309
814.115	52.8313
814.165	54.4168
814.216	51.6611
814.267	52.2112
814.318	55.5624
814.368	55.9855
814.419	52.6179
814.47	51.893
814.521	53.7372
814.571	53.6913
814.622	50.2488
814.673	50.9236
814.724	52.0771
814.774	53.6
814.825	48.8883
814.876	50.4446
814.927	53.8636
814.977	49.2823
815.028	50.4865
815.079	52.897
815.13	54.0757
815.18	51.413
815.231	48.1585
815.282	48.9153
815.333	55.7686
815.383	53.8725
815.434	46.3768
815.485	51.9105
815.536	54.9641
815.586	50.7482
815.637	52.654
815.688	55.0371
815.739	51.8497
815.789	49.8999
815.84	49.3787
815.891	54.6917
815.941	50.2112
815.992	46.3307
816.043	51.6552
816.094	52.4562
816.144	51.6741
816.195	48.7066
816.246	49.6453
816.297	53.0374
816.347	55.1986
816.398	53.3339
816.449	52.266
816.499	51.3288
816.55	48.4755
816.601	48.4552
816.652	50.2977
816.702	53.8973
816.753	49.9736
816.804	44.4757
816.855	46.3179
816.905	51.4847
816.956	53.4246
817.007	48.7837
817.057	45.6386
817.108	50.766
817.159	52.6694
817.21	50.1651
817.26	46.4929
817.311	49.3261
817.362	51.5132
817.412	51.1893
817.463	50.1486
817.514	56.3566
817.565	54.1881
817.615	49.048
817.666	46.7447
817.717	52.1721
817.767	51.2759
817.818	48.7177
817.869	54.4309
817.919	53.5223
817.97	49.3055
818.021	49.074
818.072	47.4664
818.122	53.6701
818.173	52.3934
818.224	46.603
818.274	48.8074
818.325	48.7457
818.376	48.2831
818.427	48.9997
818.477	49.3694
818.528	52.8598
818.579	50.9473
818.629	49.362
818.68	45.4024
818.731	47.8519
818.781	48.0942
818.806	49.5492
818.857	40.8945
818.908	48.8249
818.959	43.783
819.01	47.3512
819.06	47.4005
819.111	46.479
819.162	50.2969
819.213	53.1675
819.264	51.0668
819.315	49.1438
819.365	48.8108
819.416	53.4402
819.467	53.9307
819.518	51.4483
819.569	47.6609
819.619	49.3411
819.67	49.4839
819.721	48.145
819.772	46.088
819.823	47.5923
819.873	44.8617
819.924	47.4715
819.975	48.3633
820.026	44.2535
820.077	43.0831
820.127	49.8134
820.178	47.5707
820.229	48.7033
820.28	51.075
820.331	50.9827
820.381	45.2898
820.432	43.4085
820.483	51.0848
820.534	48.6815
820.585	43.9705
820.635	44.454
820.686	47.9327
820.737	52.1505
820.788	48.5867
820.839	43.912
820.889	47.0603
820.94	47.7739
820.991	47.6732
821.042	42.16
821.092	48.0704
821.143	47.5881
821.194	52.2591
821.245	45.9838
821.296	49.566
821.346	50.0721
821.397	46.6299
821.448	46.224
821.499	44.0433
821.549	48.3074
821.6	47.1953
821.651	43.9814
821.702	47.6206
821.753	49.4336
821.803	47.2208
821.854	46.7014
821.905	51.8871
821.956	45.6362
822.006	47.0035
822.057	46.2491
822.108	50.6491
822.159	49.2645
822.21	49.019
822.26	41.9795
822.311	46.004
822.362	46.6905
822.413	49.1747
822.463	45.0849
822.514	50.8147
822.565	47.9651
822.616	43.7076
822.667	42.3006
822.717	47.8187
822.768	46.4815
822.819	46.1673
822.87	42.565
822.92	44.627
822.971	47.1522
823.022	43.9427
823.073	42.407
823.123	48.1169
823.174	43.2689
823.225	43.5013
823.276	46.2424
823.326	49.5464
823.377	45.4962
823.428	44.431
823.479	43.9079
823.529	47.8452
823.58	41.4931
823.631	38.2994
823.682	44.0568
823.732	49.0054
823.783	48.5178
823.834	44.6818
823.885	43.2549
823.935	44.8698
823.986	42.8218
824.037	45.4569
824.088	47.1311
824.138	49.1984
824.189	48.2947
824.24	46.0606
824.291	41.0057
824.341	45.3554
824.392	46.5857
824.443	43.2459
824.494	41.9228
824.544	42.598
824.595	43.7184
824.646	40.6147
824.697	42.1198
824.747	48.2597
824.798	50.1752
824.849	46.1911
824.9	45.7024
824.95	44.6087
825.001	42.7689
825.052	42.6379
825.103	44.9973
825.153	47.4533
825.204	46.9176
825.255	46.9856
825.305	45.9636
825.356	45.9006
825.407	44.2106
825.458	40.8978
825.508	47.3592
825.559	47.1227
825.61	46.7105
825.661	43.9707
825.711	47.6761
825.762	45.7401
825.813	45.5146
825.864	44.756
825.914	46.1625
825.965	44.9731
826.016	42.8348
826.066	45.0016
826.117	48.413
826.168	39.3012
826.219	39.1402
826.269	45.1401
826.32	48.7414
826.371	44.614
826.421	46.4558
826.472	45.2962
826.523	46.5777
826.574	47.0024
826.624	43.4524
826.675	43.6639
826.726	47.2536
826.776	44.5161
826.827	44.3786
826.878	43.7777
826.929	45.9956
826.979	40.3094
827.03	41.8207
827.081	43.7987
827.131	46.3924
827.182	44.9068
827.233	39.4492
827.284	43.6545
827.334	44.5658
827.385	40.2742
827.436	43.9748
827.486	43.6128
827.537	44.2554
827.588	40.9063
827.638	40.5659
827.689	44.9371
827.74	49.1061
827.791	45.5331
827.841	39.3262
827.892	39.6976
827.943	44.8636
827.993	47.6296
828.044	42.1148
828.095	39.4397
828.146	43.3135
828.196	40.1647
828.247	32.9888
828.298	41.7633
828.348	48.7058
828.399	46.8217
828.45	42.7146
828.5	44.3089
828.551	44.1447
828.602	41.8279
828.652	43.0794
828.703	43.2927
828.754	43.0833
828.805	42.6828
828.855	43.3167
828.906	44.6659
828.957	47.8966
829.007	41.1286
829.058	35.8475
829.109	42.9539
829.159	46.9447
829.21	41.5348
829.261	41.7454
829.311	45.9792
829.362	43.6018
829.413	40.9457
829.463	40.8429
829.514	46.9251
829.565	43.7613
829.615	43.0352
829.666	41.0195
829.717	43.5301
829.767	49.2337
829.818	45.309
829.869	41.3448
829.919	40.7896
829.97	43.7684
830.021	40.5575
830.071	39.4991
830.122	46.2855
830.173	46.3682
830.224	44.6244
830.274	42.6153
830.325	43.7848
830.376	40.8463
830.426	41.9088
830.477	43.9312
830.528	47.8345
830.578	47.7789
830.629	43.3846
830.68	41.5561
830.73	46.4344
830.781	44.3069
830.831	39.4088
830.882	45.0588
830.933	44.9615
830.983	44.3669
831.034	40.2588
831.085	43.1755
831.135	45.9484
831.186	41.3055
831.237	45.2013
831.287	45.1332
831.338	45.771
831.389	44.5329
831.439	37.8797
831.49	43.1749
831.541	45.6605
831.591	44.1139
831.642	43.9393
831.693	42.5055
831.743	40.7129
831.794	41.7772
831.845	42.3461
831.895	45.0582
831.946	44.9621
831.997	39.1193
832.047	39.5663
832.098	45.0746
832.148	42.3082
832.199	43.2923
832.25	39.4329
832.3	44.1102
832.351	48.3781
832.402	42.978
832.452	38.1322
832.503	42.6265
832.554	41.2246
832.604	38.5206
832.655	35.2316
832.706	38.034
832.756	44.2648
832.807	40.6414
832.857	36.7876
832.908	38.141
832.959	41.1863
833.009	39.3148
833.06	41.4259
833.111	40.1372
833.161	44.115
833.212	40.2089
833.263	42.9193
833.313	45.4614
833.364	43.9643
833.414	40.3865
833.465	40.7838
833.516	38.1713
833.566	47.9862
833.617	39.2727
833.668	42.8117
833.718	42.5054
833.769	41.547
833.819	33.1019
833.87	40.9932
833.921	43.5132
833.971	46.6084
834.022	39.1042
834.073	38.0314
834.123	48.0072
834.174	40.4317
834.224	39.9405
834.275	46.9202
834.326	40.0772
834.376	44.8027
834.427	38.4089
834.477	46.0587
834.528	43.7285
834.579	36.6372
834.629	41.9355
834.68	42.4385
834.73	41.7872
834.781	42.565
834.832	37.3446
834.882	44.0226
834.933	44.0227
834.984	44.1505
835.034	44.4124
835.085	44.1531
835.135	45.2537
835.186	39.0557
835.237	38.8825
835.287	40.6646
835.338	40.9218
835.388	41.6313
835.439	37.8988
835.49	39.7331
835.54	42.8153
835.591	41.0962
835.641	38.0332
835.692	38.8149
835.743	41.6943
835.793	38.1642
835.844	44.9219
835.894	43.949
835.945	41.1162
835.996	36.1998
836.046	36.9953
836.097	36.0555
836.099	36.0359
836.15	40.0029
836.201	38.0325
836.251	37.9798
836.302	40.0658
836.353	44.8967
836.404	37.0748
836.454	38.1043
836.505	41.0905
836.556	46.9074
836.606	42.8445
836.657	39.0013
836.708	37.0334
836.758	40.9634
836.809	42.9115
836.86	43.026
836.911	36.0165
836.961	39.881
837.012	40.5962
837.063	40.2669
837.113	40.6914
837.164	38.8681
837.215	33.9208
837.265	41.8903
837.316	46.5756
837.367	41.6425
837.418	38.7022
837.468	39.8678
837.519	38.4625
837.57	37.2364
837.62	38.8649
837.671	41.9032
837.722	43.0237
837.772	42.1054
837.823	34.5998
837.874	42.6286
837.924	36.1664
837.975	40.5462
838.026	39.5994
838.077	42.7725
838.127	36.8049
838.178	46.1358
838.229	36.8179
838.279	34.4881
838.33	40.2305
838.381	41.6878
838.431	34.4322
838.482	39.3351
838.533	43.9405
838.583	47.528
838.634	39.499
838.685	36.2341
838.735	40.8961
838.786	42.7516
838.837	30.2355
838.888	38.9903
838.938	39.3943
838.989	39.3075
839.04	34.9866
839.09	40.1897
839.141	38.4125
839.192	44.8745
839.242	30.9349
839.293	35.6394
839.344	43.2064
839.394	39.2356
839.445	39.3285
839.496	40.923
839.546	42.6038
839.597	37.7994
839.648	38.7904
839.698	39.9686
839.749	39.2704
839.8	41.2067
839.85	37.0357
839.901	37.3108
839.952	40.8231
840.002	39.7493
840.053	37.3984
840.104	40.4685
840.154	39.4455
840.205	34.0794
840.256	39.0048
840.306	38.2677
840.357	43.8205
840.408	39.4431
840.458	36.5421
840.509	41.0141
840.56	43.5583
840.61	38.0642
840.661	39.284
840.711	37.8497
840.762	38.6773
840.813	35.4916
840.863	39.5394
840.914	37.4066
840.965	41.1494
841.015	39.0432
841.066	38.1178
841.117	40.5095
841.167	46.1372
841.218	39.0028
841.269	36.9041
841.319	39.1386
841.37	37.4739
841.421	34.0712
841.471	39.8206
841.522	39.4904
841.573	40.1934
841.623	33.6883
841.674	39.7968
841.724	37.9765
841.775	40.0299
841.826	39.1661
841.876	41.932
841.927	39.1554
841.978	38.7154
842.028	35.1206
842.079	38.4477
842.13	34.8369
842.18	42.4985
842.231	36.4551
842.281	38.7709
842.332	39.9258
842.383	38.4142
842.433	37.1807
842.484	39.0778
842.535	37.7931
842.585	38.2665
842.636	34.5369
842.687	40.5538
842.737	37.0039
842.788	38.5584
842.838	33.5215
842.889	41.3637
842.94	42.6354
842.99	39.4076
843.041	38.3297
843.092	37.1821
843.142	42.8875
843.193	38.6451
843.243	39.9442
843.294	37.6114
843.345	41.2296
843.395	34.4711
843.446	36.6721
843.497	41.3964
843.547	37.8129
843.598	36.6808
843.648	33.2466
843.699	38.649
843.75	39.4939
843.8	37.7471
843.851	37.1768
843.901	38.64
843.952	41.9555
844.003	36.7699
844.053	40.143
844.104	38.7979
844.155	38.2038
844.205	37.5531
844.256	37.7143
844.306	36.3772
844.357	37.3011
844.408	35.3972
844.458	37.3797
844.509	41.0137
844.559	39.2628
844.61	34.8365
844.661	38.5092
844.711	37.7085
844.762	37.5263
844.812	35.855
844.863	36.1535
844.914	34.7626
844.964	37.2566
845.015	37.0242
845.065	38.2829
845.116	36.0837
845.167	38.4542
845.217	36.8936
845.268	38.1193
845.318	39.0908
845.369	36.6037
845.42	34.9982
845.47	34.7521
845.521	37.1916
845.571	36.7969
845.622	35.8698
845.673	42.4662
845.723	42.0996
845.774	39.6412
845.824	36.0182
845.875	41.2989
845.926	41.5053
845.976	41.3066
846.027	38.0513
846.077	40.4266
846.128	39.1326
846.178	37.3276
846.229	33.9835
846.28	38.0846
846.33	37.4989
846.381	33.9048
846.431	31.6192
846.482	37.7003
846.533	36.7568
846.583	34.2837
846.634	35.2913
846.684	39.3908
846.735	43.3266
846.785	38.9003
846.836	35.0877
846.887	38.9771
846.937	40.2491
846.988	38.6942
847.038	36.1098
847.089	40.4206
847.139	41.2787
847.19	39.6795
847.241	37.6565
847.291	35.4873
847.342	36.7422
847.392	36.6234
847.443	37.5257
847.493	39.7198
847.544	40.8897
847.595	34.4061
847.645	32.8107
847.696	37.2368
847.746	32.5987
847.797	33.9189
847.847	36.9681
847.898	40.6105
847.948	40.8656
847.999	38.4198
848.05	36.3498
848.1	38.2198
848.151	38.1778
848.201	39.2198
848.252	38.8251
848.302	36.8422
848.353	35.1534
848.404	34.2506
848.454	36.0266
848.505	36.1516
848.555	36.4455
848.606	35.4333
848.656	39.6506
848.707	39.7786
848.757	36.7446
848.808	35.1942
848.859	35.0625
848.909	37.5484
848.96	38.6995
849.01	36.2306
849.061	38.061
849.111	40.7868
849.162	39.5724
849.212	33.3845
849.263	35.5969
849.313	36.9421
849.364	39.9535
849.414	38.6824
849.465	37.9953
849.516	35.6744
849.566	36.3087
849.617	34.465
849.667	38.3472
849.718	39.1145
849.768	38.4216
849.819	34.5129
849.869	36.5526
849.92	39.1995
849.97	36.1912
850.021	33.9175
850.071	39.3173
850.122	41.0255
850.173	35.1284
850.223	35.2007
850.274	32.0327
850.324	36.2824
850.375	36.7741
850.425	33.7465
850.476	36.4517
850.526	40.6947
850.577	35.0384
850.627	32.4225
850.678	36.3506
850.728	31.3703
850.779	33.6468
850.829	34.7465
850.88	33.2704
850.93	36.9378
850.981	34.285
851.031	32.4492
851.082	37.0147
851.133	37.7757
851.183	37.9021
851.234	38.5017
851.284	36.1297
851.335	35.3781
851.385	37.4994
851.436	33.287
851.486	32.9868
851.537	34.2776
851.587	35.7596
851.638	34.0281
851.688	40.0052
851.739	38.5967
851.789	35.5629
851.84	35.1354
851.89	37.2341
851.941	38.3859
851.991	36.0342
852.042	34.8928
852.092	38.3146
852.143	33.8273
852.193	34.202
852.244	38.4666
852.294	42.2541
852.345	36.6579
852.395	37.1138
852.446	39.0692
852.496	42.1045
852.547	37.0286
852.597	35.5462
852.648	40.3371
852.698	38.6325
852.749	38.1723
852.799	38.1644
852.85	35.1558
852.9	38.4789
852.951	36.8758
853.001	34.5339
853.052	36.4262
853.102	42.9114
853.153	40.2677
853.203	35.2782
853.254	34.6714
853.304	35.2693
853.355	29.4296
853.405	31.1894
853.443	35.4161
853.493	38.5821
853.544	34.163
853.594	36.804
853.645	35.0004
853.696	37.3655
853.746	38.3633
853.797	34.4122
853.847	33.3754
853.898	37.092
853.949	35.7983
853.999	35.9378
854.05	29.9383
854.1	34.1086
854.151	36.0286
854.202	31.7706
854.252	32.3358
854.303	38.6684
854.353	38.5835
854.404	31.9485
854.455	37.8153
854.505	31.5598
854.556	33.488
854.606	32.4096
854.657	35.4628
854.708	34.845
854.758	37.3803
854.809	39.8895
854.859	35.0578
854.91	36.5064
854.961	35.1807
855.011	32.6231
855.062	38.4545
855.112	36.3106
855.163	35.933
855.214	37.2415
855.264	35.5056
855.315	36.1014
855.365	30.4916
855.416	32.7217
855.466	37.1521
855.517	31.5788
855.568	34.0081
855.618	31.4724
855.669	34.3144
855.719	35.1635
855.77	34.6716
855.821	33.6902
855.871	33.6934
855.922	34.9837
855.972	36.2628
856.023	35.4763
856.073	37.6183
856.124	34.7643
856.175	33.0409
856.225	35.664
856.276	39.5049
856.326	36.5492
856.377	34.3359
856.427	34.0243
856.478	36.5259
856.529	36.1126
856.579	33.6066
856.63	29.8545
856.68	33.7712
856.731	35.7222
856.781	33.1053
856.832	31.402
856.883	37.318
856.933	35.9523
856.984	33.3164
857.034	31.0316
857.085	34.9593
857.135	33.6494
857.186	31.3042
857.237	26.8968
857.287	38.5277
857.338	39.5823
857.388	35.1489
857.439	30.705
857.489	33.2515
857.54	34.956
857.59	35.5696
857.641	37.223
857.692	35.5111
857.742	34.0252
857.793	37.1215
857.843	32.8852
857.894	33.754
857.944	34.4126
857.995	35.0239
858.045	33.1247
858.096	39.2206
858.147	36.1412
858.197	33.2696
858.248	38.5607
858.298	35.2234
858.349	33.6314
858.399	32.6369
858.45	34.3248
858.5	37.9214
858.551	34.8758
858.601	31.6548
858.652	38.6473
858.703	37.0772
858.753	36
858.804	32.9119
858.854	34.6106
858.905	37.781
858.955	31.5449
859.006	34.0417
859.056	38.9267
859.107	37.9995
859.157	34.5989
859.208	33.5099
859.258	33.6436
859.309	37.2235
859.36	31.5133
859.41	30.0907
859.461	33.5645
859.511	33.4766
859.562	32.9565
859.612	34.5872
859.663	35.0238
859.713	34.9111
859.764	35.0061
859.814	29.7689
859.865	33.0442
859.915	29.1406
859.966	27.8088
860.016	30.8457
860.067	29.3033
860.117	35.9379
860.168	33.2021
860.219	31.5445
860.269	33.0989
860.32	33.5676
860.37	31.5427
860.421	31.1385
860.471	33.588
860.522	30.9103
860.572	36.2889
860.623	29.8397
860.673	34.8986
860.724	33.7985
860.774	32.9143
860.825	34.7972
860.875	34.3797
860.926	31.2044
860.976	30.1339
861.027	30.7693
861.077	36.3033
861.128	34.1777
861.178	32.1795
861.229	36.2544
861.279	37.8826
861.33	32.111
861.38	34.2157
861.431	34.5962
861.481	40.1911
861.532	30.8727
861.582	31.5125
861.633	39.3171
861.683	35.5085
861.734	36.3888
861.784	35.6635
861.835	31.6304
861.885	33.4653
861.936	31.4219
861.986	30.7886
862.037	38.1831
862.087	34.43
862.138	32.302
862.188	35.6581
862.239	36.9008
862.289	39.7595
862.34	35.1827
862.39	33.0217
862.441	33.8229
862.491	38.4635
862.542	31.0835
862.592	31.5308
862.643	40.7307
862.693	35.2512
862.744	31.8457
862.794	34.6064
862.845	32.296
862.895	37.4257
862.946	33.1263
862.996	34.9984
863.047	35.1421
863.097	32.3674
863.148	31.7033
863.198	34.0799
863.249	32.4853
863.299	34.1892
863.35	36.5181
863.4	32.2268
863.451	32.4475
863.501	36.0301
863.552	30.6958
863.602	27.5327
863.653	34.1136
863.703	32.2469
863.754	30.2922
863.804	34.5541
863.854	35.1827
863.905	36.0977
863.955	29.1258
864.006	31.9196
864.056	35.9955
864.107	33.8146
864.157	33.183
864.208	31.8055
864.258	40.1281
864.309	32.7304
864.359	29.3498
864.41	29.5418
864.46	32.1138
864.511	37.8694
864.561	31.8559
864.612	33.8198
864.662	34.2077
864.712	32.9483
864.763	33.002
864.813	31.8048
864.864	39.2192
864.914	32.7923
864.965	24.7836
865.015	30.3479
865.066	36.4325
865.116	29.3244
865.167	32.8667
865.217	34.4679
865.268	34.2922
865.318	35.5912
865.368	34.7357
865.419	30.8062
865.469	32.23
865.52	31.0292
865.57	32.2478
865.621	34.0997
865.671	37.0016
865.722	32.6
865.772	29.702
865.823	34.7704
865.873	31.5088
865.923	31.1321
865.974	35.3731
866.024	35.8321
866.075	35.9477
866.125	35.8198
866.176	30.9701
866.226	32.6328
866.276	33.6421
866.327	30.8819
866.377	30.8175
866.428	33.568
866.478	32.1421
866.529	29.4882
866.579	30.9218
866.63	31.6245
866.68	33.2189
866.73	33.067
866.781	30.9761
866.831	35.1608
866.882	38.8049
866.932	30.6327
866.983	30.2692
867.033	37.1054
867.083	32.0175
867.134	33.2463
867.184	30.7105
867.235	35.6153
867.285	33.8074
867.336	28.2984
867.386	32.3597
867.436	35.546
867.487	37.3187
867.537	30.0904
867.588	32.9206
867.638	35.7044
867.689	34.8287
867.739	31.6423
867.789	30.4695
867.84	33.1771
867.89	32.6484
867.941	32.2753
867.991	31.7582
868.042	34.5411
868.092	32.4633
868.142	28.4847
868.193	32.2606
868.243	33.3035
868.294	36.5381
868.344	33.2886
868.394	30.1561
868.445	36.5575
868.495	34.3892
868.546	31.0606
868.596	30.4686
868.647	33.2581
868.697	34.9912
868.747	34.13
868.798	32.6044
868.848	35.1607
868.899	31.7501
868.949	31.8448
868.999	31.1574
869.05	36.6886
869.1	36.5454
869.151	31.435
869.201	31.8293
869.251	33.907
869.302	28.6356
869.352	31.8107
869.403	36.6052
869.453	34.1163
869.503	33.6773
869.554	28.0854
869.604	31.8427
869.655	32.5337
869.705	33.582
869.755	29.7407
869.806	29.2279
869.856	32.9462
869.907	31.0121
869.957	26.889
870.007	36.3648
870.058	35.8812
870.108	30.1147
870.159	29.1531
870.209	34.0641
870.259	38.259
870.31	34.4258
870.36	27.5301
870.41	30.5468
870.461	35.315
870.511	38.5103
870.562	33.3944
870.612	36.9789
870.662	38.9209
870.713	33.4785
870.731	32.3631
870.782	31.9951
870.832	34.3609
870.883	34.6256
870.933	28.077
870.984	30.4244
871.034	37.2662
871.085	32.8776
871.135	25.7187
871.186	27.3309
871.236	34.856
871.287	33.5516
871.337	29.927
871.388	30.3267
871.438	34.7979
871.489	31.844
871.539	31.0719
871.59	32.3631
871.64	30.1093
871.691	31.0074
871.741	27.0894
871.792	31.6548
871.842	32.1055
871.893	28.8424
871.943	32.2206
871.994	29.9607
872.044	33.6802
872.095	34.653
872.145	30.0196
872.196	29.3348
872.246	31.5615
872.297	34.2425
872.347	34.2218
872.397	33.8053
872.448	32.9137
872.498	28.6816
872.549	25.6714
872.599	35.9208
872.65	37.3542
872.7	31.3465
872.751	32.2181
872.801	30.3747
872.852	37.2191
872.902	31.6662
872.953	34.619
873.003	33.4265
873.054	35.0501
873.104	28.8958
873.155	32.8499
873.205	36.7677
873.256	30.664
873.306	31.2024
873.357	32.5815
873.407	34.5875
873.458	36.5131
873.508	30.3434
873.558	33.2394
873.609	34.9622
873.659	32.4158
873.71	27.8122
873.76	28.3284
873.811	36.7447
873.861	36.9526
873.912	32.2349
873.962	34.1674
874.013	32.9932
874.063	31.1013
874.114	25.4566
874.164	28.9496
874.215	30.7734
874.265	36.1081
874.315	30.1254
874.366	29.7023
874.416	31.6499
874.467	34.4687
874.517	32.0562
874.568	27.3508
874.618	30.098
874.669	31.2524
874.719	27.7444
874.77	32.0808
874.82	32.264
874.87	33.8685
874.921	33.7415
874.971	30.4831
875.022	33.4339
875.072	29.9859
875.123	27.6304
875.173	31.3897
875.224	36.0282
875.274	32.2608
875.324	26.7416
875.375	30.9267
875.425	34.3267
875.476	30.9978
875.526	26.8864
875.577	29.935
875.627	31.4156
875.678	31.3207
875.728	27.0807
875.779	32.6147
875.829	30.4603
875.879	27.8487
875.93	26.0067
875.98	33.7627
876.031	35.6516
876.081	35.3343
876.132	31.3461
876.182	28.4784
876.232	32.9745
876.283	38.6048
876.333	31.2171
876.384	31.5408
876.434	33.4994
876.485	30.4207
876.535	33.8261
876.585	33.9153
876.636	36.5729
876.686	33.9618
876.737	29.714
876.787	29.7773
876.838	34.3954
876.888	30.8374
876.938	27.2556
876.989	32.1301
877.039	31.9356
877.09	29.3818
877.14	29.6064
877.191	32.4934
877.241	32.0436
877.291	25.6477
877.342	25.0878
877.392	32.6782
877.443	30.7591
877.493	33.3017
877.544	26.983
877.594	36.5811
877.644	33.8619
877.695	29.7761
877.745	23.0598
877.796	33.305
877.846	32.4091
877.896	25.9992
877.947	36.4017
877.997	35.0765
878.048	30.5954
878.098	25.3435
878.148	28.6257
878.199	32.716
878.249	29.1464
878.3	29.6749
878.35	28.5207
878.4	30.2889
878.451	34.1731
878.501	31.0831
878.552	30.3054
878.602	39.2966
878.653	34.253
878.703	29.8697
878.753	33.1438
878.804	28.4859
878.854	37.3956
878.904	33.7784
878.955	30.306
879.005	35.6638
879.056	30.531
879.106	31.2402
879.156	29.5387
879.207	31.572
879.257	36.8403
879.308	30.3956
879.358	31.5632
879.408	35.326
879.459	34.9783
879.509	29.9715
879.56	30.9672
879.61	30.0285
879.66	31.9595
879.711	31.7302
879.761	30.2279
879.812	33.5503
879.862	29.129
879.912	28.8654
879.963	34.4794
880.013	27.9262
880.063	30.9582
880.114	33.5919
880.164	28.3377
880.215	29.832
880.265	26.0829
880.315	23.3987
880.366	31.149
880.416	31.5164
880.467	31.5811
880.517	31.4133
880.567	32.2709
880.618	29.2859
880.668	30.82
880.718	29.5477
880.769	29.431
880.819	30.2658
880.87	30.083
880.92	30.7534
880.97	29.6337
881.021	34.3608
881.071	27.2311
881.121	31.2628
881.172	32.9165
881.222	32.5285
881.273	26.2213
881.323	27.2834
881.373	31.2184
881.424	33.5145
881.474	28.5274
881.524	32.3466
881.575	31.137
881.625	33.9103
881.675	30.8932
881.726	27.4323
881.776	29.6655
881.826	29.7218
881.877	28.1933
881.927	33.2585
881.978	33.3209
882.028	31.9683
882.078	34.992
882.129	30.982
882.179	32.2479
882.229	26.5984
882.28	28.7337
882.33	31.0414
882.38	32.8433
882.431	31.4825
882.481	33.0084
882.531	30.3472
882.582	29.9969
882.632	32.694
882.682	32.7814
882.733	32.5783
882.783	31.7603
882.834	35.5985
882.884	29.5279
882.934	31.2199
882.985	33.6766
883.035	33.675
883.085	32.2244
883.136	29.8021
883.186	32.6125
883.236	30.5851
883.287	27.8127
883.337	32.901
883.387	32.3908
883.438	30.1482
883.488	31.1325
883.538	28.8978
883.589	30.2362
883.639	26.7828
883.689	25.8184
883.74	29.0623
883.79	32.7748
883.84	28.4536
883.891	26.3155
883.941	28.5659
883.991	31.561
884.042	28.7763
884.092	29.462
884.142	28.2524
884.193	27.4004
884.243	28.8824
884.293	29.9522
884.344	30.4458
884.394	30.6532
884.444	27.308
884.495	27.9899
884.545	29.5547
884.595	29.8384
884.646	29.96
884.696	31.2263
884.746	32.9478
884.797	30.4995
884.847	26.7529
884.897	29.3352
884.947	30.3261
884.998	31.3597
885.048	27.7314
885.098	27.8887
885.149	33.9082
885.199	30.4151
885.249	29.7553
885.3	30.1448
885.35	29.8841
885.4	30.9993
885.451	33.8398
885.501	33.4986
885.551	32.2406
885.602	29.8199
885.652	31.2273
885.702	33.7381
885.752	34.0654
885.803	28.3792
885.853	31.2027
885.903	30.7636
885.954	32.2008
886.004	33.9246
886.054	32.6425
886.105	28.5528
886.155	34.1802
886.205	31.4583
886.255	31.9484
886.306	32.2921
886.356	32.4561
886.406	32.3852
886.457	36.895
886.507	29.7986
886.557	31.98
886.608	31.2673
886.658	29.5636
886.708	32.0929
886.758	30.1976
886.809	27.9415
886.859	31.8014
886.909	30.5306
886.96	30.5045
887.01	28.5959
887.06	29.6532
887.11	29.9904
887.161	30.7785
887.211	26.9739
887.261	27.5014
887.312	27.145
887.362	31.3283
887.412	27.3191
887.462	29.1208
887.513	29.6159
887.563	29.7305
887.613	29.0118
887.664	30.2707
887.714	31.067
887.764	33.251
887.814	26.2587
887.865	29.073
887.915	32.9405
887.965	33.8561
887.987	31.6931
888.038	32.2784
888.088	34.327
888.138	33.5785
888.189	28.1656
888.239	23.9782
888.289	31.6146
888.34	31.4324
888.39	28.6072
888.441	28.4182
888.491	30.0425
888.542	33.3367
888.592	29.9232
888.642	33.0937
888.693	32.4913
888.743	36.5327
888.793	29.1742
888.844	32.0719
888.894	32.8859
888.945	30.9535
888.995	30.1599
889.045	32.2221
889.096	29.7172
889.146	33.5873
889.197	31.1119
889.247	28.7335
889.297	26.5772
889.348	32.2918
889.398	26.4929
889.448	30.3454
889.499	30.3861
889.549	34.7776
889.6	29.1397
889.65	26.1654
889.7	28.0444
889.751	28.4727
889.801	30.7981
889.851	28.0685
889.902	28.0957
889.952	33.3499
890.003	30.7156
890.053	26.231
890.103	29.2689
890.154	30.2219
890.204	34.126
890.254	30.8205
890.305	29.2991
890.355	31.2809
890.406	24.3953
890.456	28.3625
890.506	30.7915
890.557	29.5463
890.607	34.811
890.657	30.7099
890.708	30.4026
890.758	32.554
890.808	27.9148
890.859	29.4522
890.909	29.4026
890.96	30.2697
891.01	27.5684
891.06	31.3795
891.111	30.7711
891.161	26.4208
891.211	23.5533
891.262	32.1628
891.312	30.667
891.362	27.7239
891.413	31.4409
891.463	32.044
891.513	31.1176
891.564	28.5175
891.614	28.2079
891.665	32.6741
891.715	36.5042
891.765	29.6265
891.816	28.8377
891.866	27.9917
891.916	30.883
891.967	32.0712
892.017	30.4061
892.067	30.172
892.118	31.0209
892.168	29.8163
892.218	30.1861
892.269	26.3002
892.319	25.6924
892.369	30.3726
892.42	28.4912
892.47	26.8405
892.52	35.2026
892.571	29.8766
892.621	27.0613
892.671	29.2432
892.722	29.1761
892.772	25.5694
892.822	29.3389
892.873	26.6361
892.923	32.1911
892.973	29.1432
893.024	31.3542
893.074	29.6887
893.124	28.2198
893.175	30.0415
893.225	31.044
893.275	27.8793
893.326	32.0008
893.376	27.1573
893.426	28.8945
893.477	25.4637
893.527	29.6252
893.577	27.7722
893.628	31.8153
893.678	27.6515
893.728	28.2944
893.779	25.677
893.829	28.146
893.879	31.808
893.93	27.2528
893.98	27.9542
894.03	30.1566
894.081	31.3157
894.131	32.8303
894.181	28.8005
894.232	29.4124
894.282	30.8739
894.332	30.5262
894.383	30.4762
894.433	31.2035
894.483	28.836
894.533	31.7111
894.584	30.251
894.634	27.2906
894.684	29.7005
894.735	30.4447
894.785	30.5561
894.835	29.3778
894.886	27.8087
894.936	30.0516
894.986	29.7324
895.037	26.4826
895.087	30.971
895.137	28.3688
895.188	29.4632
895.238	26.6087
895.288	28
895.338	26.8355
895.389	24.6014
895.439	29.503
895.489	31.5695
895.54	28.3948
895.59	29.9064
895.64	28.0338
895.69	29.7401
895.741	28.7396
895.791	28.7335
895.841	27.2623
895.892	31.8615
895.942	32.2952
895.992	26.4625
896.043	27.6525
896.093	27.3333
896.143	26.8507
896.193	31.9084
896.244	28.7174
896.294	33.3941
896.344	27.8333
896.395	27.1385
896.445	27.6565
896.495	27.6272
896.545	27.7729
896.596	30.9182
896.646	29.2771
896.696	33.0961
896.747	23.5204
896.797	25.1723
896.847	25.6864
896.897	29.1329
896.948	27.0334
896.998	30.587
897.048	26.3934
897.099	32.1265
897.149	24.4727
897.199	27.5039
897.249	27.7728
897.3	27.8235
897.35	30.0136
897.4	31.5327
897.451	29.3729
897.501	29.5476
897.551	24.7079
897.601	30.0315
897.652	32.1138
897.702	30.2323
897.752	28.4773
897.802	31.7724
897.853	27.782
897.903	30.7936
897.953	27.7151
898.003	24.4039
898.054	28.7787
898.104	31.742
898.154	29.8386
898.204	32.3425
898.255	26.6169
898.305	29.9528
898.355	27.2436
898.406	25.631
898.456	28.6932
898.506	31.1318
898.556	26.7852
898.607	33.5169
898.657	26.9021
898.707	30.2958
898.757	30.0954
898.808	26.3296
898.858	29.2049
898.908	27.4352
898.958	27.4569
899.009	27.3849
899.059	28.3161
899.109	26.3041
899.159	28.6289
899.21	29.4927
899.26	33.0902
899.31	29.5449
899.36	29.8587
899.411	28.7686
899.461	26.3759
899.511	26.2568
899.561	30.7039
899.612	31.3702
899.662	33.7252
899.712	28.0874
899.762	30.1503
899.813	30.2724
899.863	25.9282
899.913	25.1844
899.963	35.3333
