#Acq. time (s)=	5
#Accumulations=	3
#Range (nm)=	520...900
#Windows=	24
#Auto scanning=	On
#Autofocus=	Off
#AutoExposure=	Off
#Spike filter=	Multiple accum.
#Delay time (s)=	0
#Binning=	1
#Readout mode=	Signal
#DeNoise=	Off
#ICS correction=	Off
#Dark correction=	Off
#Inst. Process=	Off
#Detector temperature (°C)=	-59.98
#Instrument=	LabRAM HR Evol
#Detector=	Syncerity OE
#Objective=	x50_VIS
#Grating=	600 (500nm)
#ND Filter=	10%
#Laser=	514nm_Edge
#Hole=	199.981
#Range=	Auto
#StageXY=	Marzhauser
#StageZ=	Marzhauser
#X (µm)=	-24277.9
#Y (µm)=	-158.8
#Z (µm)=	1.6
#Full time(mm:ss)=	5:25
#Project=	
#Sample=	
#Site=	
#Title=	M1_controle
#Remark=	
#Date=	19.02.2024 14:03
#Acquired=	19.02.2024 14:03:39
520.013	36.1398
520.065	38.5968
520.117	31.411
520.17	30.9145
520.222	31.2191
520.274	30.4393
520.327	26.4351
520.379	34.8298
520.431	33.3326
520.483	33.681
520.536	31.0062
520.588	36.38
520.64	27.4661
520.693	30.3756
520.745	28.721
520.797	35.2464
520.85	33.3628
520.902	35.5765
520.954	30.9026
521.007	32.4235
521.059	33.0427
521.111	35.8834
521.163	31.6525
521.216	38.1852
521.268	36.5006
521.32	34.525
521.373	32.4002
521.425	32.7016
521.477	31.9635
521.529	36.8974
521.582	31.7216
521.634	35.9614
521.686	32.1489
521.739	36.4075
521.791	31.6727
521.843	28.5689
521.896	32.5658
521.948	33.8306
522	31.605
522.052	37.2187
522.105	31.6246
522.157	32.9338
522.209	34.7288
522.262	37.5287
522.314	31.9144
522.366	33.1512
522.418	31.2643
522.471	36.6967
522.523	35.0894
522.575	36.6796
522.628	29.4665
522.68	33.5202
522.732	31.5408
522.784	32.4512
522.837	30.4615
522.889	32.668
522.941	31.9159
522.994	32.4609
523.046	35.475
523.098	32.5315
523.15	30.9984
523.203	35.8989
523.255	33.2348
523.307	36
523.36	32.0193
523.412	31.7104
523.464	31.8749
523.516	31.6331
523.569	33.6062
523.621	31.0952
523.673	31.3471
523.726	38.3998
523.778	36.1766
523.83	30.0458
523.882	32.0066
523.935	36.7746
523.987	32.6743
524.039	32.8112
524.091	34.2735
524.144	36.2347
524.196	36.1769
524.248	32.0497
524.301	35.9487
524.353	33.0019
524.405	31.7936
524.457	35.4483
524.51	32.8102
524.562	32.7215
524.614	34.611
524.666	33.2251
524.719	42.3752
524.771	32.1057
524.823	34.0221
524.875	35.4563
524.928	37.5662
524.98	32.9837
525.032	36.3275
525.085	33.6492
525.137	35.0327
525.189	30.7988
525.241	37.9786
525.294	35.0816
525.346	34.4841
525.398	32.4477
525.45	37.378
525.503	31.8695
525.555	37.519
525.607	31.8504
525.659	31.8337
525.712	35.0805
525.764	34.4404
525.816	31.3854
525.868	36.6759
525.921	32.6419
525.973	38.9152
526.025	30.125
526.077	34.9424
526.13	34.5257
526.182	34.7458
526.234	27.8834
526.286	36.2058
526.339	33.704
526.391	37.5182
526.443	35.6527
526.495	35.822
526.548	33.4873
526.6	34.9832
526.652	34.2598
526.704	35.5587
526.757	32.5993
526.809	38.6179
526.861	29.525
526.913	37.4391
526.966	36.0801
527.018	35.4297
527.07	33.2554
527.122	35.8306
527.175	34.288
527.227	38.8871
527.279	29.5451
527.331	38.1617
527.384	39.0825
527.436	38.3244
527.488	34.2657
527.54	33.54
527.593	34.1112
527.645	33.669
527.697	32.5096
527.749	35.9529
527.802	35.8795
527.854	34.9153
527.906	33.4097
527.958	34.3317
528.011	32.1621
528.063	36.5499
528.115	32.5664
528.167	33.7952
528.219	34.1917
528.272	34.2809
528.324	34.3903
528.376	33.7102
528.428	30.478
528.481	32.8365
528.533	33.3397
528.585	34.5538
528.637	32.9888
528.69	36.6933
528.742	38.2105
528.794	32.4516
528.846	32.1212
528.898	34.2736
528.951	34.128
529.003	35.4454
529.055	36.4968
529.107	36.2389
529.16	35.6412
529.212	33.1321
529.264	35.3981
529.316	36.5736
529.369	37.7678
529.421	35.0125
529.473	38.1931
529.525	34.3612
529.577	37.0042
529.63	32.9746
529.682	34.1521
529.734	34.8184
529.786	36.5577
529.839	34.9637
529.891	36.4027
529.943	35.88
529.995	38.3155
530.047	39.1625
530.1	37.2655
530.152	35.4826
530.204	37.5813
530.256	35.8876
530.308	37.3012
530.361	37.1099
530.413	40.4548
530.465	37.7289
530.517	38.8543
530.57	34.5051
530.622	31.4323
530.674	32.2102
530.726	38.8666
530.778	35.8665
530.831	33.6884
530.883	38.1562
530.935	37.4695
530.987	32.9637
531.039	35.2555
531.092	31.7923
531.144	36.834
531.196	33.9993
531.248	35.5208
531.3	36.1284
531.353	36.0843
531.405	36.0171
531.457	32.7102
531.509	34.4935
531.561	37.7785
531.614	32.4632
531.666	34.3812
531.718	33.1368
531.77	35.0906
531.822	36.7449
531.875	32.8856
531.927	35.346
531.979	37.8336
532.031	34.8096
532.083	37.7286
532.136	33.2213
532.188	33.6599
532.24	35.931
532.292	38.1359
532.344	32.3253
532.397	39.1049
532.449	33.1488
532.501	36.3757
532.553	37.4293
532.605	35.1853
532.658	33.0659
532.71	27.9482
532.762	29.9011
532.814	34.0355
532.866	33.6837
532.919	38.3173
532.971	32.7812
533.023	38.02
533.075	35.9589
533.127	35.7929
533.179	35.045
533.232	38.2358
533.284	37.9832
533.336	37.3128
533.388	37.5024
533.44	35.5444
533.493	35.6467
533.545	38.8945
533.597	38.8083
533.649	39.9102
533.701	40.4719
533.753	38.2672
533.806	37.7883
533.858	39.367
533.91	39.3659
533.962	42.2482
534.014	39.5489
534.067	43.2855
534.119	40.7505
534.171	40.4349
534.223	44.4216
534.275	47.7675
534.327	47.3668
534.38	47.3478
534.432	46.1549
534.484	47.3545
534.536	47.7617
534.588	48.2521
534.641	50.6726
534.693	52.2169
534.745	47.9733
534.797	54.022
534.849	52.4714
534.901	53.8338
534.953	50.9115
535.006	50.4562
535.058	57.5525
535.11	61.6464
535.162	59.839
535.214	56.9588
535.267	53.2382
535.319	53.7776
535.371	54.2205
535.423	52.35
535.475	52.4745
535.527	51.2044
535.58	43.5229
535.632	51.5322
535.684	49.7771
535.736	53.5968
535.788	45.7365
535.84	47.2049
535.892	47.7911
535.945	48.7573
535.997	47.975
536.049	44.2998
536.101	44.7577
536.153	42.2101
536.205	38.6995
536.258	42.3348
536.31	47.8518
536.362	49.716
536.414	41.4321
536.466	44.4094
536.518	42.5537
536.57	44.3821
536.623	45.4404
536.675	45.7096
536.727	38.9888
536.779	38.3104
536.831	41.8171
536.883	43.9869
536.936	40.9251
536.988	41.784
537.04	42.1834
537.092	38.6432
537.144	45.9105
537.196	47.6302
537.248	45.1971
537.301	44.1709
537.353	41.2573
537.405	40.6685
537.457	43.3773
537.509	36.38
537.561	41.5574
537.613	44.4868
537.666	39.1607
537.718	45.702
537.77	42.2628
537.778	40.3353
537.831	39.0592
537.883	44.4505
537.935	42.9204
537.987	40.9046
538.04	41.2574
538.092	38.2549
538.144	44.9695
538.196	39.515
538.249	39.7041
538.301	39.7442
538.353	37.7444
538.405	39.7787
538.457	37.8243
538.51	34.1709
538.562	36.449
538.614	39.8141
538.666	40.6765
538.719	38.4717
538.771	40.3322
538.823	45.699
538.875	39.0838
538.927	43.3569
538.98	39.9132
539.032	38.3402
539.084	43.9357
539.136	41.2002
539.189	36.9413
539.241	46.3607
539.293	41.4445
539.345	39.5575
539.397	41.2538
539.45	47.0046
539.502	39.0041
539.554	42.2126
539.606	42.7615
539.659	43.271
539.711	43.2594
539.763	37.8895
539.815	41.6127
539.867	45.443
539.92	35.4633
539.972	40.1228
540.024	40.4295
540.076	41.2361
540.128	40.023
540.181	36.3907
540.233	40.7189
540.285	44.5994
540.337	44.5863
540.39	39.781
540.442	39.0095
540.494	46.3901
540.546	40.0071
540.598	44.6562
540.651	39.8738
540.703	44.344
540.755	41.7427
540.807	37.5185
540.859	41.2087
540.912	41.2202
540.964	40.7243
541.016	39.9626
541.068	46.0131
541.12	44.2297
541.173	38.9625
541.225	43.8224
541.277	40.5648
541.329	44.0201
541.381	39.938
541.434	39.6023
541.486	45.2319
541.538	46.7377
541.59	42.0171
541.642	42.0328
541.695	41.6412
541.747	40.2049
541.799	41.1901
541.851	41.1351
541.903	45.9125
541.956	44.6057
542.008	45.8048
542.06	42.2436
542.112	43.9658
542.164	40.4915
542.217	47.5896
542.269	44.8486
542.321	50.6877
542.373	44.6206
542.425	41.8004
542.478	44.1506
542.53	43.312
542.582	43.409
542.634	40.8635
542.686	44.3807
542.738	46.5273
542.791	46.4008
542.843	40.2377
542.895	43.4225
542.947	42.7236
542.999	41.5253
543.052	43.4396
543.104	43.1694
543.156	47.9087
543.208	42.926
543.26	41.1542
543.313	41.543
543.365	42.7952
543.417	42.1116
543.469	45.3621
543.521	42.4114
543.573	50.5772
543.626	49.4043
543.678	43.9721
543.73	41.65
543.782	44.6597
543.834	44.7417
543.886	44.2234
543.939	43.7205
543.991	47.658
544.043	47.5053
544.095	47.1868
544.147	46.0164
544.2	53.6145
544.252	47.6796
544.304	44.1526
544.356	47.9422
544.408	49.4468
544.46	47.9104
544.513	46.3524
544.565	45.7994
544.617	49.354
544.669	47.5244
544.721	46.7564
544.773	42.8234
544.826	49.3965
544.878	46.7759
544.93	48.8823
544.982	47.0181
545.034	50.4842
545.086	45.5601
545.139	47.3431
545.191	46.7969
545.243	46.3181
545.295	49.9868
545.347	43.4068
545.399	49.9611
545.452	50.5794
545.504	46.9371
545.556	48.2763
545.608	50.7844
545.66	43.3456
545.712	44.2933
545.765	50.8751
545.817	44.6782
545.869	51.419
545.921	45.4086
545.973	46.822
546.025	44.7161
546.077	47.3223
546.13	44.5976
546.182	49.7126
546.234	48.8296
546.286	51.3021
546.338	52.1854
546.39	47.9
546.443	48.5696
546.495	46.168
546.547	49.554
546.599	49.3074
546.651	51.5116
546.703	48.8277
546.755	48.7612
546.808	47.6382
546.86	50.5437
546.912	53.3969
546.964	51.1108
547.016	52.9502
547.068	57.5137
547.12	52.487
547.173	50.8237
547.225	51.4955
547.277	55.6649
547.329	50.1398
547.381	47.423
547.433	51.4557
547.485	55.3542
547.538	53.4589
547.59	50.0938
547.642	53.3824
547.694	54.7316
547.746	52.9573
547.798	55.3631
547.85	50.8301
547.903	52.0256
547.955	49.3729
548.007	50.3832
548.059	49.6269
548.111	55.3684
548.163	51.6881
548.215	55.0769
548.268	56.8055
548.32	54.642
548.372	51.9562
548.424	51.0583
548.476	55.1907
548.528	61.2108
548.58	57.6462
548.633	53.5453
548.685	47.6275
548.737	53.6359
548.789	55.5705
548.841	54.2564
548.893	51.9713
548.945	58.5736
548.997	50.551
549.049	49.6982
549.102	55.0336
549.154	61.1995
549.206	57.9736
549.258	55.0379
549.31	60.5597
549.362	60.5991
549.414	58.2425
549.467	57.0315
549.519	53.545
549.571	60.2073
549.623	58.9383
549.675	54.1139
549.727	59.9
549.779	57.8066
549.831	57.2574
549.883	58.6882
549.936	60.0267
549.988	60.7217
550.04	61.3457
550.092	60.8798
550.144	60.1776
550.196	64.4752
550.248	58.4692
550.3	57.723
550.353	61.3853
550.405	67.3131
550.457	67.8478
550.509	65.3555
550.561	68.526
550.613	68.8887
550.665	66.1387
550.717	70.4174
550.769	74.3097
550.822	75.6347
550.874	65.8403
550.926	72.5842
550.978	75.5203
551.03	81.897
551.082	73.9068
551.134	74.8827
551.186	79.246
551.238	77.5006
551.291	83.7519
551.343	79.3055
551.395	87.9846
551.447	95.9277
551.499	89.5896
551.551	90.76
551.603	99.3975
551.655	102.913
551.707	105.089
551.759	106.109
551.812	123.863
551.864	131.883
551.916	138.183
551.968	145.515
552.02	167.979
552.072	174.604
552.124	190.74
552.176	225.013
552.228	266.272
552.28	318.92
552.332	426.418
552.385	642.106
552.437	1283.3
552.489	2780.67
552.541	5567.67
552.593	10423.5
552.645	18548.7
552.697	21921.3
552.749	14919.2
552.801	7094.66
552.853	2759.68
552.905	1109.58
552.958	602.081
553.01	413.01
553.062	316.984
553.114	254.139
553.166	213.378
553.218	188.224
553.27	170.864
553.322	149.108
553.374	133.989
553.426	124.056
553.478	117.074
553.531	107.155
553.583	95.4324
553.635	99.1242
553.687	98.689
553.739	91.9221
553.791	90.8167
553.843	92.8916
553.895	89.0631
553.947	83.3191
553.999	83.9964
554.051	81.4715
554.103	85.0931
554.155	80.6571
554.208	75.9833
554.26	75.6125
554.312	82.5825
554.364	85.7294
554.416	76.0192
554.468	74.6984
554.52	76.0409
554.572	74.2455
554.624	70.5329
554.676	69.0053
554.728	66.6405
554.78	69.4165
554.832	72.0109
554.884	68.8726
554.937	74.3808
554.989	75.221
555.041	74.8326
555.093	74.0491
555.145	76.1287
555.197	68.7661
555.249	66.0185
555.301	71.0999
555.353	72.3236
555.405	70.7873
555.457	69.9633
555.509	73.1695
555.529	75.0772
555.582	71.0144
555.634	73.8921
555.686	73.033
555.738	72.1563
555.79	77.8119
555.842	64.3861
555.895	68.0166
555.947	74.8778
555.999	70.7956
556.051	66.9771
556.103	71.1231
556.155	74.9194
556.207	75.1026
556.26	65.6314
556.312	73.0701
556.364	78.8423
556.416	80.3092
556.468	67.2204
556.52	73.9747
556.573	73.0919
556.625	72.1791
556.677	66.4303
556.729	77.4789
556.781	73.9582
556.833	81.1698
556.885	73.6861
556.938	73.6324
556.99	71.69
557.042	80.563
557.094	65.0966
557.146	78.242
557.198	79.2897
557.25	70.6856
557.302	81.6199
557.355	73.9792
557.407	72.9275
557.459	73.8809
557.511	70.6916
557.563	77.8012
557.615	74.7718
557.667	77.8081
557.72	71.3248
557.772	78.4457
557.824	78.7117
557.876	70.9597
557.928	68.7521
557.98	83.0292
558.032	74.6576
558.085	72.2025
558.137	78.0161
558.189	82.0707
558.241	80.4403
558.293	77.4119
558.345	71.9857
558.397	84.8975
558.449	78.2285
558.502	75.9872
558.554	70.1471
558.606	79.3722
558.658	79.167
558.71	73.399
558.762	79.4276
558.814	78.8336
558.866	83.4587
558.919	77.7815
558.971	76.8082
559.023	78.2842
559.075	83.327
559.127	76.3238
559.179	72.2026
559.231	87.389
559.283	86.5422
559.336	78.5871
559.388	81.9739
559.44	82.6649
559.492	78.9462
559.544	75.2671
559.596	73.2906
559.648	89.2862
559.7	84.8199
559.753	82.086
559.805	77.2029
559.857	82.6714
559.909	83.1783
559.961	85.7659
560.013	78.6054
560.065	82.4056
560.117	79.503
560.169	85.3593
560.222	76.9629
560.274	86.161
560.326	84.5924
560.378	79.0904
560.43	84.3632
560.482	85.0388
560.534	91.6605
560.586	84.0143
560.638	78.8911
560.69	86.2669
560.743	84.3228
560.795	79.2194
560.847	81.51
560.899	89.5913
560.951	87.5943
561.003	81.8222
561.055	87.4899
561.107	97.9879
561.159	85.3151
561.212	81.3926
561.264	83.7558
561.316	86.6608
561.368	88.9602
561.42	86.4109
561.472	82.6049
561.524	96.8176
561.576	89.2433
561.628	93.0615
561.68	95.9124
561.733	95.295
561.785	87.0252
561.837	85.112
561.889	90.4946
561.941	95.2306
561.993	93.3026
562.045	86.7054
562.097	96.0802
562.149	95.3158
562.201	92.5291
562.253	90.5387
562.306	93.613
562.358	100.034
562.41	95.7541
562.462	88.5527
562.514	90.8473
562.566	87.639
562.618	101.351
562.67	97.3911
562.722	96.4701
562.774	97.2538
562.826	96.3584
562.879	97.4035
562.931	97.224
562.983	98.6277
563.035	99.8039
563.087	91.8531
563.139	94.4934
563.191	103.221
563.243	97.266
563.295	97.9079
563.347	101.757
563.399	98.3383
563.451	99.5343
563.504	101.825
563.556	102.052
563.608	102.773
563.66	97.5536
563.712	100.167
563.764	105.58
563.816	108.428
563.868	107.426
563.92	102.721
563.972	112.344
564.024	108.713
564.076	102.868
564.128	106.365
564.181	110.425
564.233	107.562
564.285	104.998
564.337	102.47
564.389	106.419
564.441	105.215
564.493	103.79
564.545	102.987
564.597	108.498
564.649	107.14
564.701	110.146
564.753	100.847
564.805	106.035
564.857	111.227
564.909	109.843
564.962	113.625
565.014	109.075
565.066	105.003
565.118	100.482
565.17	108.212
565.222	111.485
565.274	113.548
565.326	106.218
565.378	109.548
565.43	110.959
565.482	111.14
565.534	110.802
565.586	114.867
565.638	114.405
565.69	114.398
565.742	116.938
565.795	117.264
565.847	117.788
565.899	110.317
565.951	111.022
566.003	112.961
566.055	115.719
566.107	120.215
566.159	115.046
566.211	119.882
566.263	122.863
566.315	121.526
566.367	118.598
566.419	115.152
566.471	117.7
566.523	121.352
566.575	118.747
566.627	119.414
566.679	117.33
566.732	120.651
566.784	111.362
566.836	117.146
566.888	123.709
566.94	120.384
566.992	121.244
567.044	127.605
567.096	125.044
567.148	120.337
567.2	120.896
567.252	129.882
567.304	125.65
567.356	125.329
567.408	120.637
567.46	119.389
567.512	122.556
567.564	126.572
567.616	128.744
567.668	132.531
567.72	129.838
567.772	126.174
567.824	129.928
567.876	132.527
567.928	130.392
567.98	130.428
568.033	123.223
568.085	128.627
568.137	129.123
568.189	128.863
568.241	133.677
568.293	134.266
568.345	129.84
568.397	125.293
568.449	128.446
568.501	129.593
568.553	128.643
568.605	132.289
568.657	136.325
568.709	141.319
568.761	137.163
568.813	131.421
568.865	131.819
568.917	134.728
568.969	133.614
569.021	137.349
569.073	140.844
569.125	137.072
569.177	137.629
569.229	137.39
569.281	135.216
569.333	142.614
569.385	144.78
569.437	138.054
569.489	136.391
569.541	142.017
569.593	141.396
569.645	140.347
569.697	144.33
569.749	140.294
569.801	146.125
569.853	148.095
569.905	142.885
569.957	146.39
570.009	148.465
570.061	142.707
570.113	146.215
570.165	149.603
570.217	150.757
570.269	153.935
570.321	155.334
570.374	151.6
570.426	152.541
570.478	155.631
570.53	155.754
570.582	154.382
570.634	154.016
570.686	153.481
570.738	158.127
570.79	167.768
570.842	162.314
570.894	155.58
570.946	157.289
570.998	162.621
571.05	164.434
571.102	164.395
571.154	165.306
571.206	169.072
571.258	169.264
571.31	169.912
571.362	171.372
571.414	175.935
571.466	174.3
571.518	174.053
571.57	169.704
571.622	171.531
571.674	171.676
571.726	172.65
571.778	177.649
571.83	182.782
571.882	181.23
571.934	186.596
571.986	186.663
572.038	190.522
572.09	186.875
572.142	182.809
572.194	181.742
572.246	196.795
572.298	199.354
572.349	194.739
572.401	203.311
572.453	202.446
572.505	201.318
572.557	206.273
572.609	211.155
572.661	206.208
572.713	210.958
572.765	209.328
572.817	216.653
572.869	221.203
572.921	217.21
572.973	216.128
573.025	222.827
573.077	222.13
573.129	227.873
573.181	237.547
573.212	232.805
573.264	237.441
573.316	241.694
573.368	249.2
573.421	247.803
573.473	257.488
573.525	258.382
573.577	249.544
573.629	258.495
573.681	274.632
573.733	272.06
573.785	273.359
573.837	277.226
573.889	279.528
573.941	277.568
573.993	284.662
574.045	284.73
574.097	293.5
574.15	305.016
574.202	308.043
574.254	311.576
574.306	316.088
574.358	323.786
574.41	316.45
574.462	317.529
574.514	336.844
574.566	340.325
574.618	341.946
574.67	342.81
574.722	351.841
574.774	358.859
574.826	360.117
574.878	370.622
574.931	363.89
574.983	381.866
575.035	389.249
575.087	384.225
575.139	397.45
575.191	392.291
575.243	404.615
575.295	414.726
575.347	415.18
575.399	417.477
575.451	419.888
575.503	405.487
575.555	417.444
575.607	426.005
575.659	423.839
575.711	423.1
575.763	417.671
575.815	417.749
575.868	429.514
575.92	425.82
575.972	420.459
576.024	417.235
576.076	422.059
576.128	428.438
576.18	416.686
576.232	414.088
576.284	410.741
576.336	406.42
576.388	402.418
576.44	407.563
576.492	403.371
576.544	393.666
576.596	401.637
576.648	398.414
576.7	400.694
576.752	387.614
576.804	378.487
576.856	372.917
576.909	382.379
576.961	368.132
577.013	369.457
577.065	366.8
577.117	361.991
577.169	362.962
577.221	364.536
577.273	359.852
577.325	349.308
577.377	337.481
577.429	338.37
577.481	334.688
577.533	320.64
577.585	327.134
577.637	333.225
577.689	319.153
577.741	315.162
577.793	315.29
577.845	303.992
577.897	310.368
577.949	312.72
578.001	308.011
578.053	304.487
578.105	303.486
578.157	297.555
578.209	301.363
578.261	311.099
578.313	300.338
578.365	298.035
578.417	288.084
578.469	289.76
578.522	291.837
578.574	294.413
578.626	287.463
578.678	287.078
578.73	286.679
578.782	282.517
578.834	286.88
578.886	288.764
578.938	287.734
578.99	282.906
579.042	293.257
579.094	284.409
579.146	281.299
579.198	284.131
579.25	282.21
579.302	278.689
579.354	275.33
579.406	290.106
579.458	287.981
579.51	283.517
579.562	287.769
579.614	287.524
579.666	295.251
579.718	286.545
579.77	281.912
579.822	287.695
579.874	301.069
579.926	291.79
579.978	289.083
580.03	298.768
580.082	290.487
580.134	280.342
580.186	281.505
580.238	287.529
580.29	283.853
580.342	290.114
580.394	286.995
580.446	280.594
580.498	291.177
580.55	288.888
580.602	290.621
580.654	291.937
580.706	295.703
580.758	290.337
580.81	285.314
580.862	293.16
580.914	298.556
580.966	286.547
581.018	289.239
581.07	292.504
581.122	294.015
581.174	291.046
581.226	287.117
581.278	294.174
581.33	304.275
581.382	293.069
581.434	288.875
581.486	300.696
581.538	308.054
581.59	298.544
581.642	300.026
581.694	299.861
581.746	301.13
581.798	300.189
581.85	304.777
581.902	307.518
581.954	307.136
582.006	308.593
582.058	307.439
582.11	299.819
582.162	305.291
582.214	307.22
582.266	306.402
582.318	301.459
582.37	316.035
582.422	321.309
582.474	320.05
582.526	316.338
582.578	314.996
582.63	312.788
582.682	319.328
582.734	316.329
582.786	319.732
582.838	321.802
582.89	328.862
582.942	316.63
582.994	320.685
583.046	327.321
583.098	322.95
583.15	327.842
583.202	333.57
583.254	326.508
583.306	322.74
583.358	320.501
583.41	327.842
583.462	335.056
583.514	336.647
583.566	327.346
583.618	330.15
583.67	331.43
583.721	335.291
583.773	326.323
583.825	337.635
583.877	337.73
583.929	334.828
583.981	351.55
584.033	355.331
584.085	351.76
584.137	350.084
584.189	358.073
584.241	360.031
584.293	356.111
584.345	349.536
584.397	351.898
584.449	353.906
584.501	361.509
584.553	361.356
584.605	364.777
584.657	365.078
584.709	373.585
584.761	368.388
584.813	371.612
584.865	368.881
584.917	363.113
584.969	370.816
585.021	374.259
585.073	379.687
585.125	373.465
585.177	371.683
585.229	380.01
585.281	384.072
585.332	382.336
585.384	377.325
585.436	382.765
585.488	373.64
585.54	380.273
585.592	386.035
585.644	389.191
585.696	383.408
585.748	378.263
585.8	380.475
585.852	382.789
585.904	390.586
585.956	384.722
586.008	377.388
586.06	382.439
586.112	384.544
586.164	394.61
586.216	390.477
586.268	390.013
586.32	402.702
586.371	408.696
586.423	394.979
586.475	392.111
586.527	402.06
586.579	395.023
586.631	401.401
586.683	410.669
586.735	422.301
586.787	414.209
586.839	410.278
586.891	404.838
586.943	402.911
586.995	400.64
587.047	406.74
587.099	415.786
587.151	407.068
587.203	413.751
587.255	415.301
587.306	415.608
587.358	412.692
587.41	413.363
587.462	416.663
587.514	414.974
587.566	410.529
587.618	421.901
587.67	409.287
587.722	409.876
587.774	420.955
587.826	419.192
587.878	425.8
587.93	414.428
587.982	415.859
588.034	429.534
588.085	415.697
588.137	434.032
588.189	427.86
588.241	419.48
588.293	423.252
588.345	428.788
588.397	423.62
588.449	431.861
588.501	430.918
588.553	438.165
588.605	436.179
588.657	431.279
588.709	443.94
588.76	444.697
588.812	445.363
588.864	445.843
588.916	433.715
588.968	448.689
589.02	448.176
589.072	450.036
589.124	449.314
589.176	466.952
589.228	465.289
589.28	462.235
589.332	460.604
589.383	466.378
589.435	466.106
589.487	462.985
589.539	463.923
589.591	470.386
589.643	463.89
589.695	467.417
589.747	465.859
589.799	465.946
589.851	455.599
589.903	464.954
589.955	459.38
590.006	462.578
590.058	449.2
590.11	451.595
590.162	447.224
590.214	445.201
590.266	457.94
590.318	447.917
590.37	455.437
590.422	451.402
590.474	466.97
590.525	450.924
590.577	440.315
590.629	438.124
590.681	445.718
590.733	456.289
590.785	447.704
590.837	443.98
590.889	438.259
590.932	459.924
590.984	449.924
591.036	447.873
591.088	445.971
591.14	436.149
591.192	449.882
591.244	443.858
591.296	438.679
591.348	421.329
591.4	418.364
591.452	424.331
591.504	419.279
591.556	427.249
591.608	436.635
591.66	406.345
591.712	418.961
591.764	401.266
591.816	401.716
591.868	415.342
591.92	420.126
591.972	409.749
592.024	411.28
592.076	419.331
592.128	417.884
592.18	401.616
592.232	421.148
592.284	409.086
592.336	417.895
592.388	399.085
592.44	416.139
592.492	421.459
592.544	409.556
592.596	413.044
592.648	402.278
592.7	410.59
592.752	416.66
592.804	416.954
592.856	404.486
592.908	403.359
592.96	412.722
593.012	404.648
593.064	413.523
593.116	403.793
593.168	402.95
593.22	411.913
593.272	408.073
593.324	401.379
593.376	411.077
593.428	408.577
593.479	418.49
593.531	398.213
593.583	419.219
593.635	412.752
593.687	408.377
593.739	402.722
593.791	413.774
593.843	401.19
593.895	417.263
593.947	403.706
593.999	417.026
594.051	406.316
594.103	417.493
594.155	410.379
594.207	409.163
594.259	390.032
594.311	408.997
594.363	414.14
594.415	409.082
594.467	401.922
594.519	417.701
594.571	407.699
594.623	417.142
594.675	424.545
594.727	412.913
594.779	416.318
594.831	408.578
594.883	417.816
594.935	409.651
594.986	406.36
595.038	406.998
595.09	418.389
595.142	420.216
595.194	410.15
595.246	421.609
595.298	420.817
595.35	430.71
595.402	419.852
595.454	420.24
595.506	425.02
595.558	430.953
595.61	420.528
595.662	435.215
595.714	430.416
595.766	423.397
595.818	443.992
595.87	438.369
595.922	427.521
595.974	429.253
596.026	438.213
596.077	436.935
596.129	441.354
596.181	443.005
596.233	453.727
596.285	453.747
596.337	447.29
596.389	452.756
596.441	448.289
596.493	463.614
596.545	460.558
596.597	468.197
596.649	478
596.701	471.984
596.753	465.203
596.805	459.384
596.857	447.571
596.909	439.075
596.96	451.36
597.012	446.009
597.064	439.872
597.116	426.223
597.168	436.208
597.22	441.084
597.272	436.213
597.324	435.626
597.376	413.713
597.428	429.771
597.48	447.921
597.532	432.882
597.584	437.928
597.636	423.514
597.688	433.643
597.739	442.26
597.791	435.061
597.843	433.365
597.895	448.799
597.947	442.219
597.999	443.283
598.051	431.357
598.103	437.729
598.155	440.042
598.207	450.301
598.259	433.329
598.311	439.8
598.363	438.748
598.414	440.923
598.466	432.566
598.518	437.177
598.57	434.604
598.622	435.452
598.674	432.645
598.726	450.101
598.778	426.744
598.83	443.715
598.882	435.985
598.934	443.337
598.986	432.772
599.037	437.961
599.089	448.51
599.141	432.379
599.193	439.542
599.245	441.143
599.297	440.974
599.349	437.38
599.401	428.995
599.453	422.005
599.505	434.912
599.557	432.371
599.609	426.771
599.66	439.369
599.712	450.6
599.764	448.2
599.816	436.404
599.868	443.864
599.92	445.298
599.972	447.827
600.024	448.078
600.076	444.117
600.128	443.837
600.18	442.383
600.231	444.953
600.283	451.268
600.335	435.505
600.387	436.527
600.439	433.323
600.491	439.35
600.543	442.198
600.595	437.205
600.647	442.129
600.699	440.755
600.75	437.654
600.802	443.735
600.854	449.568
600.906	443.775
600.958	440.68
601.01	429.299
601.062	432.23
601.114	442.357
601.166	442.491
601.217	440.896
601.269	435.667
601.321	443.933
601.373	447.29
601.425	451.171
601.477	450.576
601.529	443.596
601.581	438.48
601.633	430.154
601.685	438.5
601.736	440.372
601.788	448.38
601.84	448.602
601.892	446.66
601.944	450.276
601.996	448.028
602.048	455.414
602.1	441.216
602.151	447.79
602.203	447.86
602.255	439.807
602.307	448.277
602.359	441.194
602.411	438.253
602.463	441.978
602.515	447.792
602.567	447.021
602.618	448.228
602.67	448.541
602.722	450.857
602.774	449.899
602.826	446.65
602.878	437.989
602.93	447.83
602.982	442.136
603.033	444.301
603.085	455.633
603.137	459.118
603.189	460.162
603.241	459.397
603.293	457.274
603.345	452.308
603.396	454.19
603.448	453.865
603.5	463.321
603.552	462.329
603.604	452.824
603.656	452.187
603.708	454.891
603.76	463.105
603.811	471.086
603.863	454.465
603.915	452.146
603.967	462.587
604.019	464.282
604.071	460.029
604.123	468.682
604.174	463.758
604.226	461.477
604.278	465.413
604.33	464.303
604.382	470.487
604.434	469.986
604.486	477.514
604.538	458.418
604.589	469.017
604.641	475.719
604.693	474.226
604.745	456.893
604.797	455.988
604.849	460.623
604.901	453.569
604.952	468.865
605.004	466.753
605.056	462.432
605.108	457.698
605.16	463.494
605.212	471.699
605.263	465.17
605.315	456.977
605.367	449.728
605.419	470.313
605.471	468.398
605.523	459.554
605.575	457.357
605.626	465.499
605.678	455.956
605.73	455.606
605.782	456.641
605.834	467.296
605.886	461.507
605.938	455.646
605.989	458.963
606.041	463.33
606.093	463.508
606.145	472.693
606.197	458.922
606.249	462.121
606.3	460.234
606.352	449.058
606.404	456.992
606.456	463.238
606.508	463.602
606.56	457.33
606.611	456.513
606.663	458.523
606.715	457.3
606.767	457.369
606.819	461.759
606.871	467.376
606.922	470.909
606.974	469.059
607.026	466.544
607.078	459.183
607.13	463.119
607.182	463.642
607.233	458.373
607.285	466.644
607.337	475.6
607.389	472.491
607.441	471.796
607.493	469.009
607.544	473.616
607.596	470.407
607.648	463.969
607.7	470.602
607.752	468.392
607.803	468.665
607.855	469.708
607.907	462.65
607.959	466.45
608.011	464.723
608.063	472.069
608.114	475.262
608.166	475.404
608.218	482.61
608.27	473.318
608.322	462.089
608.374	473.35
608.425	479.531
608.477	474.9
608.529	475.914
608.56	469.605
608.612	476.348
608.664	476.153
608.716	479.187
608.768	484.775
608.82	486.249
608.872	479.149
608.924	473.229
608.976	480.841
609.027	485.737
609.079	463.118
609.131	471.791
609.183	480.459
609.235	483.502
609.287	475.433
609.339	480.646
609.391	492.729
609.443	462.386
609.495	479.114
609.547	478.255
609.598	473.396
609.65	475.184
609.702	491.204
609.754	495.231
609.806	486.879
609.858	477.031
609.91	478.882
609.962	486.566
610.014	493.523
610.065	493.151
610.117	494.424
610.169	490.933
610.221	493.53
610.273	485.319
610.325	488.801
610.377	490.094
610.429	503.646
610.481	505.103
610.533	505.191
610.584	501.004
610.636	487.148
610.688	503.662
610.74	503.059
610.792	490.969
610.844	486.108
610.896	505.348
610.948	496.353
611	490.59
611.052	491.084
611.103	484.1
611.155	488.512
611.207	500.848
611.259	508.642
611.311	493.85
611.363	499.104
611.415	510.247
611.467	500.446
611.518	498.362
611.57	504.737
611.622	498.989
611.674	501.685
611.726	504.376
611.778	510.812
611.83	509.202
611.882	503.727
611.934	511.605
611.985	501.88
612.037	501.621
612.089	484.688
612.141	507.639
612.193	505.14
612.245	504.653
612.297	501.954
612.349	511.361
612.4	508.539
612.452	509.097
612.504	487.809
612.556	504.269
612.608	513.829
612.66	512.915
612.712	519.505
612.764	505.65
612.815	519.101
612.867	507.856
612.919	503.045
612.971	503.069
613.023	525.289
613.075	509.083
613.127	504.801
613.179	509.598
613.23	520.268
613.282	517.497
613.334	524.83
613.386	511.702
613.438	516.617
613.49	516.733
613.542	521.93
613.594	516.892
613.645	526.918
613.697	529.783
613.749	513.072
613.801	520.124
613.853	512.181
613.905	517.422
613.957	525.484
614.008	524.295
614.06	526.961
614.112	514.184
614.164	528.406
614.216	516.4
614.268	541.727
614.32	523.931
614.371	524.565
614.423	535.118
614.475	527.2
614.527	534.995
614.579	527.416
614.631	523.683
614.683	538.427
614.734	542.763
614.786	533.612
614.838	549.075
614.89	543.596
614.942	538.506
614.994	538.912
615.045	554.803
615.097	541.615
615.149	544.378
615.201	525.998
615.253	554.382
615.305	546.229
615.357	546.17
615.408	546.734
615.46	553.668
615.512	560.669
615.564	543.012
615.616	546.973
615.668	556.957
615.719	561.544
615.771	557.075
615.823	549.936
615.875	561.486
615.927	572.164
615.979	564.716
616.031	542.946
616.082	556.097
616.134	551.364
616.186	551.242
616.238	542.628
616.29	567.171
616.342	570.588
616.393	558.405
616.445	564.425
616.497	569.384
616.549	560.519
616.601	561.134
616.653	570.681
616.704	566.281
616.756	582.7
616.808	565.892
616.86	566.394
616.912	576.911
616.964	573.852
617.015	581
617.067	584.757
617.119	591.323
617.171	572.313
617.223	571.184
617.274	584.451
617.326	578.177
617.378	578.87
617.43	578.894
617.482	579.16
617.534	589.151
617.585	571.645
617.637	574.387
617.689	590.191
617.741	583.767
617.793	586.298
617.845	574.002
617.896	577.779
617.948	583.989
618	597.668
618.052	586.956
618.104	576.507
618.155	605.678
618.207	598.607
618.259	578.268
618.311	592.521
618.363	598.229
618.415	599.739
618.466	598.29
618.518	588.475
618.57	599.985
618.622	600.928
618.674	594.23
618.725	596.699
618.777	597.391
618.829	597.393
618.881	587.019
618.933	587.94
618.984	599.297
619.036	603.54
619.088	604.043
619.14	597.421
619.192	594.61
619.244	604.349
619.295	612.246
619.347	597.131
619.399	605.233
619.451	607.029
619.503	612.18
619.554	612.334
619.606	606.624
619.658	614.66
619.71	617.919
619.762	601.114
619.813	619.952
619.865	619.032
619.917	618.938
619.969	614.797
620.021	613.002
620.072	619.321
620.124	623.749
620.176	625.297
620.228	621.052
620.279	622.101
620.331	604.083
620.383	611.603
620.435	617.148
620.487	623.495
620.538	624.865
620.59	619.348
620.642	614.27
620.694	624.635
620.746	616.101
620.797	632.883
620.849	631.776
620.901	621.903
620.953	618.01
621.005	629.712
621.056	638.822
621.108	625.367
621.16	628.233
621.212	633.288
621.263	616.435
621.315	629.051
621.367	628.959
621.419	628.598
621.471	631.516
621.522	617.701
621.574	636.457
621.626	644.52
621.678	627.143
621.729	617.339
621.781	629.878
621.833	622.885
621.885	610.327
621.937	629.7
621.988	625.289
622.04	635.498
622.092	645.444
622.144	634.835
622.195	634.18
622.247	631.416
622.299	627.926
622.351	636.458
622.403	637.149
622.454	619.251
622.506	634.595
622.558	634.316
622.61	632.374
622.661	635.212
622.713	644.503
622.765	637.794
622.817	626.129
622.869	637.324
622.92	631.399
622.972	628.839
623.024	629.216
623.076	632.91
623.127	633.472
623.179	635.406
623.231	642.687
623.283	632.386
623.334	629.177
623.386	618.656
623.438	635.833
623.49	626.167
623.541	624.025
623.593	635.755
623.645	624.269
623.697	631.888
623.748	643.759
623.8	635.128
623.852	636.843
623.904	636.756
623.956	641.582
624.007	630.984
624.059	648.434
624.111	632.124
624.162	641.763
624.214	636.362
624.266	647.242
624.318	647.147
624.37	653.371
624.421	650.368
624.473	638.656
624.525	644.181
624.576	651.791
624.628	641.958
624.68	645.506
624.732	645.081
624.784	648.861
624.835	639.578
624.887	631.592
624.939	636.107
624.99	655.758
625.042	651.399
625.094	651.109
625.146	639.93
625.197	648.621
625.249	658.753
625.301	650.72
625.353	659.402
625.404	660.036
625.456	648.664
625.508	659.746
625.56	659.684
625.611	638.874
625.663	643.517
625.715	657.702
625.767	661.452
625.818	654.534
625.87	657.559
625.922	666.055
625.974	657.355
626.025	645.566
626.077	664.267
626.129	652.026
626.18	650.287
626.197	656.545
626.249	649.45
626.3	653.465
626.352	659.895
626.404	649.996
626.456	653.842
626.508	660.868
626.56	656.221
626.611	671.85
626.663	664.26
626.715	652.188
626.767	657.828
626.819	667.635
626.87	646.609
626.922	656.07
626.974	650.538
627.026	665.297
627.078	667.511
627.13	665.797
627.181	673.992
627.233	678.19
627.285	653.511
627.337	668.243
627.389	667.653
627.44	654.956
627.492	675.417
627.544	695.288
627.596	679.497
627.648	675.364
627.7	674.643
627.751	685.482
627.803	684.258
627.855	659.08
627.907	680.916
627.959	683.207
628.01	671.891
628.062	680.234
628.114	675.845
628.166	674.067
628.218	692.393
628.27	683.146
628.321	678.842
628.373	682.809
628.425	692.601
628.477	687.224
628.529	686.295
628.58	692.304
628.632	672.641
628.684	679.285
628.736	680.834
628.788	699.101
628.839	681.029
628.891	681.109
628.943	687.776
628.995	697.806
629.047	684.551
629.098	691.219
629.15	696.685
629.202	695.668
629.254	700.167
629.306	688.696
629.357	685.901
629.409	688.089
629.461	696.823
629.513	691.801
629.565	700.055
629.616	702.66
629.668	701.471
629.72	707.168
629.772	695.13
629.824	699.543
629.875	685.542
629.927	683.73
629.979	693.602
630.031	707.626
630.083	706.154
630.134	711.669
630.186	703.151
630.238	707.129
630.29	696.258
630.342	699.499
630.393	699.214
630.445	704.118
630.497	716.593
630.549	718.973
630.6	695.886
630.652	709.432
630.704	702.248
630.756	725.104
630.808	708.615
630.859	708.804
630.911	714.466
630.963	701.094
631.015	710.217
631.067	721.579
631.118	724.903
631.17	727.637
631.222	722.731
631.274	717.78
631.325	729.911
631.377	719.33
631.429	733.025
631.481	724.367
631.533	725.862
631.584	714.239
631.636	716.983
631.688	728.317
631.74	724.785
631.791	715.526
631.843	726.398
631.895	740.813
631.947	728.926
631.999	744.449
632.05	741.449
632.102	727.131
632.154	747.204
632.206	741.24
632.257	751.323
632.309	741.022
632.361	738.02
632.413	739.359
632.464	734.504
632.516	755.76
632.568	748.374
632.62	753.993
632.672	759.244
632.723	755.899
632.775	741.51
632.827	735.966
632.879	752.629
632.93	762.164
632.982	765.906
633.034	753.251
633.086	759.721
633.137	748.258
633.189	765.585
633.241	761.909
633.293	756.005
633.344	749.455
633.396	761.904
633.448	783.487
633.5	765.023
633.551	771.94
633.603	768.269
633.655	770.369
633.707	759.841
633.758	774.221
633.81	762.385
633.862	778.261
633.914	794.797
633.965	788.054
634.017	789.137
634.069	780.703
634.121	783.555
634.172	772.267
634.224	774.001
634.276	786.676
634.328	791.816
634.379	793.733
634.431	797.852
634.483	795.812
634.535	790.019
634.586	809.587
634.638	804.422
634.69	804.056
634.742	797.628
634.793	802.107
634.845	791.139
634.897	815.52
634.949	823.475
635	818.189
635.052	812.4
635.104	824.223
635.156	820.271
635.207	816.45
635.259	814.443
635.311	818.94
635.363	837
635.414	835.629
635.466	850.363
635.518	835.985
635.57	827.449
635.621	835.1
635.673	843.837
635.725	842.46
635.776	862.143
635.828	871.187
635.88	869.521
635.932	866.622
635.983	865.842
636.035	878.685
636.087	862.31
636.139	885.426
636.19	884.162
636.242	876.264
636.294	889.193
636.345	896.78
636.397	917.172
636.449	909.024
636.501	930.078
636.552	935.416
636.604	946.144
636.656	959.781
636.708	950.751
636.759	961.678
636.811	960.815
636.863	974.132
636.914	998.572
636.966	1001.66
637.018	992.361
637.07	1014.14
637.121	1022.39
637.173	1035.7
637.225	1047.01
637.276	1052.57
637.328	1059.39
637.38	1076.19
637.432	1071.06
637.483	1080.83
637.535	1089.03
637.587	1084.3
637.638	1111.54
637.69	1119.77
637.742	1118.53
637.794	1127.4
637.845	1112.89
637.897	1103.17
637.949	1147.31
638	1136.06
638.052	1141.8
638.104	1129
638.156	1133.79
638.207	1132.15
638.259	1113.42
638.311	1133.85
638.362	1132.36
638.414	1122.1
638.466	1121.55
638.517	1132.04
638.569	1108.76
638.621	1117.83
638.673	1102.29
638.724	1114.32
638.776	1100.29
638.828	1079.92
638.879	1086.3
638.931	1087.96
638.983	1089.2
639.034	1078.78
639.086	1069.06
639.138	1063.55
639.19	1049.16
639.241	1058.89
639.293	1055.25
639.345	1033.97
639.396	1021.03
639.448	1035.48
639.5	1032.09
639.551	1003.53
639.603	1014.73
639.655	1009
639.706	991.731
639.758	996.624
639.81	994.407
639.862	991.973
639.913	989.191
639.965	989.946
640.017	967.708
640.068	984.718
640.12	1002.55
640.172	977.199
640.223	986.382
640.275	968.883
640.327	944.464
640.378	973.6
640.43	938.763
640.482	975.149
640.533	957.151
640.585	985.875
640.637	963.9
640.688	964.429
640.74	962.886
640.792	956.166
640.844	950.047
640.895	957.925
640.947	941.06
640.999	949.888
641.05	955.214
641.102	953.946
641.154	932.982
641.205	931.401
641.257	947.932
641.309	952.416
641.36	948.409
641.412	947.884
641.464	940.526
641.515	937.487
641.567	958.518
641.619	946.079
641.67	959.46
641.722	954.178
641.774	944.204
641.825	939.604
641.877	954.034
641.929	954.034
641.98	964.977
642.032	936.893
642.084	947.79
642.135	944.463
642.187	947.451
642.239	933.696
642.29	927.079
642.342	935.12
642.394	949.677
642.445	929.576
642.497	943.114
642.549	942.383
642.6	942.456
642.652	934.123
642.704	949.373
642.755	940.443
642.807	943.267
642.859	933.801
642.91	941.939
642.962	967.442
643.013	961.328
643.065	920.763
643.117	945.548
643.168	949.421
643.22	931.977
643.272	942.968
643.323	933.887
643.375	956.967
643.427	947.474
643.478	944.111
643.53	943.206
643.582	941.584
643.633	939.546
643.685	963.016
643.737	957.222
643.788	946.523
643.84	931.207
643.891	946.151
643.898	947.73
643.949	946.103
644.001	970.592
644.053	963.215
644.105	956.131
644.156	950.054
644.208	950.113
644.26	966.107
644.312	953.575
644.363	948.244
644.415	961.54
644.467	958.537
644.519	956.451
644.57	974.141
644.622	964.404
644.674	952.859
644.726	969.477
644.777	953.02
644.829	965.293
644.881	958.828
644.932	976.08
644.984	962.623
645.036	958.15
645.088	963.159
645.139	954.193
645.191	956.438
645.243	968.933
645.295	974.361
645.346	971.089
645.398	977.642
645.45	960.328
645.502	976.88
645.553	968.23
645.605	947.145
645.657	959.783
645.708	976.23
645.76	980.289
645.812	974.366
645.864	974.877
645.915	962.616
645.967	972.645
646.019	958.587
646.071	985.81
646.122	985.133
646.174	968.709
646.226	1002.3
646.277	998.146
646.329	993.707
646.381	969.59
646.433	983.286
646.484	985.788
646.536	982.739
646.588	982.163
646.639	993.084
646.691	985.104
646.743	999.346
646.795	997.269
646.846	996.354
646.898	987.177
646.95	1004.1
647.001	970.116
647.053	1014.19
647.105	996.144
647.157	1007.25
647.208	1024.27
647.26	1038.04
647.312	1003.07
647.363	998.669
647.415	1002.71
647.467	1009.8
647.519	987.596
647.57	1012.26
647.622	1019.71
647.674	997.914
647.725	988.892
647.777	994.944
647.829	992.674
647.881	1011.35
647.932	1011.88
647.984	999.268
648.036	1025.32
648.087	1018.73
648.139	1014.96
648.191	1012.69
648.242	1014.37
648.294	1031.99
648.346	1017.11
648.398	1023.8
648.449	1036.3
648.501	1029.29
648.553	1009.06
648.604	1026.51
648.656	1021.3
648.708	1019.53
648.759	1020.45
648.811	1036.82
648.863	1041.2
648.914	1028.36
648.966	1030.33
649.018	1027.46
649.07	1026.17
649.121	1047.12
649.173	1025.37
649.225	1050.36
649.276	1039.25
649.328	1028.61
649.38	1022.32
649.431	1048.87
649.483	1052.32
649.535	1050.28
649.586	1054.77
649.638	1047.57
649.69	1042.98
649.742	1042.77
649.793	1034.87
649.845	1067.64
649.897	1065.16
649.948	1057.83
650	1040.05
650.052	1064.59
650.103	1053.72
650.155	1058.7
650.207	1047.1
650.258	1078.62
650.31	1056.37
650.362	1063.86
650.413	1065.19
650.465	1040.52
650.517	1056.88
650.568	1049.6
650.62	1083.15
650.672	1077.57
650.723	1072.86
650.775	1061.28
650.827	1049.14
650.878	1085.89
650.93	1073.82
650.982	1089.65
651.034	1075.77
651.085	1082.49
651.137	1068.83
651.189	1070.02
651.24	1084.81
651.292	1084.74
651.344	1099.44
651.395	1100.24
651.447	1078.74
651.499	1096.75
651.55	1094.64
651.602	1091.61
651.654	1075.45
651.705	1105.85
651.757	1087.34
651.809	1112.43
651.86	1087.56
651.912	1095.45
651.964	1104.35
652.015	1124.44
652.067	1095.64
652.118	1093.38
652.17	1111.33
652.222	1118.51
652.273	1125.62
652.325	1132.49
652.377	1109.12
652.428	1116.65
652.48	1122.9
652.532	1109.54
652.583	1125.88
652.635	1136.03
652.687	1119.67
652.738	1129.42
652.79	1155.19
652.842	1121.37
652.893	1135.04
652.945	1121.42
652.997	1123.85
653.048	1136.19
653.1	1137.6
653.152	1118.75
653.203	1129.59
653.255	1121.71
653.307	1143.96
653.358	1157
653.41	1143.61
653.461	1139.15
653.513	1136.37
653.565	1159.16
653.616	1150.57
653.668	1140.31
653.72	1160.29
653.771	1158.25
653.823	1154.71
653.875	1166.57
653.926	1151.32
653.978	1162.06
654.029	1153.08
654.081	1163.95
654.133	1163.75
654.184	1164.59
654.236	1181.19
654.288	1160.29
654.339	1150.61
654.391	1171.93
654.443	1191.33
654.494	1186.48
654.546	1183.6
654.597	1165.67
654.649	1183.62
654.701	1176.27
654.752	1197.86
654.804	1187.02
654.856	1182.27
654.907	1179.31
654.959	1199.05
655.01	1210.85
655.062	1205.19
655.114	1204.11
655.165	1216.65
655.217	1229.61
655.269	1202.06
655.32	1202.47
655.372	1228.32
655.424	1223.05
655.475	1208.81
655.527	1205.55
655.578	1226.25
655.63	1201.4
655.682	1233.83
655.733	1247.49
655.785	1251.3
655.836	1232.57
655.888	1243.54
655.94	1217.92
655.991	1219.07
656.043	1259.16
656.095	1237.65
656.146	1230.48
656.198	1255.57
656.249	1253.4
656.301	1248.09
656.353	1273.07
656.404	1262.58
656.456	1284.95
656.508	1274.59
656.559	1259.85
656.611	1258.59
656.662	1277.35
656.714	1269.04
656.766	1286.11
656.817	1282.84
656.869	1278.74
656.92	1282.11
656.972	1284
657.024	1295.01
657.075	1277.94
657.127	1281.88
657.178	1294.08
657.23	1275.3
657.282	1287.3
657.333	1303.94
657.385	1292.62
657.436	1320.08
657.488	1317.39
657.54	1306.55
657.591	1318.66
657.643	1318.57
657.694	1309.66
657.746	1318.14
657.798	1316.66
657.849	1313.5
657.901	1327.77
657.952	1312.49
658.004	1327.23
658.056	1332.94
658.107	1344.94
658.159	1337.51
658.21	1327.39
658.262	1341.66
658.314	1324.45
658.365	1336.05
658.417	1332
658.468	1345.52
658.52	1332.16
658.571	1353.24
658.623	1339.13
658.675	1350.12
658.726	1343.56
658.778	1336.56
658.829	1342.08
658.881	1361.92
658.933	1342.02
658.984	1337.11
659.036	1379.19
659.087	1358.49
659.139	1372.16
659.19	1354.22
659.242	1357.42
659.294	1358.14
659.345	1338.89
659.397	1341.83
659.448	1347.66
659.5	1367.34
659.552	1339.73
659.603	1345.81
659.655	1352.44
659.706	1358.94
659.758	1364.89
659.809	1349.44
659.861	1336.08
659.913	1336.2
659.964	1348.36
660.016	1347.95
660.067	1338.45
660.119	1337.43
660.17	1343.39
660.222	1342.52
660.274	1374.53
660.325	1362.8
660.377	1367.56
660.428	1337.75
660.48	1341.14
660.531	1361.41
660.583	1379.4
660.635	1370.41
660.686	1344.79
660.738	1359.79
660.789	1363.94
660.841	1349.43
660.892	1361.82
660.944	1360.55
660.995	1376.57
661.047	1348.4
661.099	1361.14
661.15	1344.14
661.202	1356.44
661.253	1347.48
661.305	1339.76
661.356	1354.67
661.408	1345.21
661.46	1348.52
661.511	1339.52
661.532	1342.51
661.583	1338
661.635	1370.67
661.687	1360.19
661.738	1349.99
661.79	1334.44
661.842	1343.78
661.893	1359.11
661.945	1363.42
661.997	1353.81
662.048	1341.61
662.1	1334.36
662.151	1354.84
662.203	1366.8
662.255	1355.13
662.306	1354.29
662.358	1361.31
662.41	1353.93
662.461	1365.3
662.513	1348.44
662.565	1339.24
662.616	1343.64
662.668	1347.3
662.72	1362.25
662.771	1335.73
662.823	1354.4
662.875	1345.19
662.926	1351.26
662.978	1339.92
663.03	1350.14
663.081	1342.99
663.133	1342.37
663.184	1360.84
663.236	1367.39
663.288	1317.23
663.339	1363.51
663.391	1355.41
663.443	1355.67
663.494	1349.32
663.546	1358.28
663.598	1374.49
663.649	1344.19
663.701	1349.71
663.752	1352.14
663.804	1375.64
663.856	1372.58
663.907	1370.04
663.959	1349.91
664.011	1325.2
664.062	1368.32
664.114	1351.82
664.166	1343.31
664.217	1371.62
664.269	1357.27
664.32	1371.93
664.372	1361.46
664.424	1373.14
664.475	1368.08
664.527	1325.86
664.579	1377.13
664.63	1366.86
664.682	1363.57
664.733	1360.53
664.785	1353.23
664.837	1337.7
664.888	1361.53
664.94	1329.27
664.992	1343.49
665.043	1363.97
665.095	1342.58
665.146	1321.38
665.198	1370.44
665.25	1350.84
665.301	1358.45
665.353	1358.31
665.405	1357.32
665.456	1355.63
665.508	1344.32
665.559	1339.4
665.611	1347.05
665.663	1354.56
665.714	1330.75
665.766	1354.2
665.817	1363.18
665.869	1338.18
665.921	1364.17
665.972	1361.46
666.024	1358.63
666.076	1360.35
666.127	1362.68
666.179	1357.56
666.23	1353.47
666.282	1341.69
666.334	1345.1
666.385	1324.35
666.437	1367.84
666.488	1347.5
666.54	1329.31
666.592	1347.95
666.643	1356.99
666.695	1355.62
666.746	1352.79
666.798	1354.49
666.85	1348.87
666.901	1364.17
666.953	1346.23
667.004	1349.6
667.056	1326.95
667.108	1332.25
667.159	1340.79
667.211	1321.58
667.262	1336.66
667.314	1344.43
667.366	1330.35
667.417	1341.67
667.469	1340.69
667.52	1341.75
667.572	1344.18
667.624	1338.01
667.675	1345.64
667.727	1351.49
667.778	1325.46
667.83	1328.81
667.882	1359.03
667.933	1356.67
667.985	1338.49
668.036	1342.15
668.088	1359.61
668.14	1341.25
668.191	1328.89
668.243	1330.58
668.294	1337.19
668.346	1354.15
668.397	1337.71
668.449	1342.73
668.501	1328.66
668.552	1342.97
668.604	1349.27
668.655	1359.16
668.707	1345.34
668.759	1346.91
668.81	1361.7
668.862	1337.97
668.913	1372.7
668.965	1331.5
669.016	1353.66
669.068	1350.59
669.12	1323.66
669.171	1359.44
669.223	1334.88
669.274	1341.35
669.326	1360.19
669.377	1331.42
669.429	1343.28
669.481	1331.59
669.532	1336.78
669.584	1350.69
669.635	1329.14
669.687	1354.4
669.738	1346.27
669.79	1334.62
669.842	1347.29
669.893	1327.87
669.945	1353.56
669.996	1321.49
670.048	1314.79
670.099	1345.16
670.151	1341.39
670.203	1354.36
670.254	1335.03
670.306	1340.47
670.357	1336.62
670.409	1342.94
670.46	1349.94
670.512	1350.18
670.564	1353.23
670.615	1336.18
670.667	1329.68
670.718	1326.94
670.77	1326.69
670.821	1327.32
670.873	1343.91
670.924	1345.88
670.976	1356.6
671.028	1350.58
671.079	1332.33
671.131	1347.82
671.182	1324.17
671.234	1341.16
671.285	1350.35
671.337	1348.56
671.388	1336.54
671.44	1335.62
671.492	1362.46
671.543	1356.93
671.595	1353.79
671.646	1330.21
671.698	1351.74
671.749	1338.38
671.801	1348.99
671.852	1334.46
671.904	1341.36
671.956	1327.07
672.007	1341.09
672.059	1356.21
672.11	1338.02
672.162	1346.78
672.213	1368.02
672.265	1320.08
672.316	1335.66
672.368	1333.68
672.419	1361.69
672.471	1346.28
672.522	1356.8
672.574	1355.47
672.626	1361.19
672.677	1357.59
672.729	1349.48
672.78	1352.21
672.832	1348.74
672.883	1377.18
672.935	1366.79
672.986	1351.74
673.038	1364.56
673.089	1355.53
673.141	1353.37
673.192	1363.87
673.244	1378.82
673.296	1374.16
673.347	1362.33
673.399	1360.9
673.45	1365.76
673.502	1370.47
673.553	1376.07
673.605	1372.33
673.656	1360.72
673.708	1360.94
673.759	1370.56
673.811	1364.48
673.862	1379.46
673.914	1380.05
673.965	1377.34
674.017	1382.16
674.068	1380.45
674.12	1395.63
674.171	1395.72
674.223	1404.56
674.275	1400.95
674.326	1381.86
674.378	1376.11
674.429	1378.18
674.481	1389.99
674.532	1378.83
674.584	1377.29
674.635	1397.21
674.687	1422.32
674.738	1395.2
674.79	1394.33
674.841	1408.37
674.893	1396.11
674.944	1402.16
674.996	1391.75
675.047	1407.49
675.099	1390.8
675.15	1388.91
675.202	1391.75
675.253	1417.91
675.305	1443
675.356	1439.62
675.408	1423.45
675.459	1412.21
675.511	1413.56
675.562	1412.68
675.614	1418.37
675.665	1439.44
675.717	1440.75
675.768	1411.56
675.82	1400.01
675.871	1419.22
675.923	1415.67
675.974	1414.62
676.026	1431.5
676.077	1428.38
676.129	1413.55
676.18	1431.79
676.232	1436.55
676.283	1418.75
676.335	1412.43
676.386	1436.46
676.438	1437.75
676.489	1420.02
676.541	1427
676.592	1436.45
676.644	1436.79
676.695	1434.86
676.747	1453.46
676.798	1432.89
676.85	1419.48
676.901	1433.77
676.953	1440.02
677.004	1448.38
677.056	1431.22
677.107	1412.01
677.159	1430.13
677.21	1446.24
677.262	1447.43
677.313	1425.82
677.365	1430.83
677.416	1424.16
677.468	1448.7
677.519	1429.62
677.571	1439.29
677.622	1432.13
677.674	1442.77
677.725	1441.02
677.777	1418.48
677.828	1423.05
677.88	1430.35
677.931	1437.76
677.982	1444.09
678.034	1432.13
678.085	1435.74
678.137	1459.48
678.188	1424.52
678.24	1441.55
678.291	1422.27
678.343	1413.1
678.394	1437.6
678.446	1432.83
678.497	1430.28
678.549	1431.19
678.6	1435.88
678.652	1419.72
678.703	1419.41
678.755	1409.4
678.806	1426.13
678.857	1431.18
678.909	1436.79
678.96	1416.71
679.012	1417.45
679.063	1425.02
679.083	1418.12
679.135	1436.91
679.186	1428.27
679.238	1446.39
679.289	1439.2
679.341	1425.11
679.392	1427.65
679.444	1435.58
679.496	1410.97
679.547	1417.13
679.599	1406.98
679.65	1432.01
679.702	1444.23
679.753	1409.97
679.805	1438.48
679.857	1444.72
679.908	1430.69
679.96	1425.6
680.011	1424.57
680.063	1424
680.114	1405.89
680.166	1448.83
680.217	1413.93
680.269	1422.53
680.321	1431.69
680.372	1440.81
680.424	1443.93
680.475	1439.18
680.527	1452.44
680.578	1466.04
680.63	1444.99
680.682	1438.29
680.733	1453.33
680.785	1439.37
680.836	1431.75
680.888	1448.85
680.939	1433.26
680.991	1448.17
681.042	1455.17
681.094	1448.94
681.146	1443.26
681.197	1437.07
681.249	1447.39
681.3	1443.94
681.352	1469.71
681.403	1470.96
681.455	1461.27
681.506	1465.84
681.558	1451.21
681.609	1478.94
681.661	1458.46
681.712	1436.24
681.764	1431.58
681.816	1472.45
681.867	1457.93
681.919	1456.19
681.97	1433.2
682.022	1455.93
682.073	1481.18
682.125	1450.89
682.176	1468.61
682.228	1458.36
682.279	1489.02
682.331	1481.19
682.383	1484.88
682.434	1474.49
682.486	1440.41
682.537	1489.29
682.589	1466.7
682.64	1497.05
682.692	1501.33
682.743	1483.46
682.795	1465.72
682.846	1462.15
682.898	1463.11
682.949	1476.89
683.001	1484.93
683.052	1464.51
683.104	1490.82
683.156	1477.08
683.207	1481.68
683.259	1461.24
683.31	1471.59
683.362	1476.89
683.413	1495.66
683.465	1467.28
683.516	1468.04
683.568	1477.64
683.619	1475.67
683.671	1482.39
683.722	1485.22
683.774	1472.75
683.825	1472.3
683.877	1453.79
683.928	1458.05
683.98	1474.93
684.031	1489.49
684.083	1478.99
684.134	1469.29
684.186	1456.81
684.237	1476.34
684.289	1463.56
684.341	1463.51
684.392	1464.91
684.444	1472.1
684.495	1470.75
684.547	1471.36
684.598	1440.84
684.65	1468.37
684.701	1453.72
684.753	1461.45
684.804	1441.12
684.856	1463.83
684.907	1445.39
684.959	1444.95
685.01	1440.57
685.062	1467.77
685.113	1462.85
685.165	1465.4
685.216	1450.33
685.268	1466.38
685.319	1437.68
685.371	1423.92
685.422	1455.75
685.474	1455.72
685.525	1453.33
685.577	1436.91
685.628	1438.3
685.68	1451.1
685.731	1448.76
685.783	1443.88
685.834	1425.98
685.886	1434.07
685.937	1438.47
685.989	1428.4
686.04	1457.91
686.092	1442.52
686.143	1413.47
686.195	1429.89
686.246	1413.73
686.298	1452.55
686.349	1448.76
686.401	1445.94
686.452	1435.25
686.504	1412.76
686.555	1438.49
686.607	1450.08
686.658	1418.52
686.71	1415.66
686.761	1424.82
686.813	1436.51
686.864	1448.25
686.916	1407.98
686.967	1438.55
687.018	1443.05
687.07	1433.67
687.121	1441.34
687.173	1442.53
687.224	1439.02
687.276	1426.34
687.327	1407.83
687.379	1436.13
687.43	1415.22
687.482	1423.7
687.533	1454.16
687.585	1429.39
687.636	1420.39
687.688	1427.25
687.739	1422
687.791	1443.67
687.842	1407.23
687.894	1446.37
687.945	1433.25
687.997	1411.29
688.048	1420.6
688.1	1396.83
688.151	1409.51
688.203	1441.9
688.254	1429.69
688.305	1423.16
688.357	1414.01
688.408	1455.41
688.46	1400.37
688.511	1435.4
688.563	1440.45
688.614	1420.97
688.666	1424.7
688.717	1416.7
688.769	1427
688.82	1433.99
688.872	1406.92
688.923	1425.73
688.974	1434.67
689.026	1434.11
689.077	1423.41
689.129	1412.03
689.18	1431.02
689.232	1419.31
689.283	1419.69
689.335	1411.7
689.386	1415.31
689.438	1405.96
689.489	1417.37
689.541	1407.76
689.592	1430.67
689.643	1406.81
689.695	1404.29
689.746	1424.48
689.798	1400.23
689.849	1412.5
689.901	1425.23
689.952	1413.77
690.004	1416.35
690.055	1426.88
690.107	1425.59
690.158	1421.07
690.209	1403.63
690.261	1408.07
690.312	1402.07
690.364	1396.55
690.415	1423.02
690.467	1423.19
690.518	1409.04
690.57	1416.8
690.621	1394.9
690.672	1414.91
690.724	1402.7
690.775	1407.71
690.827	1438.26
690.878	1415.45
690.93	1395.8
690.981	1382.12
691.033	1391.83
691.084	1391.04
691.135	1388.17
691.187	1367.69
691.238	1382.62
691.29	1403.94
691.341	1392.01
691.393	1397.79
691.444	1414.26
691.495	1394.83
691.547	1381.93
691.598	1369.92
691.65	1373.04
691.701	1397.89
691.753	1384.81
691.804	1378.65
691.856	1381.48
691.907	1385.6
691.958	1387.77
692.01	1376.8
692.061	1377.36
692.113	1377.76
692.164	1378.72
692.216	1373
692.267	1403.2
692.318	1393.58
692.37	1382.61
692.421	1387.77
692.473	1376.93
692.524	1382.35
692.576	1377.29
692.627	1380.92
692.678	1386.19
692.73	1385.87
692.781	1376.73
692.833	1373.68
692.884	1383.09
692.935	1373.27
692.987	1362.19
693.038	1367.26
693.09	1375.47
693.141	1367.46
693.193	1377.17
693.244	1375.41
693.295	1368.7
693.347	1360.59
693.398	1374.55
693.45	1361.9
693.501	1371.01
693.552	1358.11
693.604	1331.9
693.655	1356.95
693.707	1380.06
693.758	1359.01
693.809	1354.36
693.861	1360.81
693.912	1360.69
693.964	1356.41
694.015	1361.84
694.066	1355.19
694.118	1346.66
694.169	1356.33
694.221	1361.13
694.272	1360.3
694.323	1359.46
694.375	1361.56
694.426	1357.6
694.478	1356.54
694.529	1362.13
694.581	1378.42
694.632	1367.21
694.683	1349.08
694.735	1359.42
694.786	1353.14
694.837	1352.15
694.889	1361.19
694.94	1368.16
694.992	1356.47
695.043	1340.88
695.094	1321.83
695.146	1332.15
695.197	1329.53
695.249	1343.67
695.3	1365.77
695.351	1349.28
695.403	1346.91
695.454	1349.61
695.506	1355.75
695.557	1358.54
695.608	1347.2
695.66	1343.66
695.711	1350.65
695.763	1348.36
695.814	1348.31
695.865	1349.97
695.917	1337.03
695.968	1335.53
696.019	1343.41
696.071	1342.33
696.122	1329.43
696.174	1332.96
696.225	1316.06
696.276	1312.68
696.328	1323.16
696.379	1328.8
696.43	1341.26
696.482	1329.56
696.533	1337.78
696.585	1330.14
696.636	1299.13
696.687	1321.49
696.707	1335.04
696.759	1338.39
696.81	1325.47
696.862	1311.76
696.913	1332.23
696.965	1316.54
697.016	1329.71
697.068	1327.93
697.119	1322.76
697.171	1329.71
697.222	1312.56
697.274	1300.93
697.325	1311.54
697.377	1326.73
697.428	1314.45
697.479	1316.07
697.531	1325.61
697.582	1319.04
697.634	1309.99
697.685	1296.55
697.737	1322.4
697.788	1323.11
697.84	1312.2
697.891	1282.79
697.943	1307.65
697.994	1299.4
698.046	1306.81
698.097	1312.64
698.149	1294.62
698.2	1284.51
698.252	1304.07
698.303	1302.53
698.354	1296.53
698.406	1300.05
698.457	1280.46
698.509	1296.79
698.56	1306.5
698.612	1275.78
698.663	1304.29
698.715	1291.68
698.766	1268.25
698.818	1278.57
698.869	1291.88
698.921	1287.54
698.972	1281.91
699.023	1264.31
699.075	1285.37
699.126	1277.66
699.178	1264.31
699.229	1278.32
699.281	1287.96
699.332	1283.68
699.384	1279.79
699.435	1276.68
699.487	1278.01
699.538	1271.17
699.589	1263.41
699.641	1258.83
699.692	1277.79
699.744	1268.56
699.795	1270.37
699.847	1281.78
699.898	1253.49
699.95	1259.24
700.001	1272.39
700.052	1274.25
700.104	1265.03
700.155	1268.87
700.207	1282.04
700.258	1286.47
700.31	1264.24
700.361	1283.33
700.413	1276.01
700.464	1276.28
700.515	1278.37
700.567	1276.1
700.618	1265.66
700.67	1258.35
700.721	1262.7
700.773	1255.54
700.824	1256.25
700.875	1272.74
700.927	1258.03
700.978	1252.83
701.03	1253.16
701.081	1261.97
701.133	1262.9
701.184	1276.79
701.235	1269.54
701.287	1282.51
701.338	1266.84
701.39	1265.1
701.441	1276.07
701.493	1247.95
701.544	1239.28
701.596	1248.52
701.647	1260.58
701.698	1239.61
701.75	1225.34
701.801	1264.64
701.853	1265.33
701.904	1254.94
701.956	1248.11
702.007	1263.26
702.058	1276.39
702.11	1274.2
702.161	1272.99
702.213	1285.94
702.264	1254.68
702.315	1248.7
702.367	1245.5
702.418	1268.51
702.47	1275.85
702.521	1270.83
702.573	1252.89
702.624	1229.83
702.675	1258.36
702.727	1275.55
702.778	1260.42
702.83	1259.13
702.881	1251.79
702.932	1261.58
702.984	1261.54
703.035	1246.87
703.087	1266.96
703.138	1262.9
703.19	1248.51
703.241	1262.71
703.292	1264.48
703.344	1278.11
703.395	1267.99
703.447	1262.54
703.498	1240.61
703.549	1266.87
703.601	1259.59
703.652	1248.19
703.704	1246.96
703.755	1264.31
703.806	1246.93
703.858	1258.26
703.909	1253.2
703.961	1238.62
704.012	1252.94
704.063	1243.11
704.115	1263.94
704.166	1247.55
704.218	1258.77
704.269	1255.79
704.32	1247.14
704.372	1250.19
704.423	1255.63
704.475	1244.48
704.526	1243.7
704.577	1243.39
704.629	1243.2
704.68	1233.76
704.732	1238
704.783	1233.62
704.834	1255.8
704.886	1261.38
704.937	1229.67
704.988	1226.98
705.04	1223.21
705.091	1235.43
705.143	1229.69
705.194	1231.47
705.245	1219.99
705.297	1235.35
705.348	1218.73
705.4	1232.99
705.451	1229.33
705.502	1225.92
705.554	1253.08
705.605	1246.81
705.656	1246.15
705.708	1219.42
705.759	1227.71
705.811	1207.52
705.862	1220.59
705.913	1232.84
705.965	1248.91
706.016	1236.41
706.068	1219.52
706.119	1207.35
706.17	1189.14
706.222	1215.68
706.273	1214.04
706.324	1219.83
706.376	1210.18
706.427	1203.08
706.479	1199.15
706.53	1195.1
706.581	1204.77
706.633	1210.27
706.684	1206.5
706.735	1189.46
706.787	1189.39
706.838	1197.54
706.889	1201.39
706.941	1199.8
706.992	1201.3
707.044	1182.01
707.095	1184.25
707.146	1197.8
707.198	1190.39
707.249	1190.09
707.3	1207.74
707.352	1214.57
707.403	1187.44
707.454	1195.4
707.506	1203.4
707.557	1205.36
707.609	1194.53
707.66	1176.21
707.711	1199.03
707.763	1197.52
707.814	1188.37
707.865	1199.56
707.917	1184.39
707.968	1170.41
708.019	1178.79
708.071	1164.49
708.122	1175.49
708.173	1162.23
708.225	1191.31
708.276	1177.42
708.328	1178.96
708.379	1179.74
708.43	1167.45
708.482	1176.15
708.533	1163.19
708.584	1169.67
708.636	1165.51
708.687	1161.46
708.738	1176.29
708.79	1172.11
708.841	1174.87
708.892	1183.66
708.944	1181.79
708.995	1180.32
709.046	1177.03
709.098	1174.42
709.149	1175.67
709.2	1159.35
709.252	1167.03
709.303	1171.76
709.354	1177.32
709.406	1178.19
709.457	1166.51
709.508	1172.68
709.56	1165.25
709.611	1184.91
709.662	1153.26
709.714	1147.28
709.765	1162.28
709.816	1171.26
709.868	1156.24
709.919	1158.25
709.97	1173.28
710.022	1175.47
710.073	1141.19
710.124	1128.12
710.176	1152.14
710.227	1166.85
710.278	1160.3
710.33	1135.6
710.381	1148.82
710.432	1168.37
710.484	1158.01
710.535	1168.92
710.586	1155.22
710.638	1151.32
710.689	1144.93
710.74	1138.17
710.792	1154.1
710.843	1151.89
710.894	1133.95
710.946	1134.64
710.997	1142.07
711.048	1138
711.1	1146.77
711.151	1136.53
711.202	1150.07
711.254	1150.42
711.305	1115.98
711.356	1139.86
711.407	1125.26
711.459	1153.06
711.51	1120.27
711.561	1125.37
711.613	1129.57
711.664	1130.1
711.715	1121.88
711.767	1133.23
711.818	1131.54
711.869	1115.72
711.921	1121.66
711.972	1134.72
712.023	1116.38
712.075	1104.9
712.126	1121.9
712.177	1115.07
712.228	1128.58
712.28	1132.34
712.331	1135.31
712.382	1127.39
712.434	1114.16
712.485	1102.09
712.536	1122.19
712.588	1101.99
712.639	1095.92
712.69	1114.07
712.741	1113.41
712.793	1107.58
712.844	1112.19
712.895	1103.51
712.947	1100.69
712.998	1126.32
713.049	1098.94
713.101	1095.64
713.152	1099.93
713.203	1106.04
713.254	1121.69
713.306	1114.22
713.357	1092.78
713.408	1106.64
713.46	1101.91
713.511	1088.68
713.562	1110.27
713.613	1070.89
713.665	1101.37
713.716	1084.17
713.767	1088.51
713.819	1076.87
713.87	1086.08
713.921	1077.53
713.972	1068.41
714.024	1081.01
714.075	1065.32
714.126	1065.87
714.178	1085.55
714.18	1086.25
714.231	1077.96
714.283	1089.32
714.334	1071.96
714.385	1071.62
714.437	1082.07
714.488	1065.65
714.539	1067.3
714.591	1051.32
714.642	1046.61
714.694	1030.74
714.745	1043.48
714.796	1072.71
714.848	1071.24
714.899	1046.12
714.951	1060.33
715.002	1054.95
715.053	1059.37
715.105	1055.47
715.156	1064.11
715.207	1055.58
715.259	1047.32
715.31	1075.5
715.362	1061.15
715.413	1048.54
715.464	1047.74
715.516	1055.06
715.567	1056.87
715.618	1055.72
715.67	1064.95
715.721	1064.73
715.773	1044.01
715.824	1050.53
715.875	1064.48
715.927	1059.27
715.978	1041.14
716.029	1039.25
716.081	1044.23
716.132	1054.31
716.184	1045.33
716.235	1054.97
716.286	1046.12
716.338	1030.29
716.389	1026.51
716.44	1047.1
716.492	1006.91
716.543	1022.72
716.594	1022.59
716.646	1017.1
716.697	1037.82
716.749	1038.29
716.8	1026.07
716.851	1023.9
716.903	1022.21
716.954	1029.97
717.005	1022.23
717.057	1046.71
717.108	1043.95
717.159	1014.92
717.211	1014.12
717.262	1031.51
717.314	1018.97
717.365	1034.87
717.416	1025.76
717.468	1016.97
717.519	1022.8
717.57	1023.13
717.622	1022.93
717.673	1025.32
717.724	1011.49
717.776	1006.68
717.827	1019.07
717.878	1042.41
717.93	1027.27
717.981	1017.46
718.032	1023.75
718.084	1012.59
718.135	1021.22
718.187	1023.82
718.238	1030.56
718.289	1026.9
718.341	1011.56
718.392	1003.57
718.443	989.364
718.495	1003.17
718.546	1013.78
718.597	1013.53
718.649	1025.17
718.7	993.78
718.751	1019.69
718.803	1011.59
718.854	1001.44
718.905	1008.67
718.957	984.274
719.008	985.624
719.059	1004
719.111	1014.14
719.162	1010.13
719.213	1005.79
719.265	1007.02
719.316	1007.28
719.367	1008.11
719.419	992.742
719.47	968.199
719.521	986.676
719.573	1005.56
719.624	993.9
719.675	998.386
719.727	999.314
719.778	1004.9
719.829	971.127
719.881	977.851
719.932	1001.25
719.983	1005.94
720.035	996.95
720.086	987.872
720.137	973.195
720.189	986.924
720.24	975.207
720.291	973.966
720.343	1005.16
720.394	990.634
720.445	970.455
720.496	972.084
720.548	966.697
720.599	979.087
720.65	974.046
720.702	974.893
720.753	971.527
720.804	973.287
720.856	968.824
720.907	947.582
720.958	972.25
721.01	966.646
721.061	977.819
721.112	988.018
721.164	966.256
721.215	942.154
721.266	949.936
721.318	960.33
721.369	968.721
721.42	969.625
721.471	974.449
721.523	960.156
721.574	979.035
721.625	965.066
721.677	959.074
721.728	954.582
721.779	963.578
721.831	953.39
721.882	953.835
721.933	960.078
721.984	956.212
722.036	941.001
722.087	957.925
722.138	958.987
722.19	958.798
722.241	946.119
722.292	920.245
722.344	921.707
722.395	934.488
722.446	946.509
722.497	944.961
722.549	934.784
722.6	936.504
722.651	938.114
722.703	932.576
722.754	916.234
722.805	938.1
722.857	945.155
722.908	926.303
722.959	950.236
723.01	944.16
723.062	926.524
723.113	930.174
723.164	930.662
723.216	933.017
723.267	917.114
723.318	920.636
723.369	924.391
723.421	935.473
723.472	938.854
723.523	928.076
723.575	926.202
723.626	925.449
723.677	929.868
723.728	926.589
723.78	909.681
723.831	905.012
723.882	914.256
723.934	931.63
723.985	917.185
724.036	935.503
724.087	932.69
724.139	919.759
724.19	926.079
724.241	931.435
724.292	913.569
724.344	902.987
724.395	906.681
724.446	900.86
724.498	918.447
724.549	914.958
724.6	914.641
724.651	924.973
724.703	913.867
724.754	908.336
724.805	916.02
724.856	919.982
724.908	905.511
724.959	910.369
725.01	918.803
725.062	919.247
725.113	909.06
725.164	911.302
725.215	920.85
725.267	907.5
725.318	893.223
725.369	912.94
725.42	900.174
725.472	909.298
725.523	905.675
725.574	906.463
725.625	909.731
725.677	902.909
725.728	908.423
725.779	907.54
725.83	897.711
725.882	890.869
725.933	880.722
725.984	886.402
726.036	883.681
726.087	899.771
726.138	890.158
726.189	889.194
726.241	889.918
726.292	899.215
726.343	892.113
726.394	884.266
726.445	878.508
726.497	903.966
726.548	902.488
726.599	892.711
726.651	888.013
726.702	894.663
726.753	883.635
726.804	889.129
726.855	889.166
726.907	892.963
726.958	878.81
727.009	888.426
727.06	860.316
727.112	892.032
727.163	879.431
727.214	881.054
727.265	878.862
727.317	889.604
727.368	876.622
727.419	858.623
727.47	862.941
727.522	857.932
727.573	868.911
727.624	877.993
727.675	873.204
727.727	863.517
727.778	867.703
727.829	887.118
727.88	859.737
727.932	860.765
727.983	858.742
728.034	872.92
728.085	860.233
728.136	868.662
728.188	854.605
728.239	864.645
728.29	852.759
728.341	874.372
728.393	864.551
728.444	852.85
728.495	852.326
728.546	847.351
728.597	846.172
728.649	858.94
728.7	848.359
728.751	849.346
728.802	838.171
728.854	843.412
728.905	851.428
728.956	842.706
729.007	867.313
729.058	857.578
729.11	856.366
729.161	838
729.212	835.38
729.263	849.771
729.315	846.078
729.366	844.284
729.417	818.826
729.468	832.743
729.519	818.181
729.571	854.061
729.622	843.74
729.673	840.506
729.724	842.203
729.775	805.239
729.827	822.38
729.878	849.859
729.929	838.522
729.98	834.137
730.031	817.253
730.083	842.09
730.134	836.228
730.185	842.687
730.236	818.9
730.288	820.93
730.339	826.042
730.39	823.786
730.441	815.294
730.492	830.766
730.544	828.899
730.595	819.756
730.646	782.283
730.697	813.381
730.748	815.502
730.8	812.384
730.851	815.822
730.902	830.785
730.953	789.281
731.004	813.338
731.056	809.984
731.107	810.865
731.158	817.642
731.209	809.332
731.26	811.304
731.312	795.485
731.363	808.017
731.414	812.486
731.465	819.121
731.516	818.14
731.567	824.66
731.619	815.443
731.622	814.658
731.673	808.439
731.725	823.259
731.776	815.17
731.827	807.721
731.878	797.088
731.93	806.891
731.981	802.728
732.032	822.426
732.084	802.057
732.135	791.92
732.186	775.65
732.237	788.571
732.289	822.195
732.34	810.904
732.391	805.747
732.443	789.692
732.494	823.537
732.545	821.645
732.597	812.941
732.648	801.297
732.699	815.078
732.75	819.187
732.802	805.729
732.853	781.773
732.904	808.761
732.956	799.426
733.007	811.965
733.058	792.243
733.109	792.072
733.161	789.899
733.212	799.261
733.263	798.926
733.315	798.05
733.366	800.076
733.417	809.763
733.468	780.602
733.52	809.315
733.571	800.207
733.622	798.207
733.673	806.273
733.725	810.794
733.776	807.605
733.827	796.845
733.879	795.501
733.93	805.59
733.981	808.401
734.032	830.387
734.084	826.113
734.135	802.595
734.186	800.693
734.237	808.557
734.289	805.355
734.34	810.339
734.391	800.701
734.443	810.322
734.494	816.758
734.545	822.104
734.596	820.613
734.648	811.548
734.699	822.525
734.75	839.984
734.801	831.791
734.853	792.683
734.904	822.537
734.955	810.688
735.006	816.654
735.058	830.996
735.109	838.463
735.16	811.797
735.211	839.728
735.263	837.665
735.314	821.67
735.365	823.614
735.417	847.099
735.468	829.005
735.519	831.102
735.57	841.347
735.622	851.885
735.673	835.461
735.724	862.198
735.775	847.833
735.827	841.128
735.878	839.292
735.929	845.949
735.98	851.427
736.032	849.992
736.083	860.149
736.134	872.155
736.185	875.563
736.237	869.638
736.288	862.063
736.339	862.107
736.39	873.285
736.442	877.555
736.493	876.552
736.544	865.026
736.595	870.45
736.646	888.447
736.698	903.481
736.749	903.774
736.8	893.869
736.851	906.704
736.903	908.224
736.954	908.478
737.005	912.187
737.056	920.395
737.108	923.614
737.159	909.902
737.21	943.351
737.261	930.72
737.313	936.19
737.364	957.574
737.415	941.477
737.466	928.9
737.518	931.636
737.569	955.82
737.62	948.142
737.671	959.849
737.722	942.094
737.774	960.308
737.825	964.123
737.876	948.599
737.927	959.27
737.979	969.992
738.03	967.941
738.081	967.848
738.132	977.86
738.183	964.195
738.235	977.51
738.286	958.001
738.337	968.877
738.388	969.696
738.44	978.734
738.491	963.108
738.542	964.855
738.593	956.823
738.644	964.252
738.696	971.662
738.747	959.756
738.798	962.836
738.849	969.116
738.901	958.063
738.952	958.031
739.003	954.45
739.054	960.625
739.105	944.65
739.157	937.022
739.208	934.694
739.259	939.049
739.31	933.077
739.361	920.734
739.413	916.051
739.464	933.854
739.515	913.767
739.566	912.967
739.617	892.793
739.669	887.857
739.72	892.261
739.771	889.808
739.822	874.732
739.874	864.828
739.925	878.554
739.976	866.784
740.027	861.941
740.078	861.789
740.13	868.715
740.181	864.576
740.232	868.884
740.283	861.665
740.334	864.319
740.385	856.769
740.437	843.631
740.488	842.458
740.539	840.209
740.59	846.887
740.641	837.116
740.693	827.707
740.744	819.293
740.795	822.599
740.846	818.912
740.897	810.651
740.949	794.699
741	808.005
741.051	807.052
741.102	791.892
741.153	795.071
741.205	802.828
741.256	784.21
741.307	789.085
741.358	781.621
741.409	786.208
741.461	788.843
741.512	791.379
741.563	786.179
741.614	782.63
741.665	783.051
741.716	781.002
741.768	761.566
741.819	772.091
741.87	768.533
741.921	768.822
741.972	766.509
742.024	769.466
742.075	766.911
742.126	753.116
742.177	748.87
742.228	756.019
742.279	746.527
742.331	744.829
742.382	741.333
742.433	735.933
742.484	738.686
742.535	741.072
742.586	745.75
742.638	745.763
742.689	746.146
742.74	748.576
742.791	741.748
742.842	739.698
742.893	740.073
742.945	729.955
742.996	734.309
743.047	747.226
743.098	727.097
743.149	728.316
743.201	721.847
743.252	719.819
743.303	719.794
743.354	712.276
743.405	711.625
743.456	714.831
743.507	714.798
743.559	704.093
743.61	726.087
743.661	722.89
743.712	711.664
743.763	712.652
743.814	712.092
743.866	696.961
743.917	701.515
743.968	695.775
744.019	690.923
744.07	709.891
744.121	716.048
744.172	698.917
744.224	694.458
744.275	691.831
744.326	685.691
744.377	679.374
744.428	687.56
744.479	701.274
744.531	692.281
744.582	693.666
744.633	701.367
744.684	683.489
744.735	670.908
744.786	686.526
744.837	678.298
744.889	692.849
744.94	693.72
744.991	673.367
745.042	683.023
745.093	694.283
745.144	699.288
745.195	689.704
745.247	675.336
745.298	671.837
745.349	677.786
745.4	671.297
745.451	658.963
745.502	660.483
745.553	667.569
745.605	677.614
745.656	689.933
745.707	682.438
745.758	676.446
745.809	669.853
745.86	676.071
745.911	677.925
745.962	675.223
746.014	659.426
746.065	661.017
746.116	666.534
746.167	677.521
746.218	667.828
746.269	667.957
746.32	663.419
746.372	657.419
746.423	652.593
746.474	664.365
746.525	659.189
746.576	661.876
746.627	656.206
746.678	660.325
746.729	651.988
746.78	653.338
746.832	652.405
746.883	655.593
746.934	662.681
746.985	674.109
747.036	653.725
747.087	646.386
747.138	653.994
747.189	650.514
747.241	655.383
747.292	663.578
747.343	663.25
747.394	659.575
747.445	652.747
747.496	641.965
747.547	649.91
747.598	642.945
747.649	641.199
747.701	643.994
747.752	630.187
747.803	641.711
747.854	643.917
747.905	634.17
747.956	632.594
748.007	638.47
748.058	635.665
748.109	654.127
748.161	641.11
748.212	630.77
748.263	641.425
748.314	636.858
748.365	623.944
748.416	639.073
748.467	639.42
748.518	650.968
748.569	638.499
748.62	647.935
748.672	639.524
748.723	638.647
748.774	644.66
748.825	631.336
748.876	629.44
748.927	620.442
748.978	608.548
749.029	622.093
749.08	627.945
749.131	630.461
749.173	630.137
749.224	639.984
749.275	632.656
749.326	618.529
749.378	627.437
749.429	624.78
749.48	615.564
749.531	618.348
749.582	622.361
749.634	625.195
749.685	625.65
749.736	619.392
749.787	622.559
749.838	609.739
749.89	612.043
749.941	617.724
749.992	612.532
750.043	615.693
750.094	608.962
750.146	621.776
750.197	625.527
750.248	618.67
750.299	604.757
750.35	605.963
750.401	615.146
750.453	614.18
750.504	609.778
750.555	606.215
750.606	624.268
750.657	609.706
750.709	611.952
750.76	617.492
750.811	623.273
750.862	599.781
750.913	597.378
750.964	603.127
751.016	601.185
751.067	595.149
751.118	629.477
751.169	609.448
751.22	608.965
751.272	605.486
751.323	616.114
751.374	611.142
751.425	600.249
751.476	598.644
751.528	605.425
751.579	601.595
751.63	596.3
751.681	597.833
751.732	607.476
751.783	592.091
751.835	600.406
751.886	597.19
751.937	596.184
751.988	598.112
752.039	590.154
752.09	596.41
752.142	596.808
752.193	588.142
752.244	589.666
752.295	588.824
752.346	583.071
752.397	582.073
752.449	581.087
752.5	577.368
752.551	591.453
752.602	584.653
752.653	593.275
752.704	593.701
752.756	588.459
752.807	596.268
752.858	599.366
752.909	587.746
752.96	590.69
753.011	590.358
753.063	579.934
753.114	552.875
753.165	589.064
753.216	575.875
753.267	581.868
753.318	591.865
753.37	574.387
753.421	575.801
753.472	582.916
753.523	569.922
753.574	575.737
753.625	587.169
753.676	564.362
753.728	583.494
753.779	562.598
753.83	572.321
753.881	585.393
753.932	562.93
753.983	582.44
754.034	572.899
754.086	575.886
754.137	571.889
754.188	561.91
754.239	576.518
754.29	564.148
754.341	568.269
754.393	562.878
754.444	558.611
754.495	562.413
754.546	580.276
754.597	546.755
754.648	550.394
754.699	562.014
754.75	560.24
754.802	558.136
754.853	553.179
754.904	550.193
754.955	553.61
755.006	553.082
755.057	564.965
755.108	554.048
755.16	571.521
755.211	551.645
755.262	571.897
755.313	566.849
755.364	565.393
755.415	560.791
755.466	555.777
755.518	557.497
755.569	556.509
755.62	554.904
755.671	550.551
755.722	536.552
755.773	555.102
755.824	542.893
755.875	542.73
755.927	546.582
755.978	543.81
756.029	548.316
756.08	528.763
756.131	547.021
756.182	543.664
756.233	544.465
756.284	534.696
756.336	539.265
756.387	529.77
756.438	546.96
756.489	524.914
756.54	542.591
756.591	537.669
756.642	539.888
756.693	537.131
756.745	543.883
756.796	545.189
756.847	539.114
756.898	539.865
756.949	519.018
757	542.88
757.051	534.885
757.102	533.544
757.153	531.729
757.205	546.228
757.256	534.593
757.307	527.066
757.358	547.85
757.409	519.387
757.46	523.207
757.511	527.761
757.562	525.381
757.613	519.799
757.664	533.138
757.716	531.898
757.767	521.24
757.818	516.245
757.869	530.103
757.92	514.094
757.971	524.628
758.022	530.626
758.073	518.073
758.124	527.667
758.175	511.656
758.227	514.145
758.278	521.348
758.329	524.869
758.38	514.828
758.431	527.999
758.482	529.312
758.533	523.232
758.584	508.781
758.635	512.172
758.686	510.267
758.738	513.606
758.789	519.288
758.84	509.143
758.891	515.016
758.942	532.238
758.993	514.029
759.044	521.875
759.095	518.067
759.146	509.01
759.197	514.651
759.248	511.974
759.3	507.585
759.351	512.352
759.402	506.539
759.453	503.34
759.504	505.19
759.555	507.619
759.606	500.424
759.657	503.02
759.708	502.9
759.759	497.308
759.81	495.223
759.861	507.978
759.913	501.101
759.964	496.127
760.015	490.976
760.066	496.462
760.117	500.049
760.168	485.22
760.219	490.494
760.27	501.031
760.321	501.25
760.372	488.225
760.423	495.278
760.474	482.96
760.525	498.791
760.576	509.577
760.628	498.475
760.679	504.007
760.73	492.905
760.781	488.467
760.832	494.816
760.883	485.758
760.934	485.235
760.985	488.452
761.036	492.323
761.087	485.442
761.138	487.549
761.189	483.548
761.24	481.163
761.291	493.259
761.342	492.505
761.393	498.285
761.445	485.143
761.496	485.943
761.547	491.278
761.598	486.763
761.649	484.379
761.7	474.439
761.751	486.863
761.802	484.245
761.853	484.613
761.904	482.553
761.955	481.134
762.006	479.829
762.057	474.823
762.108	480.9
762.159	479.587
762.21	474.933
762.261	478.399
762.313	483.746
762.364	487.447
762.415	486.863
762.466	479.732
762.517	476.156
762.568	469.475
762.619	468.199
762.67	476.97
762.721	471.366
762.772	475.501
762.823	477.115
762.874	471.674
762.925	470.27
762.976	470.589
763.027	470.592
763.078	466.141
763.129	464.444
763.18	467.481
763.231	455.356
763.282	453.159
763.333	461.692
763.384	471.914
763.435	473.749
763.486	471.33
763.537	461.38
763.589	455.127
763.64	458.534
763.691	466.762
763.742	460.022
763.793	459.069
763.844	463.333
763.895	461.282
763.946	454.069
763.997	461.677
764.048	464.951
764.099	459.264
764.15	461.489
764.201	462.023
764.252	460.854
764.303	457.52
764.354	450.847
764.405	448.742
764.456	442.619
764.507	447.283
764.558	454.903
764.609	459.472
764.66	463.508
764.711	460.446
764.762	453.98
764.813	445.665
764.864	447.875
764.915	450.088
764.966	451.465
765.017	453.367
765.068	452.493
765.119	454.299
765.17	456.718
765.221	451.924
765.272	447.827
765.323	440.281
765.374	435.997
765.425	444.338
765.476	452.703
765.527	454.526
765.578	454.699
765.629	446.763
765.68	440.264
765.731	448.638
765.782	446.459
765.833	443.947
765.884	452.431
765.935	447.144
765.986	438.701
766.037	428.682
766.088	432.817
766.139	436.557
766.19	440.626
766.241	446.267
766.292	445.791
766.343	444.783
766.394	435.022
766.445	439.797
766.496	436.14
766.547	427.505
766.598	431.465
766.649	430.289
766.677	436.281
766.729	438.985
766.78	430.231
766.831	428.12
766.882	432.724
766.933	435.872
766.984	428.852
767.035	435.827
767.086	419.381
767.137	432.181
767.188	432.547
767.24	443.55
767.291	426.271
767.342	419.952
767.393	432.47
767.444	422.56
767.495	434.76
767.546	418.415
767.597	425.979
767.648	432.865
767.7	432.648
767.751	428.619
767.802	432.713
767.853	427.956
767.904	423.805
767.955	414.312
768.006	410.295
768.057	430.89
768.108	416.284
768.159	423.549
768.21	426.312
768.262	425.278
768.313	409.659
768.364	408.941
768.415	425.954
768.466	417.549
768.517	420.451
768.568	412.328
768.619	402.488
768.67	431.479
768.721	404.28
768.772	408.78
768.823	417.421
768.875	400.74
768.926	413.395
768.977	414.87
769.028	414.094
769.079	406.353
769.13	404.032
769.181	407.755
769.232	410.506
769.283	406.056
769.334	405.726
769.385	412.466
769.436	410.99
769.488	398.585
769.539	399.971
769.59	393.459
769.641	395.269
769.692	408.057
769.743	408.623
769.794	410.671
769.845	401.397
769.896	398.884
769.947	397.75
769.998	394.314
770.049	397.769
770.1	402.959
770.151	396.676
770.203	400.099
770.254	392.285
770.305	388.62
770.356	421.84
770.407	404.381
770.458	402.987
770.509	388.941
770.56	394.58
770.611	382.561
770.662	394.299
770.713	386.326
770.764	382.71
770.815	389.454
770.866	395.225
770.917	390.049
770.968	387.321
771.02	391.144
771.071	373.298
771.122	390.652
771.173	388.465
771.224	397.077
771.275	385.736
771.326	393.414
771.377	382.131
771.428	382.912
771.479	383.296
771.53	384.462
771.581	381.128
771.632	380.37
771.683	385.725
771.734	377.02
771.785	387.77
771.836	380.733
771.887	375.913
771.938	384.803
771.99	378.807
772.041	387.413
772.092	384.496
772.143	378.356
772.194	374.878
772.245	374.357
772.296	374.94
772.347	365.248
772.398	367.917
772.449	367.607
772.5	362.881
772.551	365.17
772.602	367.507
772.653	375.708
772.704	372.413
772.755	377.911
772.806	373.685
772.857	361.852
772.908	367.262
772.959	371.401
773.01	364.289
773.061	360.973
773.112	358.604
773.163	364.672
773.214	362.293
773.265	361.135
773.316	354.34
773.367	369.136
773.419	366.74
773.47	367.287
773.521	365.387
773.572	360.404
773.623	353.152
773.674	356.789
773.725	363.093
773.776	360.85
773.827	358.687
773.878	366.999
773.929	370.093
773.98	365.657
774.031	358.708
774.082	358.504
774.133	365.218
774.184	354.435
774.235	350.164
774.286	363.799
774.337	354.388
774.388	352.808
774.439	356.19
774.49	361.873
774.541	344.237
774.592	347.3
774.643	355.346
774.694	344.633
774.745	344.798
774.796	349.894
774.847	348.521
774.898	347.66
774.949	349.504
775	349.817
775.051	350.701
775.102	347.465
775.153	352.201
775.204	352.104
775.255	348.23
775.306	344.486
775.357	339.432
775.408	344.97
775.459	354.756
775.51	343.853
775.561	345.813
775.612	352.256
775.663	343.153
775.714	333.714
775.765	334.062
775.816	337.41
775.867	345.348
775.918	343.724
775.969	334.434
776.02	328.49
776.071	334.515
776.122	338.608
776.173	331.258
776.224	335.261
776.275	341.276
776.326	339.777
776.377	339.475
776.428	339.866
776.479	336.303
776.53	340.32
776.581	337.797
776.632	340.254
776.683	337.44
776.734	331.445
776.785	333.901
776.836	327.564
776.887	320.534
776.938	328.433
776.989	337.164
777.04	330.056
777.091	324.032
777.142	317.048
777.193	317.257
777.244	314.101
777.295	317.95
777.346	318.665
777.397	320.265
777.448	324.696
777.499	329.047
777.55	329.986
777.601	325.619
777.652	320.186
777.703	319.179
777.754	319.441
777.805	324.702
777.856	317.418
777.907	323.129
777.958	322.849
778.009	323.365
778.06	322.723
778.111	328.168
778.161	318.137
778.212	316.911
778.263	309.701
778.314	310.833
778.365	317.098
778.416	323.654
778.467	320.006
778.518	311.465
778.569	315.547
778.62	319.053
778.671	317.371
778.722	319.377
778.773	318.123
778.824	315.056
778.875	314.4
778.926	314.212
778.977	310.582
779.028	314.847
779.079	310.02
779.13	304.082
779.181	303.241
779.232	298.332
779.283	299.448
779.334	308.22
779.385	315.418
779.436	312.807
779.487	307.641
779.537	303.28
779.588	304.784
779.639	304.602
779.69	306.181
779.741	301.489
779.792	299.619
779.843	308.396
779.894	315.018
779.945	311.524
779.996	297.75
780.047	305.668
780.098	310.19
780.149	305.116
780.2	303.704
780.251	303.253
780.302	301.085
780.353	300.465
780.404	298.496
780.455	294.412
780.505	299.761
780.556	301.579
780.607	294.273
780.658	295.934
780.709	293.99
780.76	288.272
780.811	293.716
780.862	296.317
780.913	293.986
780.964	291.193
781.015	293.425
781.066	300.314
781.117	295.345
781.168	293.826
781.219	292.279
781.27	287.446
781.32	288.067
781.371	295.038
781.422	291.854
781.473	286.491
781.524	289.943
781.575	288.147
781.626	289.047
781.677	294.174
781.728	289.586
781.779	292.834
781.83	292.973
781.881	286.935
781.932	291.57
781.983	289.651
782.033	282.236
782.084	278.029
782.135	282.428
782.186	285.423
782.237	286.189
782.288	288.41
782.339	284.279
782.39	278.765
782.441	282.168
782.492	281.437
782.543	289.476
782.594	288.237
782.644	277.939
782.695	279.148
782.746	278.283
782.797	288.687
782.848	289.246
782.899	281.697
782.95	269.335
783.001	269.809
783.052	285.63
783.103	277.237
783.154	267.685
783.204	284.669
783.255	282.347
783.306	276.534
783.357	270.829
783.408	278.033
783.459	274.486
783.51	279.848
783.561	275.484
783.612	261.844
783.663	274.266
783.714	276.869
783.764	277.072
783.815	275.203
783.866	265.035
783.917	265.887
783.968	263.79
784.019	281.617
784.07	278.653
784.109	266.298
784.16	273.685
784.211	274.734
784.262	279.783
784.313	270.451
784.364	285.216
784.415	262.952
784.466	273.589
784.517	270.102
784.568	262.459
784.619	272.285
784.67	269.554
784.721	268.471
784.772	280.062
784.823	268.284
784.874	273.446
784.925	256.992
784.976	270.379
785.027	261.31
785.078	264.038
785.129	268.513
785.18	279.202
785.231	266.307
785.282	275.955
785.333	261.37
785.384	272.52
785.435	268.044
785.486	267.382
785.537	269.307
785.588	261.661
785.639	265.777
785.69	271.44
785.741	263.939
785.792	260.728
785.843	265.053
785.894	260.226
785.945	262.739
785.996	267.982
786.047	268.741
786.098	261.085
786.149	246.864
786.2	254.92
786.251	255.852
786.302	264.31
786.353	260.329
786.404	267.457
786.455	261.665
786.506	250.74
786.557	260.321
786.608	258.885
786.659	250.809
786.71	258.164
786.761	248.668
786.812	251.632
786.863	251.39
786.914	250.846
786.965	255.143
787.016	257.542
787.067	247.722
787.118	243.811
787.169	249.465
787.22	256.526
787.271	253.892
787.322	247.632
787.373	252.104
787.424	253.216
787.475	238.401
787.526	253.393
787.576	255.909
787.627	251.46
787.678	242.145
787.729	247.587
787.78	248.518
787.831	254.309
787.882	247.235
787.933	252.567
787.984	240.672
788.035	242.272
788.086	244.973
788.137	244.07
788.188	248.178
788.239	247.392
788.29	239.126
788.341	247.989
788.392	236.584
788.443	245.005
788.494	242.149
788.545	242.606
788.596	239.395
788.647	245.146
788.698	238.19
788.749	236.432
788.8	240.066
788.851	239.151
788.901	244.412
788.952	241.376
789.003	242.238
789.054	233.523
789.105	240.661
789.156	233.097
789.207	234.395
789.258	231.471
789.309	235.597
789.36	235.497
789.411	228.241
789.462	226.198
789.513	230.122
789.564	232.951
789.615	226.674
789.666	226.913
789.717	231.503
789.768	228.61
789.819	228.864
789.87	230.399
789.92	235.088
789.971	228.163
790.022	231.28
790.073	241.915
790.124	233.154
790.175	230.999
790.226	239.517
790.277	236.432
790.328	224.807
790.379	221.967
790.43	235.31
790.481	224.975
790.532	229.888
790.583	223.386
790.634	228.176
790.685	232.059
790.735	229.094
790.786	230.862
790.837	231.603
790.888	220.381
790.939	224.426
790.99	222.754
791.041	233.463
791.092	229.454
791.143	229.457
791.194	227.492
791.245	229.741
791.296	224.214
791.347	223.546
791.397	220.228
791.448	223.026
791.499	219.847
791.55	221.761
791.601	224.141
791.652	219.012
791.703	220.603
791.754	217.712
791.805	216.758
791.856	227.004
791.907	226.535
791.958	220.135
792.008	221.605
792.059	231.349
792.11	220.718
792.161	216.493
792.212	217.467
792.263	216.96
792.314	219.177
792.365	213.271
792.416	207.236
792.467	217.894
792.518	217.667
792.569	213.608
792.619	217.269
792.67	218.394
792.721	210.406
792.772	214.398
792.823	221.022
792.874	220.534
792.925	218.098
792.976	217.353
793.027	218.588
793.078	219.293
793.128	213.587
793.179	211.923
793.23	216.747
793.281	209.74
793.332	209.407
793.383	211.589
793.434	212.709
793.485	203.307
793.536	207.411
793.587	214.382
793.638	209.803
793.688	209.148
793.739	211.407
793.79	213.155
793.841	218.885
793.892	217.364
793.943	216.176
793.994	204.382
794.045	207.449
794.096	204.569
794.146	207.639
794.197	211.474
794.248	209.041
794.299	207.812
794.35	208.19
794.401	208.9
794.452	210.802
794.503	210.261
794.554	210.1
794.604	205.357
794.655	204.049
794.706	201.608
794.757	204.79
794.808	202.344
794.859	210.044
794.91	208.732
794.961	204.968
795.011	206.931
795.062	206.353
795.113	198.963
795.164	191.114
795.215	203.389
795.266	209.673
795.317	197.425
795.368	196.451
795.418	193.887
795.469	201.75
795.52	202.225
795.571	209.438
795.622	200.563
795.673	196.802
795.724	205.116
795.775	207.882
795.825	197.325
795.876	195.781
795.927	201.567
795.978	196.957
796.029	190.079
796.08	189.6
796.131	203.874
796.181	202.559
796.232	205.694
796.283	201.221
796.334	200.088
796.385	195.825
796.436	194.337
796.487	198.169
796.537	194.332
796.588	198.748
796.639	201.442
796.69	196.924
796.741	191.453
796.792	196.948
796.843	191.427
796.893	196.573
796.944	195.523
796.995	196.163
797.046	194.003
797.097	189.885
797.148	190.132
797.199	193.172
797.249	187.283
797.3	189.954
797.351	185.18
797.402	194.166
797.453	187.861
797.504	189.008
797.555	189.47
797.605	192.907
797.656	199.693
797.707	196.526
797.758	192.509
797.809	192.053
797.86	188.32
797.91	194.958
797.961	189.703
798.012	191.736
798.063	186.418
798.114	189.053
798.165	189.852
798.216	183.455
798.266	193.179
798.317	180.228
798.368	179.291
798.419	185.427
798.47	187.63
798.521	186.448
798.571	191.56
798.622	182.402
798.673	182.105
798.724	186.138
798.775	184.144
798.826	180.21
798.876	181.133
798.927	185.506
798.978	185.817
799.029	182.308
799.08	183.971
799.13	187.361
799.181	182.266
799.232	181.069
799.283	183.722
799.334	182.33
799.385	186.552
799.435	184.148
799.486	176.911
799.537	170.915
799.588	174.876
799.639	177.524
799.69	179.652
799.74	180.123
799.791	178.889
799.842	178.272
799.893	172.399
799.944	177.062
799.994	172.64
800.045	178.429
800.096	183.805
800.147	180.261
800.198	185.131
800.248	179.046
800.299	183.913
800.35	183.935
800.401	172.8
800.452	178.426
800.503	183.536
800.553	177.192
800.604	178.544
800.655	177.278
800.706	182.195
800.757	179.84
800.807	172.681
800.858	179.812
800.909	182.457
800.96	169.747
801.011	168.992
801.061	171.273
801.112	172.152
801.163	177.358
801.214	169.977
801.265	164.752
801.315	175.111
801.366	173.884
801.417	167.84
801.457	170.99
801.508	174.472
801.558	178.958
801.609	175.221
801.66	170.832
801.711	172.841
801.762	175.97
801.813	174.128
801.864	166.586
801.915	168.581
801.966	160.29
802.017	167.012
802.068	172.985
802.118	172.098
802.169	165.338
802.22	170.239
802.271	164.11
802.322	167.369
802.373	160.06
802.424	164.265
802.475	162.817
802.526	173.776
802.577	170.296
802.627	167.048
802.678	172.482
802.729	164.233
802.78	160.892
802.831	162.341
802.882	161.57
802.933	165.79
802.984	162.288
803.035	166.635
803.086	160.91
803.136	168.265
803.187	160.313
803.238	171.297
803.289	163.082
803.34	175.606
803.391	157.097
803.442	157.762
803.493	163.835
803.544	162.133
803.594	168.799
803.645	170.267
803.696	169.289
803.747	164.893
803.798	157.742
803.849	160.468
803.9	162.053
803.951	153.693
804.002	157.986
804.052	156.305
804.103	161.839
804.154	155.536
804.205	154.682
804.256	155.607
804.307	157.291
804.358	152.59
804.409	156.434
804.459	168.397
804.51	161.072
804.561	162.983
804.612	152.497
804.663	156.583
804.714	158.452
804.765	150.855
804.816	163.456
804.866	156.544
804.917	154.184
804.968	151.715
805.019	158.875
805.07	149.798
805.121	158.028
805.172	153.239
805.223	157.118
805.273	152.726
805.324	150.885
805.375	150.193
805.426	152.076
805.477	153.526
805.528	156.335
805.579	159.553
805.629	154.648
805.68	163.035
805.731	158.198
805.782	146.112
805.833	153.382
805.884	155.398
805.935	162.475
805.985	147.449
806.036	145.276
806.087	145.183
806.138	146.23
806.189	145.988
806.24	150.49
806.291	143.578
806.341	150.473
806.392	150.664
806.443	153.159
806.494	150.994
806.545	152.593
806.596	150.233
806.647	147.148
806.697	165.58
806.748	150.041
806.799	145.77
806.85	146.17
806.901	155.67
806.952	156.006
807.003	147.648
807.053	149.594
807.104	145.383
807.155	149.661
807.206	151.829
807.257	150.323
807.308	147.282
807.358	150.523
807.409	145.798
807.46	154.399
807.511	147.184
807.562	148.718
807.613	143.521
807.663	144.856
807.714	143.247
807.765	144.769
807.816	146.556
807.867	151.651
807.918	145.751
807.969	152.14
808.019	147.338
808.07	143.695
808.121	145.493
808.172	138.962
808.223	144.76
808.273	140.897
808.324	145.452
808.375	142.303
808.426	142.187
808.477	149.677
808.528	147.533
808.578	144.802
808.629	139.956
808.68	143.795
808.731	145.581
808.782	152.298
808.833	146.702
808.883	153.004
808.934	137.369
808.985	139.167
809.036	140.762
809.087	146.083
809.138	141.209
809.188	147.092
809.239	142.172
809.29	139.596
809.341	142.766
809.392	145.614
809.442	141.253
809.493	138.639
809.544	142.05
809.595	140.385
809.646	138.946
809.696	139.818
809.747	142.239
809.798	141.822
809.849	145.701
809.9	146.091
809.951	141.149
810.001	145.285
810.052	141.988
810.103	139.443
810.154	140.797
810.205	139.106
810.255	135.996
810.306	138.822
810.357	134.544
810.408	137.875
810.459	141.973
810.509	137.458
810.56	138.317
810.611	132.105
810.662	137.298
810.713	137.072
810.763	131.978
810.814	135.198
810.865	131.215
810.916	133.358
810.967	145.404
811.017	136.38
811.068	138.918
811.119	138.64
811.17	142.493
811.221	134.933
811.271	134.575
811.322	136.257
811.373	137.256
811.424	137.788
811.474	130.737
811.525	135.907
811.576	134.606
811.627	126.948
811.678	133.347
811.728	134.698
811.779	136.782
811.83	133.223
811.881	130.926
811.932	135.063
811.982	140.531
812.033	130.768
812.084	130.939
812.135	129.666
812.185	132.849
812.236	135.555
812.287	133.28
812.338	135.207
812.389	134.956
812.439	129.956
812.49	131.705
812.541	131.575
812.592	133.187
812.642	135.199
812.693	128.384
812.744	133.434
812.795	133.421
812.846	131.904
812.896	131.831
812.947	125.95
812.998	130.223
813.049	133.806
813.099	131.933
813.15	128.243
813.201	130.831
813.252	131.503
813.302	133.93
813.353	131.133
813.404	135.119
813.455	133.722
813.506	129.658
813.556	133.021
813.607	128.112
813.658	125.797
813.709	127.722
813.759	125.709
813.81	125.312
813.861	122.429
813.912	125.421
813.962	129.398
814.013	127.382
814.064	127.518
814.115	128.589
814.165	132.585
814.216	124.419
814.267	126.545
814.318	128.638
814.368	127.665
814.419	129.726
814.47	127.421
814.521	127.35
814.571	129.901
814.622	128.266
814.673	124.593
814.724	128.275
814.774	131.621
814.825	122.395
814.876	124.182
814.927	126.354
814.977	131.308
815.028	129.608
815.079	124.906
815.13	127.198
815.18	125.865
815.231	120.797
815.282	117.41
815.333	124.489
815.383	121.686
815.434	120.527
815.485	124.892
815.536	124.154
815.586	122.046
815.637	120.325
815.688	124.326
815.739	123.068
815.789	118.405
815.84	123.625
815.891	119.32
815.941	118.214
815.992	118.044
816.043	115.886
816.094	119.425
816.144	119.987
816.195	123.179
816.246	121.049
816.297	117.478
816.347	122.43
816.398	119.852
816.449	119.516
816.499	116.015
816.55	119.559
816.601	120.951
816.652	122.151
816.702	122.098
816.753	117.918
816.804	116.262
816.855	120.027
816.905	121.955
816.956	119.844
817.007	112.935
817.057	115.901
817.108	118.673
817.159	113.879
817.21	115.846
817.26	119.743
817.311	116.356
817.362	112.754
817.412	119.86
817.463	124.757
817.514	119.582
817.565	114.45
817.615	112.632
817.666	114.151
817.717	115.575
817.767	115.675
817.818	117.112
817.869	117.02
817.919	110.674
817.97	112.79
818.021	117.999
818.072	119.214
818.122	122.774
818.173	118.332
818.224	117.35
818.274	111.199
818.325	113.665
818.376	118.665
818.427	117.871
818.477	120.125
818.528	118.334
818.579	111.669
818.629	109.381
818.68	114.371
818.731	113.781
818.781	111.362
818.806	118.228
818.857	112.648
818.908	112.552
818.959	113.77
819.01	114.227
819.06	118.722
819.111	108.937
819.162	110.263
819.213	115.638
819.264	113.024
819.315	110.146
819.365	109.547
819.416	113.598
819.467	105.726
819.518	113.48
819.569	112.45
819.619	111.079
819.67	116.864
819.721	107.129
819.772	109.074
819.823	110.126
819.873	114.265
819.924	112.79
819.975	111.935
820.026	115.555
820.077	111.626
820.127	107.004
820.178	108.069
820.229	111.474
820.28	112.101
820.331	109.269
820.381	107.943
820.432	112.69
820.483	109.011
820.534	112.198
820.585	115.295
820.635	108.717
820.686	113.063
820.737	110.943
820.788	113.941
820.839	112.847
820.889	114.929
820.94	111.435
820.991	106.003
821.042	104.98
821.092	99.9914
821.143	105.387
821.194	110.831
821.245	111.544
821.296	101.745
821.346	104.253
821.397	110.957
821.448	113.203
821.499	102.015
821.549	107.497
821.6	104.318
821.651	109.251
821.702	105.863
821.753	110.627
821.803	109.028
821.854	107.08
821.905	104.06
821.956	104.785
822.006	103.71
822.057	103.648
822.108	104.991
822.159	100.569
822.21	109.098
822.26	108.251
822.311	107.662
822.362	105.586
822.413	103.007
822.463	106.364
822.514	106.195
822.565	103.544
822.616	99.5351
822.667	103.044
822.717	100.654
822.768	102.304
822.819	103.825
822.87	105.749
822.92	100.05
822.971	100.165
823.022	98.9498
823.073	102.917
823.123	110.781
823.174	104.92
823.225	102.26
823.276	104.527
823.326	107.986
823.377	105.87
823.428	104.811
823.479	102.581
823.529	103.091
823.58	101.765
823.631	100.339
823.682	103.095
823.732	103.834
823.783	98.9596
823.834	98.2777
823.885	99.337
823.935	102.66
823.986	102.394
824.037	101.475
824.088	103.625
824.138	99.3656
824.189	101.026
824.24	106.254
824.291	106.739
824.341	97.7735
824.392	101.092
824.443	100.834
824.494	98.3305
824.544	104.533
824.595	100.802
824.646	104.023
824.697	108.873
824.747	98.0447
824.798	100.369
824.849	102.777
824.9	100.418
824.95	98.924
825.001	101.433
825.052	101.278
825.103	100.838
825.153	95.447
825.204	95.4932
825.255	99.2178
825.305	100.076
825.356	103.064
825.407	100.339
825.458	99.32
825.508	94.7656
825.559	92.9468
825.61	98.6537
825.661	100.194
825.711	103.457
825.762	99.5939
825.813	91.1851
825.864	96.7474
825.914	99.7081
825.965	98.7314
826.016	100.366
826.066	95.3711
826.117	92.6402
826.168	92.8997
826.219	94.7974
826.269	100.093
826.32	97.7985
826.371	98.7288
826.421	95.4778
826.472	102.113
826.523	99.5445
826.574	99.7197
826.624	96.1661
826.675	87.1732
826.726	88.6718
826.776	88.8103
826.827	95.6382
826.878	98.6705
826.929	96.0191
826.979	87.8264
827.03	87.6387
827.081	98.1386
827.131	98.4545
827.182	90.3411
827.233	95.5177
827.284	100.635
827.334	95.5636
827.385	93.0109
827.436	97.3972
827.486	101.942
827.537	101.602
827.588	92.5097
827.638	90.0335
827.689	96.3712
827.74	94.8069
827.791	92.8151
827.841	94.2945
827.892	92.828
827.943	90.585
827.993	93.9311
828.044	97.734
828.095	99.1628
828.146	94.0343
828.196	96.034
828.247	95.6834
828.298	92.8685
828.348	89.2212
828.399	88.9446
828.45	90.0668
828.5	97.1765
828.551	94.0669
828.602	93.6956
828.652	91.0099
828.703	95.9723
828.754	97.6832
828.805	96.6973
828.855	92.9227
828.906	93.3074
828.957	86.0789
829.007	83.0061
829.058	90.0537
829.109	98.9464
829.159	92.8891
829.21	92.2932
829.261	92.2612
829.311	92.086
829.362	92.737
829.413	93.6374
829.463	93.3677
829.514	91.454
829.565	88.7135
829.615	90.1419
829.666	86.8061
829.717	88.322
829.767	86.3425
829.818	87.3745
829.869	90.8189
829.919	91.614
829.97	92.9123
830.021	89.8913
830.071	93.2901
830.122	93.1982
830.173	87.1653
830.224	83.7614
830.274	89.9127
830.325	91.7975
830.376	90.0756
830.426	89.1774
830.477	88.5817
830.528	88.9124
830.578	90.585
830.629	88.4348
830.68	90.9247
830.73	90.4129
830.781	89.0945
830.831	78.2238
830.882	91.2423
830.933	84.9484
830.983	89.3762
831.034	92.2189
831.085	95.3146
831.135	86.6351
831.186	92.6428
831.237	86.8147
831.287	86.0547
831.338	84.9959
831.389	83.8768
831.439	82.4997
831.49	88.752
831.541	90.789
831.591	90.0815
831.642	89.7389
831.693	86.5153
831.743	86.8692
831.794	90.9284
831.845	88.3077
831.895	92.9264
831.946	86.7688
831.997	86.2748
832.047	85.1443
832.098	90.8253
832.148	91.7564
832.199	85.2018
832.25	89.5928
832.3	89.2871
832.351	85.9213
832.402	89.1804
832.452	81.1548
832.503	85.0984
832.554	88.153
832.604	90.1914
832.655	90.9373
832.706	88.3028
832.756	86.956
832.807	87.5335
832.857	90.0389
832.908	80.9139
832.959	89.5664
833.009	90.6212
833.06	93.9711
833.111	88.5024
833.161	87.985
833.212	85.564
833.263	82.7686
833.313	85.1677
833.364	85.9636
833.414	83.4567
833.465	89.8486
833.516	94.7836
833.566	84.5279
833.617	91.9028
833.668	89.7574
833.718	91.2578
833.769	92.6334
833.819	89.9557
833.87	78.251
833.921	85.0941
833.971	88.7313
834.022	81.9965
834.073	87.464
834.123	86.9564
834.174	83.833
834.224	87.2933
834.275	84.6641
834.326	79.494
834.376	82.7511
834.427	80.107
834.477	87.9316
834.528	85.9051
834.579	86.8222
834.629	81.0626
834.68	86.7643
834.73	84.9382
834.781	91.7317
834.832	88.5557
834.882	91.6236
834.933	81.7661
834.984	90.6915
835.034	83.366
835.085	87.739
835.135	87.7028
835.186	85.9002
835.237	80.0353
835.287	85.4464
835.338	78.9575
835.388	85.6496
835.439	82.1632
835.49	84.0048
835.54	89.0317
835.591	90.7346
835.641	90.6117
835.692	84.8351
835.743	82.1339
835.793	78.2203
835.844	82.8509
835.894	80.9951
835.945	78.9459
835.996	81.0418
836.046	90.6641
836.097	74.4245
836.099	74.2956
836.15	86.9649
836.201	85.8702
836.251	74.0466
836.302	81.1075
836.353	86.882
836.404	82.0879
836.454	83.0169
836.505	87.7858
836.556	81.8893
836.606	75.0038
836.657	71.2101
836.708	74.033
836.758	85.6531
836.809	82.0236
836.86	86.0457
836.911	80.0143
836.961	79.872
837.012	77.9974
837.063	76.5888
837.113	81.2435
837.164	84.7303
837.215	83.1432
837.265	80.2052
837.316	81.5344
837.367	89.9235
837.418	79.2862
837.468	84.0284
837.519	73.022
837.57	77.4076
837.62	81.1909
837.671	82.9174
837.722	78.9315
837.772	80.4016
837.823	79.369
837.874	80.5032
837.924	82.2694
837.975	75.2032
838.026	81.2569
838.077	82.7211
838.127	79.8568
838.178	75.9198
838.229	75.7009
838.279	68.9212
838.33	80.4841
838.381	78.3376
838.431	77.8383
838.482	84.7897
838.533	77.7375
838.583	79.6288
838.634	75.8525
838.685	84.565
838.735	78.5293
838.786	82.9038
838.837	81.5814
838.888	77.3982
838.938	72.919
838.989	75.3047
839.04	73.947
839.09	77.5907
839.141	69.3404
839.192	80.5153
839.242	78.262
839.293	77.046
839.344	74.2743
839.394	78.0512
839.445	78.5425
839.496	71.8418
839.546	75.892
839.597	71.9645
839.648	74.7682
839.698	80.1119
839.749	77.5253
839.8	82.6692
839.85	72.4271
839.901	78.5664
839.952	70.1957
840.002	79.5524
840.053	80.6368
840.104	74.9426
840.154	78.3081
840.205	70.7237
840.256	83.1457
840.306	75.869
840.357	74.8807
840.408	74.6825
840.458	77.7215
840.509	73.6335
840.56	76.8245
840.61	75.0191
840.661	72.8045
840.711	76.5341
840.762	77.6576
840.813	69.209
840.863	75.6537
840.914	74.5224
840.965	75.4227
841.015	76.1297
841.066	74.4911
841.117	72.2273
841.167	77.6645
841.218	75.4692
841.269	77.1233
841.319	74.9261
841.37	78.3788
841.421	77.1097
841.471	75.6788
841.522	76.6338
841.573	72.7552
841.623	70.6688
841.674	76.201
841.724	72.6248
841.775	76.2053
841.826	73.0951
841.876	69.8047
841.927	69.8628
841.978	78.1329
842.028	77.4765
842.079	73.6604
842.13	72.9954
842.18	72.3318
842.231	76.768
842.281	76.8379
842.332	76.7496
842.383	76.6172
842.433	77.9511
842.484	71.1665
842.535	73.6618
842.585	72.436
842.636	72.4488
842.687	70.9731
842.737	70.0391
842.788	77.9736
842.838	75.3683
842.889	69.9677
842.94	69.2766
842.99	70.9564
843.041	72.9635
843.092	74.6156
843.142	69.369
843.193	73.8402
843.243	73.9517
843.294	74.7444
843.345	74.2672
843.395	75.8694
843.446	72.6576
843.497	73.2661
843.547	71.8828
843.598	71.3625
843.648	70.5513
843.699	70.9343
843.75	72.0481
843.8	76.3253
843.851	73.0538
843.901	74
843.952	72.4986
844.003	70.3509
844.053	73.8216
844.104	76.2391
844.155	66.2418
844.205	68.7705
844.256	69.3986
844.306	70.9404
844.357	70.6701
844.408	72.9452
844.458	75.2797
844.509	74.8253
844.559	65.8971
844.61	66.15
844.661	68.0402
844.711	70.1137
844.762	73.2398
844.812	74.6254
844.863	71.4805
844.914	72.6768
844.964	70.9325
845.015	67.9625
845.065	72.0279
845.116	71.5029
845.167	72.2902
845.217	67.0097
845.268	64.7749
845.318	69.6878
845.369	72.7897
845.42	73.2784
845.47	69.6072
845.521	65.584
845.571	72.2701
845.622	72.6945
845.673	72.1883
845.723	70.5317
845.774	68.8799
845.824	69.7163
845.875	75.0493
845.926	71.0727
845.976	71.4319
846.027	71.7782
846.077	70.9158
846.128	69.9882
846.178	71.5644
846.229	71.2661
846.28	68.829
846.33	67.9595
846.381	69.6564
846.431	74.0869
846.482	74.194
846.533	66.3392
846.583	66.7237
846.634	69.876
846.684	72.4286
846.735	67.5717
846.785	68.67
846.836	73.6843
846.887	68.8935
846.937	67.9731
846.988	65.7601
847.038	62.4631
847.089	66.4492
847.139	69.1443
847.19	70.1487
847.241	73.9493
847.291	66.5857
847.342	62.8413
847.392	64.7951
847.443	70.4723
847.493	71.5371
847.544	65.2996
847.595	66.6025
847.645	70.1269
847.696	70.1437
847.746	66.4743
847.797	70.2462
847.847	65.3747
847.898	63.0746
847.948	66.0064
847.999	68.3036
848.05	71.5008
848.1	67.7732
848.151	69.0867
848.201	72.8348
848.252	70.7797
848.302	66.5964
848.353	67.6626
848.404	70.2455
848.454	71.9733
848.505	66.4463
848.555	70.2696
848.606	69.5898
848.656	68.0915
848.707	66.8626
848.757	64.805
848.808	68.198
848.859	73.05
848.909	58.7963
848.96	64.6103
849.01	70.6889
849.061	70.1199
849.111	66.3355
849.162	67.0556
849.212	65.8567
849.263	68.3258
849.313	67.058
849.364	64.051
849.414	70.8289
849.465	69.8794
849.516	69.2057
849.566	72.0855
849.617	64.4834
849.667	71.2755
849.718	66.024
849.768	69.6843
849.819	73.6723
849.869	73.6537
849.92	67.3603
849.97	71.5003
850.021	66.5753
850.071	68.6781
850.122	67.8448
850.173	65.4246
850.223	62.7088
850.274	66.6789
850.324	63.0463
850.375	62.714
850.425	62.1725
850.476	66.167
850.526	59.5928
850.577	62.9289
850.627	63.1803
850.678	60.5443
850.728	61.4458
850.779	65.5106
850.829	62.6037
850.88	62.7517
850.93	62.2861
850.981	64.5437
851.031	64.8684
851.082	63.9408
851.133	59.6476
851.183	64.4655
851.234	64.2859
851.284	66.3361
851.335	63.5509
851.385	60.525
851.436	60.8056
851.486	67.3295
851.537	66.4032
851.587	69.4426
851.638	69.5312
851.688	62.4642
851.739	57.9683
851.789	60.8574
851.84	63.8142
851.89	66.7194
851.941	70.8074
851.991	67.5186
852.042	68.3719
852.092	68.7859
852.143	64.4488
852.193	62.8511
852.244	64.1785
852.294	65.8149
852.345	62.1411
852.395	62.4917
852.446	64.1634
852.496	60.013
852.547	62.4684
852.597	66.9721
852.648	64.8853
852.698	62.3833
852.749	58.3423
852.799	58.4293
852.85	61.4849
852.9	66.8011
852.951	66.7913
853.001	63.1103
853.052	64.5345
853.102	65.1087
853.153	63.2214
853.203	58.8231
853.254	63.561
853.304	61.6137
853.355	58.664
853.405	62.3025
853.443	62.4205
853.493	62.4164
853.544	62.909
853.594	57.9984
853.645	62.219
853.696	62.4319
853.746	58.5993
853.797	64.3221
853.847	59.3458
853.898	56.1586
853.949	58.5215
853.999	61.6121
854.05	63.3589
854.1	64.5326
854.151	64.8704
854.202	67.7958
854.252	61.6481
854.303	57.8707
854.353	59.1065
854.404	56.9028
854.455	62.6814
854.505	60.2382
854.556	57.8508
854.606	64.0983
854.657	55.2245
854.708	59.2916
854.758	60.3547
854.809	64.9598
854.859	63.4659
854.91	64.0434
854.961	61.0246
855.011	61.0942
855.062	61.327
855.112	59.2807
855.163	54.3132
855.214	62.8204
855.264	61.7428
855.315	60.9981
855.365	62.0866
855.416	63.463
855.466	62.9134
855.517	66.8815
855.568	57.8839
855.618	57.1049
855.669	58.3312
855.719	57.9152
855.77	58.2804
855.821	59.3686
855.871	59.366
855.922	60.5031
855.972	59.9859
856.023	62.7298
856.073	59.2982
856.124	57.9244
856.175	56.8334
856.225	60.5923
856.276	58.3444
856.326	60.0203
856.377	63.1529
856.427	61.6479
856.478	58.3593
856.529	61.1625
856.579	62.1748
856.63	56.1455
856.68	56.4198
856.731	54.8546
856.781	57.2008
856.832	62.3324
856.883	61.1453
856.933	59.7861
856.984	64.4224
857.034	57.7239
857.085	53.0081
857.135	56.9109
857.186	55.7213
857.237	59.5625
857.287	60.3828
857.338	61.0298
857.388	59.1321
857.439	63.3897
857.489	56.4258
857.54	52.5397
857.59	56.4926
857.641	59.2254
857.692	55.0264
857.742	59.3013
857.793	64.9897
857.843	59.2706
857.894	56.6553
857.944	56.9873
857.995	57.7234
858.045	57.4362
858.096	56.7002
858.147	54.3372
858.197	61.1167
858.248	56.6696
858.298	55.9434
858.349	58.5436
858.399	58.9205
858.45	61.3663
858.5	61.3961
858.551	59.1146
858.601	60.3822
858.652	58.316
858.703	61.2353
858.753	54.8311
858.804	59.9023
858.854	57.5344
858.905	59.5147
858.955	59.7495
859.006	56.1347
859.056	59.4782
859.107	55.9154
859.157	46.6019
859.208	54.0644
859.258	60.7499
859.309	58.3734
859.36	57.8027
859.41	55.3387
859.461	46.8367
859.511	58.69
859.562	55.3931
859.612	60.9766
859.663	55.8004
859.713	51.6962
859.764	54.2341
859.814	60.5992
859.865	59.969
859.915	57.0145
859.966	52.8946
860.016	54.5754
860.067	53.6287
860.117	55.7466
860.168	55.7619
860.219	58.3109
860.269	49.915
860.32	57.347
860.37	53.9163
860.421	61.1247
860.471	52.838
860.522	57.372
860.572	54.1122
860.623	55.8054
860.673	50.782
860.724	63.2038
860.774	53.028
860.825	60.402
860.875	55.9802
860.926	57.7643
860.976	55.8271
861.027	52.7338
861.077	53.4554
861.128	65.1809
861.178	51.7847
861.229	58.5043
861.279	61.7397
861.33	60.8332
861.38	54.9619
861.431	58.8894
861.481	55.7766
861.532	59.7202
861.582	53.7025
861.633	53.1143
861.683	58.6381
861.734	56.9439
861.784	54.5603
861.835	55.278
861.885	60.6476
861.936	57.5405
861.986	51.4606
862.037	49.1206
862.087	56.9563
862.138	58.5467
862.188	54.7786
862.239	56.9482
862.289	54.9863
862.34	53.0712
862.39	54.6671
862.441	59.0855
862.491	58.0275
862.542	58.1792
862.592	55.1343
862.643	57.277
862.693	52.7432
862.744	55.0716
862.794	55.1972
862.845	55.2811
862.895	53.4637
862.946	48.1963
862.996	52.6323
863.047	58.4985
863.097	54.9863
863.148	50.1113
863.198	53.4159
863.249	55.8881
863.299	57.8545
863.35	58.7938
863.4	53.8354
863.451	54.5322
863.501	59.4904
863.552	57.8279
863.602	48.4757
863.653	53.3183
863.703	58.8162
863.754	52.7212
863.804	53.0494
863.854	52.8075
863.905	52.4365
863.955	55.451
864.006	58.4478
864.056	57.2709
864.107	51.5708
864.157	50.3471
864.208	50.0378
864.258	54.1274
864.309	57.7963
864.359	61.1862
864.41	54.4741
864.46	56.1908
864.511	59.2914
864.561	48.952
864.612	51.3331
864.662	56.087
864.712	53.6703
864.763	54.3764
864.813	56.3194
864.864	57.0299
864.914	54.0536
864.965	55.4281
865.015	51.2797
865.066	49.9444
865.116	56.0543
865.167	55.0576
865.217	51.1928
865.268	50.6259
865.318	56.2563
865.368	53.5076
865.419	59.2479
865.469	55.122
865.52	61.5025
865.57	52.0272
865.621	53.252
865.671	51.1021
865.722	54.6382
865.772	53.9718
865.823	55.9743
865.873	51.7262
865.923	56.3865
865.974	48.6697
866.024	48.6879
866.075	44.1737
866.125	46.0607
866.176	45.939
866.226	52.7293
866.276	53.4697
866.327	58.4979
866.377	54.0333
866.428	51.2417
866.478	53.8455
866.529	55.9496
866.579	55.546
866.63	54.7909
866.68	50.8975
866.73	51.7042
866.781	51.7479
866.831	53.766
866.882	54.6917
866.932	52.1889
866.983	45.0617
867.033	49.9343
867.083	53.1041
867.134	53.9046
867.184	49.0076
867.235	50.5685
867.285	52.3747
867.336	51.0445
867.386	50.1562
867.436	53.8157
867.487	52.6273
867.537	54.3298
867.588	50.5652
867.638	51.3001
867.689	51.8375
867.739	50.7576
867.789	45.7639
867.84	51.4565
867.89	53.3838
867.941	54.536
867.991	48.0175
868.042	49.3813
868.092	53.7156
868.142	54.3475
868.193	47.5262
868.243	53.9883
868.294	50.7996
868.344	49.1021
868.394	50.549
868.445	52.5248
868.495	51.0756
868.546	47.9873
868.596	48.5488
868.647	51.3259
868.697	54.0043
868.747	47.3411
868.798	49.2958
868.848	53.5745
868.899	53.1931
868.949	50.8067
868.999	54.0449
869.05	44.0917
869.1	50.3129
869.151	53.8488
869.201	52.657
869.251	51.3069
869.302	51.1414
869.352	54.2794
869.403	51.8349
869.453	45.8665
869.503	49.3663
869.554	50.5598
869.604	49.6986
869.655	51.0706
869.705	55.3263
869.755	46.8073
869.806	51.896
869.856	48.1993
869.907	52.0375
869.957	49.2565
870.007	54.0297
870.058	51.0574
870.108	50.4187
870.159	49.2566
870.209	49.2988
870.259	49.8342
870.31	50.8978
870.36	48.2274
870.41	43.7645
870.461	51.9079
870.511	52.642
870.562	50.5458
870.612	49.07
870.662	47.3226
870.713	52.4459
870.731	53.566
870.782	52.2262
870.832	52.895
870.883	45.3926
870.933	51.2018
870.984	49.6223
871.034	47.4476
871.085	53.5431
871.135	51.173
871.186	46.2637
871.236	51.7586
871.287	46.3046
871.337	47.4704
871.388	41.3397
871.438	44.5573
871.489	43.0734
871.539	44.7
871.59	40.4321
871.64	50.8097
871.691	49.4125
871.741	48.7687
871.792	47.1398
871.842	48.3925
871.893	49.7399
871.943	51.5445
871.994	44.0154
872.044	49.5245
872.095	49.7681
872.145	49.4165
872.196	47.3597
872.246	49.0594
872.297	48.7505
872.347	48.3544
872.397	42.7622
872.448	51.1809
872.498	47.1425
872.549	49.9023
872.599	42.0721
872.65	45.3517
872.7	44.6284
872.751	53.2494
872.801	46.7275
872.852	50.5576
872.902	47.9163
872.953	50.6491
873.003	50.3827
873.054	45.7747
873.104	48.7944
873.155	48.2439
873.205	50.8741
873.256	52.8588
873.306	47.7194
873.357	44.3371
873.407	48.386
873.458	48.2282
873.508	52.2194
873.558	53.4804
873.609	50.3085
873.659	47.7613
873.71	48.4892
873.76	49.7513
873.811	48.7058
873.861	47.4906
873.912	48.2025
873.962	46.7382
874.013	50.7677
874.063	45.8768
874.114	43.7456
874.164	51.2311
874.215	55.4644
874.265	46.9838
874.315	48.7412
874.366	43.3515
874.416	44.6527
874.467	44.7458
874.517	44.4531
874.568	37.5422
874.618	47.7133
874.669	43.0801
874.719	46.7906
874.77	44.898
874.82	47.7374
874.87	49.5071
874.921	47.2742
874.971	44.3568
875.022	44.0257
875.072	48.9569
875.123	50.4566
875.173	48.5705
875.224	39.1076
875.274	46.4242
875.324	46.3812
875.375	43.2214
875.425	48.5108
875.476	44.9407
875.526	50.2329
875.577	47.0842
875.627	44.095
875.678	48.8633
875.728	48.6765
875.779	43.9254
875.829	45.899
875.879	50.3668
875.93	45.0209
875.98	47.066
876.031	45.598
876.081	48.3281
876.132	46.2802
876.182	46.5347
876.232	45.6582
876.283	49.6
876.333	45.3855
876.384	50.7707
876.434	45.8853
876.485	49.4357
876.535	53.8527
876.585	44.5068
876.636	40.0042
876.686	47.5618
876.737	40.3398
876.787	52.0658
876.838	50.457
876.888	46.4481
876.938	47.7071
876.989	49.9396
877.039	48.6603
877.09	45.8617
877.14	41.9257
877.191	44.6537
877.241	45.6308
877.291	46.5004
877.342	46.9569
877.392	48.039
877.443	44.7682
877.493	46.0932
877.544	46.7225
877.594	47.0209
877.644	47.7227
877.695	49.9837
877.745	48.7502
877.796	47.6095
877.846	48.4508
877.896	47.053
877.947	47.0075
877.997	45.845
878.048	44.5413
878.098	40.4758
878.148	41.0775
878.199	41.1308
878.249	47.7249
878.3	45.5194
878.35	50.0451
878.4	45.3029
878.451	43.1625
878.501	47.1213
878.552	45.7058
878.602	47.9435
878.653	48.4567
878.703	42.4201
878.753	44.8563
878.804	40.8768
878.854	45.125
878.904	42.1628
878.955	42.4585
879.005	44.8969
879.056	45.0192
879.106	49.0328
879.156	45.7175
879.207	46.612
879.257	46.6438
879.308	46.3277
879.358	42.4111
879.408	48.3149
879.459	49.3746
879.509	47.2554
879.56	40.3346
879.61	44.4352
879.66	44.4994
879.711	44.6544
879.761	51.1231
879.812	43.1326
879.862	54.5296
879.912	45.1586
879.963	48.4036
880.013	50.1763
880.063	43.0926
880.114	44.4351
880.164	45.2008
880.215	50.5624
880.265	47.5005
880.315	45.2668
880.366	49.9603
880.416	44.5064
880.467	48.0163
880.517	48.1987
880.567	47.3811
880.618	47.3419
880.668	48.56
880.718	46.4392
880.769	45.5744
880.819	48.7533
880.87	40.3869
880.92	40.9133
880.97	43.9227
881.021	44.7893
881.071	47.3068
881.121	43.4378
881.172	42.4453
881.222	42.5259
881.273	44.1932
881.323	38.7895
881.373	43.2506
881.424	49.2472
881.474	46.6811
881.524	42.551
881.575	41.3371
881.625	41.9825
881.675	42.5284
881.726	42.8851
881.776	41.5182
881.826	44.8982
881.877	46.2359
881.927	44.5847
881.978	42.9337
882.028	41.2914
882.078	45.9274
882.129	40.809
882.179	41.4599
882.229	42.1799
882.28	43.1211
882.33	38.1301
882.38	40.6291
882.431	47.4625
882.481	47.1717
882.531	39.51
882.582	42.4099
882.632	44.3504
882.682	44.6224
882.733	43.9706
882.783	44.2374
882.834	49.3786
882.884	47.8386
882.934	42.5562
882.985	40.3956
883.035	46.3352
883.085	47.0854
883.136	42.451
883.186	46.1452
883.236	44.4948
883.287	42.7797
883.337	43.8304
883.387	41.8487
883.438	46.8357
883.488	49.6852
883.538	46.5073
883.589	43.1677
883.639	45.7531
883.689	44.7441
883.74	44.9395
883.79	40.176
883.84	41.1985
883.891	41.7319
883.941	42.3421
883.991	41.2958
884.042	44.0922
884.092	45.7009
884.142	45.4845
884.193	41.7347
884.243	42.5507
884.293	40.9718
884.344	45.1435
884.394	45.4056
884.444	46.3776
884.495	41.7535
884.545	41.7674
884.595	39.8885
884.646	44.3067
884.696	43.9791
884.746	41.1954
884.797	38.8917
884.847	46.0889
884.897	42.883
884.947	39.6504
884.998	39.6468
885.048	45.8294
885.098	41.3359
885.149	39.9377
885.199	42.05
885.249	45.3325
885.3	40.6819
885.35	42.2209
885.4	41.3244
885.451	45.1164
885.501	43.9206
885.551	44.8313
885.602	46.3221
885.652	51.7105
885.702	46.4319
885.752	42.7861
885.803	43.4804
885.853	45.6279
885.903	41.0844
885.954	38.807
886.004	44.0204
886.054	45.1572
886.105	41.2906
886.155	39.5407
886.205	43.9448
886.255	45.1613
886.306	39.8384
886.356	40.6576
886.406	43.2054
886.457	45.4776
886.507	42.5344
886.557	42.5356
886.608	42.9294
886.658	44.2145
886.708	41.4351
886.758	42.5522
886.809	44.7231
886.859	44.2026
886.909	41.3732
886.96	38.4327
887.01	42.5013
887.06	42.786
887.11	42.6442
887.161	39.6495
887.211	39.39
887.261	43.9179
887.312	43.2233
887.362	41.3359
887.412	44.2795
887.462	44.931
887.513	44.2319
887.563	42.3708
887.613	42.9285
887.664	41.0983
887.714	42.5997
887.764	40.0834
887.814	41.928
887.865	38.8974
887.915	39.8243
887.965	38.9348
887.987	40.2192
888.038	39.7536
888.088	42.9197
888.138	43.3731
888.189	39.6483
888.239	45.8608
888.289	45.9949
888.34	38.7136
888.39	37.3576
888.441	42.5784
888.491	36.1068
888.542	43.2216
888.592	41.4849
888.642	41.4605
888.693	40.8437
888.743	39.0332
888.793	38.8271
888.844	37.6355
888.894	38.4457
888.945	43.6989
888.995	41.2878
889.045	49.0396
889.096	40.4511
889.146	42.271
889.197	41.4404
889.247	41.2512
889.297	32.8978
889.348	38.7824
889.398	42.6968
889.448	46.6897
889.499	42.9246
889.549	46.0201
889.6	42.6134
889.65	46.913
889.7	39.8138
889.751	43.0827
889.801	37.8799
889.851	43.3758
889.902	37.6024
889.952	43.0128
890.003	40.582
890.053	44.8422
890.103	40.9039
890.154	42.1763
890.204	41.586
890.254	46.7467
890.305	37.6941
890.355	44.6157
890.406	46.9724
890.456	41.6468
890.506	43.3016
890.557	43.5044
890.607	37.4293
890.657	45.1549
890.708	37.2806
890.758	41.0323
890.808	42.3856
890.859	42.5782
890.909	38.7858
890.96	43.4154
891.01	40.2379
891.06	38.6801
891.111	37.2257
891.161	37.7133
891.211	43.2311
891.262	44.3493
891.312	38.0106
891.362	37.6653
891.413	38.4148
891.463	39.2443
891.513	44.0593
891.564	35.7507
891.614	39.0017
891.665	42.7382
891.715	41.716
891.765	40.8531
891.816	42.8463
891.866	40.7141
891.916	37.283
891.967	41.2525
892.017	42.3925
892.067	39.2988
892.118	41.8098
892.168	38.8157
892.218	44.5267
892.269	40.7482
892.319	38.5233
892.369	37.5323
892.42	44.4935
892.47	40.4202
892.52	40.5209
892.571	37.1018
892.621	41.7242
892.671	37.1184
892.722	38.6964
892.772	34.9888
892.822	39.9715
892.873	38.7761
892.923	39.0235
892.973	34.3637
893.024	42.2887
893.074	40.6998
893.124	40.7841
893.175	37.6398
893.225	44.9443
893.275	34.5049
893.326	40.2576
893.376	38.9572
893.426	44.7364
893.477	39.2283
893.527	41.9281
893.577	40.3323
893.628	38.9769
893.678	35.6567
893.728	36.314
893.779	37.8492
893.829	38.7717
893.879	39.0199
893.93	38.7718
893.98	37.5381
894.03	42.1421
894.081	39.2089
894.131	35.8336
894.181	35.4497
894.232	41.2031
894.282	38.3789
894.332	40.3468
894.383	38.8009
894.433	40.2089
894.483	37.1722
894.533	36.4305
894.584	37.2284
894.634	39.3874
894.684	36.7166
894.735	40.6329
894.785	38.8126
894.835	36.6425
894.886	34.6787
894.936	36.4552
894.986	36.858
895.037	40.2488
895.087	34.6049
895.137	38.0188
895.188	38.4219
895.238	38.5508
895.288	36.446
895.338	38.1009
895.389	41.234
895.439	40.212
895.489	40.5472
895.54	35.3607
895.59	41.3352
895.64	42.3742
895.69	40.4265
895.741	37.4176
895.791	41.3375
895.841	38.1918
895.892	38.7648
895.942	36.9659
895.992	35.3986
896.043	36.8099
896.093	38.5527
896.143	36.1765
896.193	39.8432
896.244	38.4519
896.294	38.2037
896.344	38.0497
896.395	39.6608
896.445	32.8161
896.495	38.614
896.545	36.3083
896.596	42.3744
896.646	33.5002
896.696	37.6155
896.747	35.023
896.797	39.2931
896.847	33.4776
896.897	32.8973
896.948	34.1128
896.998	42.5354
897.048	36.6572
897.099	37.3647
897.149	40.2595
897.199	37.2032
897.249	39.849
897.3	40.554
897.35	34.433
897.4	40.6628
897.451	40.4982
897.501	38.5198
897.551	36.6499
897.601	39.7964
897.652	38.6525
897.702	38.7584
897.752	39.4499
897.802	36.824
897.853	36.8425
897.903	37.0196
897.953	32.9277
898.003	40.1346
898.054	39.8736
898.104	39.5913
898.154	38.828
898.204	39.5837
898.255	37.5612
898.305	35.7479
898.355	36.8707
898.406	38.7731
898.456	42.0095
898.506	37.3433
898.556	38.6667
898.607	39.1501
898.657	39.795
898.707	35.0896
898.757	41.5526
898.808	40.1555
898.858	39.3543
898.908	32.1788
898.958	29.272
899.009	35.8068
899.059	37.1099
899.109	31.1363
899.159	38.4722
899.21	40.5497
899.26	40.6963
899.31	41.8358
899.36	35.8587
899.411	34.2888
899.461	41.055
899.511	35.552
899.561	40.7063
899.612	38.2745
899.662	42.4711
899.712	33.8174
899.762	38.7883
899.813	35.313
899.863	37.7127
899.913	32.0403
899.963	41.3333
