#Acq. time (s)=	2
#Accumulations=	3
#Range (nm)=	520...900
#Windows=	24
#Auto scanning=	On
#Autofocus=	Off
#AutoExposure=	Off
#Spike filter=	Multiple accum.
#Delay time (s)=	0
#Binning=	1
#Readout mode=	Signal
#DeNoise=	Off
#ICS correction=	Off
#Dark correction=	Off
#Inst. Process=	Off
#Detector temperature (°C)=	-59.98
#Instrument=	LabRAM HR Evol
#Detector=	Syncerity OE
#Objective=	x50_VIS
#Grating=	600 (500nm)
#ND Filter=	10%
#Laser=	514nm_Edge
#Hole=	199.981
#Range=	Auto
#StageXY=	Marzhauser
#StageZ=	Marzhauser
#X (µm)=	-14749.4
#Y (µm)=	814.2
#Z (µm)=	-65.4
#Full time(mm:ss)=	3:03
#Project=	
#Sample=	
#Site=	
#Title=	M2_140224
#Remark=	
#Date=	19.02.2024 14:11
#Acquired=	19.02.2024 14:11:29
520.013	26.6867
520.065	30.4377
520.117	26.8734
520.17	22.6923
520.222	24.6255
520.274	31.0695
520.327	29.9005
520.379	24.0047
520.431	29.5828
520.483	30.4137
520.536	25.2517
520.588	21.6884
520.64	26.9853
520.693	27.1137
520.745	26.2781
520.797	27.1934
520.85	27.0599
520.902	25.4973
520.954	24.5891
521.007	25.2991
521.059	29.9487
521.111	31.0716
521.163	27.7668
521.216	25.8888
521.268	32.4944
521.32	26.6181
521.373	26.5363
521.425	25.271
521.477	30.0212
521.529	26.0504
521.582	25.777
521.634	26.7691
521.686	31.1711
521.739	29.1222
521.791	26.3014
521.843	25.4451
521.896	30.684
521.948	26.9417
522	27.6068
522.052	26.3883
522.105	31.8823
522.157	28.3509
522.209	28.0934
522.262	25.1853
522.314	34.7653
522.366	29.0951
522.418	24.3953
522.471	23.4319
522.523	31.8794
522.575	28.7146
522.628	28.953
522.68	25.2938
522.732	30.6819
522.784	29.2925
522.837	23.3659
522.889	26.0338
522.941	30.9551
522.994	27.5118
523.046	25.5354
523.098	27.9069
523.15	29.0183
523.203	26.4004
523.255	25.7036
523.307	25.5226
523.36	25.2502
523.412	29.48
523.464	23.6682
523.516	27.3304
523.569	28
523.621	33.6516
523.673	23.5731
523.726	22.5109
523.778	29.5312
523.83	27.4521
523.882	24.7172
523.935	27.4552
523.987	31.2875
524.039	28.591
524.091	22.2297
524.144	27.3557
524.196	29.3803
524.248	27.9535
524.301	25.3333
524.353	26.5255
524.405	29.0853
524.457	26.6667
524.51	23.8219
524.562	26.7215
524.614	29.6653
524.666	23.4525
524.719	27.0687
524.771	28.1523
524.823	28.4886
524.875	27.6977
524.928	26.2833
524.98	28.6962
525.032	29.8199
525.085	30.1999
525.137	22.31
525.189	26.1639
525.241	28.8572
525.294	26.6566
525.346	24.4701
525.398	31.3015
525.45	29.0652
525.503	29.3333
525.555	26.2742
525.607	28.5159
525.659	28.5165
525.712	30.1079
525.764	30
525.816	28.805
525.868	29.3149
525.921	24.9692
525.973	25.5938
526.025	28.5019
526.077	30.6254
526.13	27.1497
526.182	27.2036
526.234	32.3225
526.286	29.197
526.339	27.1166
526.391	24.1181
526.443	25.7086
526.495	29.7557
526.548	27.497
526.6	23.532
526.652	29.6196
526.704	29.9433
526.757	27.4681
526.809	23.0331
526.861	26.7123
526.913	29.6891
526.966	22.5438
527.018	26.331
527.07	27.5266
527.122	28.4724
527.175	24.3545
527.227	25.9453
527.279	28.4608
527.331	30.7635
527.384	23.7556
527.436	27.6357
527.488	28
527.54	27.7636
527.593	26.5003
527.645	25.7428
527.697	29.5059
527.749	31.1412
527.802	24.0507
527.854	25.2168
527.906	29.906
527.958	25.8965
528.011	22.0073
528.063	23.2392
528.115	27.8844
528.167	29.5571
528.219	27.9741
528.272	24.8536
528.324	29.3371
528.376	29.5245
528.428	25.6286
528.481	27.6071
528.533	27.8075
528.585	31.8995
528.637	27.5524
528.69	25.422
528.742	28.9471
528.794	24.6667
528.846	27.2847
528.898	31.3063
528.951	29.4351
529.003	32.6701
529.055	24.7247
529.107	23.7684
529.16	29.0004
529.212	29.7954
529.264	25.9035
529.316	29.6171
529.369	30.9767
529.421	27.8134
529.473	24.482
529.525	25.869
529.577	31.9434
529.63	29.2689
529.682	26.8879
529.734	29.7368
529.786	30.1729
529.839	24.3727
529.891	26
529.943	27.6625
529.995	28.0536
530.047	27.3095
530.1	26.5833
530.152	28.8045
530.204	28.7879
530.256	21.0518
530.308	26.2041
530.361	30.8654
530.413	29.8628
530.465	23.8863
530.517	23.6807
530.57	28.1353
530.622	29.0922
530.674	24.6162
530.726	24.9281
530.778	27.6258
530.831	29.2694
530.883	24.7972
530.935	23.8645
530.987	28.3086
531.039	29.7858
531.092	22.9955
531.144	23.8165
531.196	27.185
531.248	29.0929
531.3	27.9454
531.353	29.6552
531.405	27.7733
531.457	28.0528
531.509	24.907
531.561	26.412
531.614	27.9485
531.666	29.5475
531.718	25.3449
531.77	25.4709
531.822	28.7887
531.875	29.9801
531.927	24.9387
531.979	27.1457
532.031	31.779
532.083	29.5224
532.136	24.4409
532.188	30.068
532.24	29.8501
532.292	27.6932
532.344	26.747
532.397	23.5885
532.449	29.4602
532.501	30.8165
532.553	27.4437
532.605	26.9694
532.658	27.9602
532.71	27.5833
532.762	30.4858
532.814	25.1035
532.866	27.9343
532.919	25.047
532.971	26.8125
533.023	27.0752
533.075	28.9
533.127	27.9492
533.179	29.8373
533.232	28.6279
533.284	30.4052
533.336	27.1006
533.388	31.8166
533.44	25.5282
533.493	34.9468
533.545	28.636
533.597	29.1551
533.649	30.4713
533.701	27.6511
533.753	27.1641
533.806	26.9709
533.858	26.69
533.91	31.415
533.962	28.6489
534.014	30.5902
534.067	29.261
534.119	30.395
534.171	29.4544
534.223	27.1592
534.275	28.7563
534.327	31.3589
534.38	27.5461
534.432	30.5781
534.484	27.9411
534.536	31.9796
534.588	30.0565
534.641	29.2833
534.693	29.6381
534.745	35.7593
534.797	27.4999
534.849	26.1862
534.901	29.5424
534.953	31.4929
535.006	30.6423
535.058	32.7336
535.11	28.2069
535.162	37.2649
535.214	28.8822
535.267	30.3165
535.319	31.0003
535.371	30.1666
535.423	30.2786
535.475	27.7853
535.527	31.4389
535.58	31.222
535.632	30.0428
535.684	27.7046
535.736	31.1021
535.788	32.4734
535.84	29.162
535.892	28.0263
535.945	30.6523
535.997	29.57
536.049	28.3804
536.101	25.5602
536.153	28.6512
536.205	25.7684
536.258	27.856
536.31	25.7861
536.362	30.2789
536.414	31.8567
536.466	30.3049
536.518	24.7094
536.57	32.6332
536.623	34.6929
536.675	29.1806
536.727	25.2807
536.779	30.7734
536.831	30.7077
536.883	27.6294
536.936	21.0771
536.988	31.4029
537.04	29.8958
537.092	29.1337
537.144	26.0243
537.196	26.9292
537.248	27.3657
537.301	29.3021
537.353	25.57
537.405	28.783
537.457	28.1129
537.509	30.811
537.561	25.5507
537.613	27.8213
537.666	28.8871
537.718	34.3725
537.77	25.5652
537.778	25.7255
537.831	31.4991
537.883	26.5641
537.935	30.9818
537.987	30.3168
538.04	31.8418
538.092	34.5771
538.144	28.0553
538.196	30.2361
538.249	35.1743
538.301	32.3614
538.353	20.6103
538.405	24.6197
538.457	32.9377
538.51	30.3816
538.562	26.8936
538.614	23.6776
538.666	39.1908
538.719	29.8153
538.771	27.4847
538.823	27.9572
538.875	29.7464
538.927	24.8716
538.98	26.4754
539.032	24.9892
539.084	35.8123
539.136	27.1157
539.189	25.5372
539.241	24.1087
539.293	32.7049
539.345	29.3925
539.397	27.8194
539.45	30.0669
539.502	33.2031
539.554	24.5615
539.606	29.4532
539.659	28.5969
539.711	30.071
539.763	29.0607
539.815	27.2488
539.867	31.3413
539.92	31.0563
539.972	25.5337
540.024	29.2179
540.076	34.3267
540.128	30.7622
540.181	26.591
540.233	28.2365
540.285	27.5306
540.337	30.5803
540.39	28.0766
540.442	25.4962
540.494	32.2843
540.546	28.3565
540.598	26.8958
540.651	25.6699
540.703	27.6111
540.755	30.9727
540.807	28.748
540.859	23.4802
540.912	30.3834
540.964	30.7309
541.016	29.9021
541.068	25.7386
541.12	31.7261
541.173	33.3338
541.225	32.7735
541.277	24.6398
541.329	32.422
541.381	30.898
541.434	31.8095
541.486	28.6967
541.538	33.2882
541.59	31.7933
541.642	29.3379
541.695	27.92
541.747	34.0056
541.799	34.38
541.851	35.6973
541.903	31.4261
541.956	36.0868
542.008	32.2714
542.06	28.9754
542.112	24.8669
542.164	34.1843
542.217	32.7874
542.269	31.3439
542.321	28.5463
542.373	31.3316
542.425	31.4073
542.478	29.1821
542.53	28.8617
542.582	34.3516
542.634	26.9659
542.686	27.394
542.738	29.1499
542.791	32.3874
542.843	30.6859
542.895	27.9476
542.947	26.4942
542.999	33.776
543.052	35.0131
543.104	29.9642
543.156	28.0685
543.208	34.2326
543.26	29.4379
543.313	30.8903
543.365	25.8747
543.417	35.3723
543.469	28.59
543.521	25.4611
543.573	25.4723
543.626	30.6589
543.678	28.9575
543.73	22.297
543.782	29.2876
543.834	34.4105
543.886	26.5675
543.939	30.8064
543.991	27.6642
544.043	32.2007
544.095	31.5604
544.147	29.8195
544.2	31.5622
544.252	31.7051
544.304	28.4697
544.356	25.8065
544.408	30.6722
544.46	30.3897
544.513	31.7986
544.565	27.9135
544.617	31.641
544.669	32.9058
544.721	32.5766
544.773	29.3878
544.826	29.5991
544.878	30.3944
544.93	32.2726
544.982	28.6665
545.034	30.2522
545.086	34.3632
545.139	36.7547
545.191	29.4911
545.243	34.2877
545.295	36.1006
545.347	33.8724
545.399	31.3594
545.452	31.8856
545.504	30.5596
545.556	31.8852
545.608	26.6441
545.66	33.4503
545.712	29.9441
545.765	33.3692
545.817	26.0946
545.869	30.8518
545.921	33.0727
545.973	32.7812
546.025	24.0949
546.077	27.3845
546.13	30.4649
546.182	34.2952
546.234	28.0362
546.286	32.2484
546.338	31.0307
546.39	31.3865
546.443	30.1612
546.495	33.6131
546.547	31.4532
546.599	30.6646
546.651	30.5164
546.703	31.6676
546.755	33.8401
546.808	27.5521
546.86	34.0205
546.912	38.8495
546.964	33.7425
547.016	30.2327
547.068	30.3412
547.12	31.9113
547.173	33.3888
547.225	29.9651
547.277	30.9865
547.329	30.7391
547.381	32.5164
547.433	30.8707
547.485	30.8735
547.538	32.3727
547.59	31.0552
547.642	29.7393
547.694	31.7029
547.746	34.2441
547.798	33.9347
547.85	28.9274
547.903	32.1274
547.955	37.5706
548.007	32.6221
548.059	29.2068
548.111	33.354
548.163	35.116
548.215	35.595
548.268	31.4914
548.32	29.1197
548.372	34.4009
548.424	32.4689
548.476	24.9479
548.528	31.4055
548.58	34.6256
548.633	36.4413
548.685	28.6798
548.737	37.3606
548.789	40.6337
548.841	35.0778
548.893	31.8604
548.945	33.0831
548.997	32.8854
549.049	33.8152
549.102	37.9165
549.154	38.8174
549.206	36.09
549.258	33.4537
549.31	36.7046
549.362	38.9177
549.414	36.5194
549.467	34.7267
549.519	29.7551
549.571	39.1799
549.623	41.6817
549.675	34.7713
549.727	29.2186
549.779	38.4782
549.831	39.663
549.883	33.3687
549.936	30.7945
549.988	35.6146
550.04	35.6385
550.092	32.9418
550.144	33.0103
550.196	35.4282
550.248	37.3422
550.3	35.3519
550.353	35.3271
550.405	35.8669
550.457	37.5162
550.509	38.484
550.561	31.2885
550.613	32.8956
550.665	40.5557
550.717	36.7651
550.769	40.4564
550.822	42.4859
550.874	39.8007
550.926	39.1551
550.978	36.6378
551.03	40.1545
551.082	40.7075
551.134	38.9852
551.186	36.9043
551.238	47.2546
551.291	45.9179
551.343	43.6105
551.395	46.7605
551.447	45.0741
551.499	45.3277
551.551	44.3374
551.603	46.8064
551.655	50.9409
551.707	55.8396
551.759	48.6608
551.812	55.7899
551.864	65.029
551.916	65.3228
551.968	64.0719
552.02	67.5914
552.072	77.6085
552.124	83.0952
552.176	89.8035
552.228	114.472
552.28	138.57
552.332	181.665
552.385	311.897
552.437	656.541
552.489	1316.73
552.541	2459.05
552.593	4314.88
552.645	6650.22
552.697	6843.96
552.749	4495.7
552.801	2119.02
552.853	814.203
552.905	350.522
552.958	202.922
553.01	139.8
553.062	115.601
553.114	97.7291
553.166	86.091
553.218	73.5176
553.27	66.8948
553.322	66.7138
553.374	60.2328
553.426	51.6372
553.478	51.7081
553.531	52.6523
553.583	49.1459
553.635	48.4949
553.687	48.4564
553.739	46.7637
553.791	44.4198
553.843	44.7857
553.895	39.8543
553.947	44.1549
553.999	43.0133
554.051	42.0749
554.103	42.9694
554.155	39.9825
554.208	38.6749
554.26	39.9287
554.312	39.5164
554.364	42.4959
554.416	39.7676
554.468	36.8298
554.52	40.7745
554.572	40.4017
554.624	39.5355
554.676	39.4066
554.728	39.0793
554.78	38.8159
554.832	38.2995
554.884	38.7203
554.937	38.981
554.989	37.7478
555.041	37.5819
555.093	39.7676
555.145	39.7929
555.197	39.5803
555.249	35.1845
555.301	31.477
555.353	35.3117
555.405	40.383
555.457	37.7387
555.509	39.2313
555.529	41.9127
555.582	38.9613
555.634	40.8578
555.686	36.999
555.738	37.062
555.79	38.8861
555.842	39.9208
555.895	38.0302
555.947	40.9602
555.999	37.0262
556.051	42.7672
556.103	35.1164
556.155	36.9465
556.207	42.8455
556.26	36.2235
556.312	33.1584
556.364	33.2294
556.416	39.7425
556.468	46.6449
556.52	37.414
556.573	33.279
556.625	43.3006
556.677	38.2375
556.729	38.1751
556.781	40.7865
556.833	44.4666
556.885	38.9417
556.938	32.2869
556.99	39.7585
557.042	41.5283
557.094	42.5187
557.146	39.8712
557.198	32.7172
557.25	43.7043
557.302	36.9987
557.355	35.9227
557.407	41.3588
557.459	38.6629
557.511	39.3333
557.563	38.525
557.615	39.8171
557.667	38.7142
557.72	37.5702
557.772	35.7652
557.824	44.1582
557.876	42.1918
557.928	39.2944
557.98	37.3447
558.032	39.8785
558.085	44.1696
558.137	32.9011
558.189	37.2858
558.241	37.3132
558.293	47.6871
558.345	32.8381
558.397	39.4706
558.449	39.3363
558.502	40.1603
558.554	38.725
558.606	41.2682
558.658	44.7001
558.71	42.277
558.762	36.3065
558.814	38.3079
558.866	43.7567
558.919	44.7702
558.971	37.9389
559.023	40.8509
559.075	43.1337
559.127	40.8541
559.179	37.1594
559.231	36.9832
559.283	39.668
559.336	38.4982
559.388	42.2396
559.44	40.2764
559.492	43.2342
559.544	41.8933
559.596	41.4132
559.648	36.9081
559.7	42.7542
559.753	42.8993
559.805	37.5106
559.857	36.9703
559.909	38.9254
559.961	41.8439
560.013	42.0414
560.065	37.1365
560.117	43.2855
560.169	42.6151
560.222	41.9777
560.274	39.9713
560.326	38.1539
560.378	41.1597
560.43	34.4627
560.482	42.6654
560.534	46.3049
560.586	43.3223
560.638	45.0338
560.69	35.5509
560.743	44.3493
560.795	45.4764
560.847	41.7155
560.899	46.5112
560.951	46.2828
561.003	43.9999
561.055	40.2308
561.107	42.2447
561.159	40.2035
561.212	42.1989
561.264	42.6738
561.316	40.6343
561.368	47.2936
561.42	46.287
561.472	42.1572
561.524	47.0643
561.576	46.8052
561.628	44.2463
561.68	45.2519
561.733	47.9994
561.785	47.3679
561.837	41.7957
561.889	41.9738
561.941	43.7813
561.993	42.7541
562.045	45.3446
562.097	40.379
562.149	42.1996
562.201	52.3492
562.253	48.3701
562.306	42.9663
562.358	45.0344
562.41	44.4808
562.462	46.6978
562.514	46.6133
562.566	47.4962
562.618	48.32
562.67	45.0113
562.722	43.6966
562.774	43.3973
562.826	43.9932
562.879	41.0632
562.931	42.3289
562.983	47.1208
563.035	48.437
563.087	42.5603
563.139	39.1354
563.191	47.6719
563.243	45.6791
563.295	46.0106
563.347	48.6433
563.399	46.7234
563.451	44.2417
563.504	43.9839
563.556	43.4315
563.608	49.9699
563.66	49.7144
563.712	47.702
563.764	45.7846
563.816	49.1728
563.868	50.6566
563.92	48.5874
563.972	50.4231
564.024	51.7617
564.076	53.7737
564.128	47.9766
564.181	48.3873
564.233	49.4395
564.285	47.4276
564.337	44.1525
564.389	49.1116
564.441	52.0514
564.493	54.6985
564.545	45.258
564.597	49.4536
564.649	48.201
564.701	50.1324
564.753	48.6026
564.805	48.4147
564.857	50.1793
564.909	51.9027
564.962	48.2566
565.014	50.5858
565.066	49.3252
565.118	48.0979
565.17	48.1394
565.222	54.8732
565.274	54.1408
565.326	50.2232
565.378	45.0882
565.43	47.8279
565.482	49.3053
565.534	49.2606
565.586	42.5617
565.638	48.3486
565.69	54.3414
565.742	49.2008
565.795	44.5744
565.847	47.469
565.899	47.8453
565.951	54.1479
566.003	55.3008
566.055	49.0497
566.107	49.2707
566.159	48.2532
566.211	49.7461
566.263	53.9253
566.315	49.4953
566.367	48.1751
566.419	52.9379
566.471	52.6453
566.523	48.3477
566.575	49.8878
566.627	50.6039
566.679	53.0569
566.732	55.278
566.784	54.3875
566.836	53.1358
566.888	55.0769
566.94	52.8707
566.992	46.6991
567.044	48.7402
567.096	55.5619
567.148	57.9185
567.2	52.5552
567.252	51.147
567.304	54.246
567.356	56.7304
567.408	56.1345
567.46	55.0091
567.512	55.1866
567.564	55.3824
567.616	53.7303
567.668	53.0118
567.72	53.7886
567.772	56.0848
567.824	53.8561
567.876	52.5721
567.928	55.3115
567.98	54.063
568.033	53.0264
568.085	54.9341
568.137	53.3491
568.189	54.5222
568.241	53.5286
568.293	52.8828
568.345	55.7408
568.397	53.7749
568.449	54.1674
568.501	57.805
568.553	56.8461
568.605	53.5788
568.657	52.1704
568.709	55.7581
568.761	59.6805
568.813	55.6254
568.865	52.2914
568.917	52.6923
568.969	52.6499
569.021	53.3425
569.073	54.9021
569.125	57.6737
569.177	55.6615
569.229	54.7173
569.281	53.5092
569.333	53.3868
569.385	56.5223
569.437	56.0248
569.489	57.7664
569.541	57.9
569.593	53.3053
569.645	53.5044
569.697	56.3376
569.749	56.5227
569.801	60.0636
569.853	59.8279
569.905	59.647
569.957	60.034
570.009	64.5097
570.061	60.3254
570.113	52.656
570.165	57.0925
570.217	61.5683
570.269	58.2888
570.321	61.3852
570.374	61.755
570.426	63.6558
570.478	60.5664
570.53	59.2064
570.582	62.6627
570.634	62.1772
570.686	58.3367
570.738	61.8003
570.79	68.4385
570.842	68.8449
570.894	64.3971
570.946	61.6509
570.998	66.1364
571.05	66.1923
571.102	62.0313
571.154	60.1008
571.206	60.6848
571.258	63.8981
571.31	63.6735
571.362	64.3326
571.414	69.1308
571.466	62.5138
571.518	67.0797
571.57	65.8966
571.622	64.0659
571.674	68.0508
571.726	69.099
571.778	65.6031
571.83	67.5576
571.882	71.629
571.934	72.5466
571.986	68.8787
572.038	66.874
572.09	70.8643
572.142	67.2795
572.194	69.6447
572.246	72.6151
572.298	70.93
572.349	71.5708
572.401	72.574
572.453	66.8167
572.505	65.7366
572.557	68.2182
572.609	72.8643
572.661	79.9839
572.713	80.688
572.765	74.8903
572.817	67.9925
572.869	75.426
572.921	82.31
572.973	75.3686
573.025	81.1288
573.077	81.3853
573.129	80.8093
573.181	77.9903
573.212	79.773
573.264	82.0576
573.316	89.4512
573.368	82.2777
573.421	76.6026
573.473	88.3891
573.525	92.0631
573.577	86.1103
573.629	87.0655
573.681	87.4755
573.733	86.1317
573.785	86.0607
573.837	89.8664
573.889	93.7909
573.941	101.827
573.993	91.2356
574.045	96.1933
574.097	95.8723
574.15	95.7519
574.202	93.5466
574.254	98.0806
574.306	100.988
574.358	103.625
574.41	102.752
574.462	100.561
574.514	112.022
574.566	105.844
574.618	103.655
574.67	102.106
574.722	116.113
574.774	112.708
574.826	110.191
574.878	112.349
574.931	121.378
574.983	115.03
575.035	122.268
575.087	114.99
575.139	118.621
575.191	122.994
575.243	122.828
575.295	121.262
575.347	119.859
575.399	129.491
575.451	125.224
575.503	128.655
575.555	124.648
575.607	133.78
575.659	126.686
575.711	128.217
575.763	135.632
575.815	127.012
575.868	129.824
575.92	121.821
575.972	127.717
576.024	133.415
576.076	130.719
576.128	128.459
576.18	129.854
576.232	125.57
576.284	126.658
576.336	126.223
576.388	125.71
576.44	129.064
576.492	127.963
576.544	127.014
576.596	122.975
576.648	118.825
576.7	120.179
576.752	117.343
576.804	114.915
576.856	118.416
576.909	119.808
576.961	122.537
577.013	117.421
577.065	112.698
577.117	116.761
577.169	114.973
577.221	110.964
577.273	110.819
577.325	106.071
577.377	111.647
577.429	114.526
577.481	102.21
577.533	101.448
577.585	106.321
577.637	102.151
577.689	108.185
577.741	102.041
577.793	104.042
577.845	100.747
577.897	95.3002
577.949	93.4718
578.001	96.6494
578.053	96.5395
578.105	93.8594
578.157	95.5322
578.209	101.466
578.261	102.603
578.313	101.41
578.365	91.245
578.417	94.3737
578.469	98.6916
578.522	94.9208
578.574	94.2378
578.626	94.6088
578.678	93.6452
578.73	90.6726
578.782	94.9355
578.834	95.8088
578.886	91.0022
578.938	92.3039
578.99	92.1049
579.042	94.6513
579.094	93.1285
579.146	93.2596
579.198	89.5111
579.25	97.6961
579.302	100.261
579.354	94.9631
579.406	90.6561
579.458	93.6101
579.51	92.3634
579.562	96.157
579.614	92.2138
579.666	97.1404
579.718	90.0424
579.77	90.1906
579.822	92.1038
579.874	91.9274
579.926	97.1587
579.978	97.0834
580.03	96.4686
580.082	93.5876
580.134	88.8747
580.186	90.4688
580.238	93.0377
580.29	94.5673
580.342	94.7812
580.394	93.0355
580.446	94.1025
580.498	95.1373
580.55	92.5505
580.602	91.455
580.654	93.7452
580.706	96.2257
580.758	95.3673
580.81	94.4724
580.862	96.3149
580.914	96.2403
580.966	96.8789
581.018	98.4399
581.07	98.1153
581.122	101.257
581.174	96.7148
581.226	99.1127
581.278	101.296
581.33	97.6325
581.382	92.2313
581.434	92.6037
581.486	96.3314
581.538	100.442
581.59	98.7695
581.642	99.0903
581.694	100.517
581.746	104.322
581.798	105.893
581.85	99.0171
581.902	99.8278
581.954	98.7911
582.006	97.9491
582.058	98.3158
582.11	102.533
582.162	103.411
582.214	105.916
582.266	102.65
582.318	97.4935
582.37	102.134
582.422	102.692
582.474	101.048
582.526	104.296
582.578	101.85
582.63	101.813
582.682	101.575
582.734	105.142
582.786	102.743
582.838	97.1022
582.89	99.3165
582.942	107.407
582.994	103.022
583.046	105.909
583.098	105.379
583.15	107.76
583.202	109.327
583.254	110.766
583.306	108.605
583.358	108.45
583.41	105.705
583.462	105.503
583.514	110.198
583.566	111.162
583.618	109.81
583.67	106.804
583.721	107.047
583.773	109.88
583.825	111.236
583.877	106.293
583.929	109.514
583.981	114.322
584.033	112.343
584.085	113.078
584.137	112.238
584.189	109.303
584.241	108.52
584.293	111.299
584.345	116.798
584.397	116.966
584.449	118.016
584.501	117.018
584.553	115.112
584.605	119.996
584.657	118.98
584.709	116.521
584.761	118.768
584.813	122.886
584.865	122.64
584.917	117.969
584.969	120.618
585.021	129.34
585.073	126.189
585.125	122.918
585.177	121.976
585.229	123.752
585.281	121.956
585.332	119.939
585.384	119.706
585.436	123.098
585.488	123.604
585.54	123.105
585.592	126.158
585.644	130.274
585.696	122.512
585.748	118.923
585.8	121.986
585.852	125.443
585.904	121.441
585.956	126.341
586.008	129.23
586.06	129.123
586.112	126.122
586.164	127.567
586.216	127.381
586.268	125.593
586.32	124.683
586.371	126.038
586.423	130.189
586.475	128.614
586.527	126.096
586.579	134.604
586.631	140.348
586.683	132.571
586.735	128.195
586.787	132.276
586.839	131.529
586.891	129.035
586.943	130.727
586.995	133.574
587.047	135.595
587.099	132.648
587.151	133.848
587.203	136.605
587.255	140.704
587.306	137.59
587.358	123.963
587.41	132.631
587.462	138.482
587.514	134.679
587.566	134.662
587.618	132.444
587.67	137.521
587.722	129.616
587.774	124.446
587.826	132.587
587.878	140.908
587.93	137.501
587.982	137.133
588.034	134.981
588.085	131.664
588.137	132.948
588.189	136.602
588.241	133.833
588.293	142.511
588.345	139.878
588.397	140.753
588.449	137.675
588.501	139.28
588.553	144.266
588.605	137.139
588.657	139.402
588.709	143.108
588.76	144.927
588.812	143.856
588.864	140.99
588.916	143.954
588.968	142.802
589.02	145.036
589.072	137.627
589.124	149.567
589.176	153.263
589.228	149.032
589.28	151.285
589.332	157.059
589.383	151.395
589.435	144.536
589.487	148.67
589.539	156.423
589.591	151.135
589.643	153.65
589.695	157.289
589.747	149.188
589.799	150.808
589.851	143.953
589.903	143.345
589.955	155.675
590.006	148.036
590.058	145.953
590.11	147.505
590.162	150.184
590.214	150.855
590.266	150.506
590.318	148.527
590.37	145.122
590.422	138.198
590.474	133.826
590.525	142.129
590.577	144.228
590.629	137.11
590.681	145.996
590.733	144.087
590.785	155.477
590.837	139.172
590.889	145.763
590.932	149.974
590.984	141.059
591.036	147.061
591.088	137.037
591.14	139.078
591.192	145.888
591.244	137.87
591.296	133.109
591.348	140.009
591.4	138.053
591.452	143.897
591.504	135.206
591.556	137.137
591.608	139.873
591.66	136.76
591.712	132.26
591.764	140.991
591.816	132.235
591.868	129.681
591.92	124.741
591.972	125.006
592.024	134.674
592.076	131.857
592.128	125.469
592.18	139.664
592.232	136.59
592.284	137.812
592.336	138.028
592.388	126.457
592.44	135.057
592.492	127.515
592.544	134.385
592.596	123.192
592.648	136.865
592.7	130.025
592.752	123.277
592.804	127.689
592.856	119.666
592.908	130.929
592.96	134.49
593.012	124.374
593.064	128.494
593.116	133.224
593.168	126.765
593.22	137.06
593.272	133.991
593.324	134.974
593.376	126.749
593.428	129.584
593.479	138.358
593.531	135.965
593.583	129.03
593.635	131.843
593.687	128.454
593.739	132.399
593.791	130.403
593.843	132.271
593.895	128.22
593.947	130.973
593.999	124.855
594.051	138.004
594.103	133.463
594.155	121.206
594.207	130.292
594.259	133.557
594.311	134.289
594.363	128.309
594.415	130.519
594.467	123.467
594.519	129.958
594.571	131.65
594.623	131.278
594.675	134.335
594.727	135.897
594.779	124.291
594.831	134.615
594.883	131.766
594.935	138.972
594.986	131.734
595.038	129.503
595.09	136.296
595.142	131.656
595.194	133.172
595.246	129.789
595.298	135.101
595.35	138.663
595.402	125.193
595.454	134.826
595.506	134.599
595.558	131.973
595.61	130.358
595.662	135.431
595.714	133.782
595.766	135.99
595.818	130.161
595.87	141.135
595.922	139.017
595.974	147.573
596.026	142.273
596.077	141.897
596.129	133.729
596.181	134.004
596.233	131.454
596.285	136.942
596.337	142.721
596.389	144.828
596.441	138.827
596.493	148.925
596.545	143.948
596.597	150.561
596.649	146.567
596.701	148.188
596.753	149.94
596.805	142.901
596.857	137.329
596.909	139.794
596.96	140.836
597.012	139.683
597.064	133.202
597.116	140.415
597.168	145.329
597.22	135.62
597.272	135.81
597.324	144.043
597.376	133.063
597.428	131.214
597.48	127.186
597.532	137.697
597.584	135.709
597.636	128.898
597.688	127.15
597.739	139.408
597.791	130.916
597.843	127.752
597.895	134.023
597.947	138.833
597.999	135.903
598.051	135.984
598.103	133.968
598.155	140.397
598.207	137.209
598.259	134.954
598.311	134.789
598.363	137.921
598.414	134.523
598.466	124.928
598.518	132.313
598.57	145.969
598.622	133.392
598.674	133.643
598.726	138.336
598.778	136.863
598.83	136.99
598.882	130.618
598.934	134.755
598.986	133.829
599.037	141.343
599.089	138.406
599.141	139.874
599.193	136.925
599.245	136.047
599.297	132.132
599.349	128.347
599.401	131.849
599.453	139.631
599.505	142.614
599.557	146.544
599.609	145.636
599.66	140.299
599.712	126.322
599.764	138.466
599.816	141.283
599.868	132.605
599.92	127.141
599.972	131.02
600.024	130.675
600.076	133.249
600.128	125.982
600.18	137.951
600.231	139.452
600.283	130.378
600.335	133.224
600.387	139.235
600.439	131.103
600.491	134.154
600.543	135.102
600.595	138.962
600.647	138.86
600.699	132.454
600.75	129.973
600.802	143.443
600.854	142.171
600.906	132.164
600.958	133.758
601.01	139.9
601.062	136.712
601.114	129.92
601.166	135.246
601.217	135.503
601.269	135.894
601.321	131.441
601.373	135.132
601.425	134.469
601.477	138.456
601.529	138.485
601.581	135.619
601.633	133.288
601.685	141.303
601.736	137.246
601.788	138.049
601.84	140.158
601.892	140.132
601.944	137.258
601.996	135.754
602.048	139.936
602.1	141.405
602.151	139.688
602.203	144.464
602.255	138.468
602.307	135.829
602.359	132.623
602.411	135.65
602.463	137.993
602.515	138.292
602.567	142.816
602.618	144.097
602.67	138.185
602.722	136.315
602.774	132.76
602.826	136.849
602.878	142.501
602.93	134.587
602.982	134.685
603.033	139.936
603.085	139.976
603.137	144.886
603.189	145.961
603.241	145.288
603.293	144.268
603.345	138.756
603.396	135.501
603.448	138.978
603.5	138.301
603.552	136.688
603.604	134.723
603.656	141.448
603.708	136.5
603.76	137.782
603.811	148.782
603.863	143.304
603.915	146.421
603.967	141.085
604.019	139.08
604.071	139.15
604.123	142.195
604.174	141.489
604.226	142.202
604.278	143.116
604.33	145.647
604.382	147.909
604.434	137.794
604.486	135.792
604.538	142.335
604.589	145.044
604.641	141.881
604.693	142.055
604.745	137.482
604.797	141.64
604.849	145.613
604.901	144.892
604.952	147.773
605.004	140.208
605.056	137.795
605.108	144.793
605.16	144.523
605.212	143.502
605.263	133.579
605.315	140.639
605.367	143.515
605.419	139.158
605.471	138.183
605.523	139.536
605.575	146.019
605.626	142.276
605.678	139.733
605.73	140.67
605.782	144.258
605.834	141.654
605.886	136.384
605.938	145.629
605.989	142.826
606.041	143.554
606.093	140.777
606.145	142.088
606.197	138.582
606.249	138.722
606.3	138.72
606.352	150.773
606.404	146.31
606.456	143.831
606.508	142.967
606.56	147.316
606.611	151.594
606.663	142.763
606.715	138.582
606.767	149.099
606.819	142.806
606.871	141.176
606.922	146.638
606.974	146.51
607.026	146.969
607.078	145.366
607.13	147.484
607.182	149.319
607.233	143.992
607.285	141.991
607.337	141.153
607.389	144.386
607.441	144.769
607.493	146.226
607.544	145.53
607.596	144.635
607.648	147.812
607.7	145.059
607.752	141.435
607.803	151.651
607.855	154.896
607.907	145.783
607.959	147.159
608.011	152.371
608.063	150.463
608.114	141.539
608.166	141.811
608.218	141.135
608.27	143.367
608.322	146.567
608.374	143.272
608.425	146.042
608.477	139.218
608.529	140.402
608.56	145.203
608.612	151.198
608.664	146.819
608.716	142.758
608.768	150.811
608.82	149.915
608.872	147.859
608.924	149.622
608.976	132.709
609.027	151.963
609.079	146.231
609.131	143.056
609.183	150.962
609.235	143.94
609.287	146.225
609.339	144.762
609.391	134.895
609.443	152.079
609.495	149.284
609.547	148.69
609.598	146.08
609.65	154.622
609.702	151.244
609.754	150.168
609.806	144.676
609.858	154.752
609.91	149.366
609.962	148.81
610.014	154.016
610.065	150.175
610.117	146.237
610.169	154.598
610.221	153.82
610.273	156.406
610.325	154.709
610.377	151.724
610.429	151.251
610.481	160.543
610.533	142.429
610.584	153.88
610.636	161.293
610.688	155.608
610.74	161.574
610.792	138.338
610.844	144.775
610.896	146.899
610.948	154.818
611	153.261
611.052	152.367
611.103	156.926
611.155	160.865
611.207	147.715
611.259	155.64
611.311	150.263
611.363	157.749
611.415	149.588
611.467	155.073
611.518	155.662
611.57	149.174
611.622	152.918
611.674	156.254
611.726	154.373
611.778	152.712
611.83	142.102
611.882	150.901
611.934	157.839
611.985	147.592
612.037	144.959
612.089	153.978
612.141	153.961
612.193	150.409
612.245	150.221
612.297	166.381
612.349	162.495
612.4	153.232
612.452	153.193
612.504	157.79
612.556	159.572
612.608	156.684
612.66	157.999
612.712	159.962
612.764	157.231
612.815	151.745
612.867	153.942
612.919	165.078
612.971	158.638
613.023	155.909
613.075	156.818
613.127	163.413
613.179	151.602
613.23	154.814
613.282	152.092
613.334	158.232
613.386	160.328
613.438	161.746
613.49	155.98
613.542	149.055
613.594	157.645
613.645	155.983
613.697	160.105
613.749	160.404
613.801	152.861
613.853	163.958
613.905	164.001
613.957	165.364
614.008	156.179
614.06	152.877
614.112	160.813
614.164	156.298
614.216	160.801
614.268	152.195
614.32	162.342
614.371	163.638
614.423	163.477
614.475	161.644
614.527	156.675
614.579	162.941
614.631	169.958
614.683	168.864
614.734	167.426
614.786	169.557
614.838	164.427
614.89	153.343
614.942	165.459
614.994	167.108
615.045	160.39
615.097	157.56
615.149	159.511
615.201	163.73
615.253	150.495
615.305	167.215
615.357	171.955
615.408	171.886
615.46	167.108
615.512	166.151
615.564	179.547
615.616	168.209
615.668	166.797
615.719	160.161
615.771	166.487
615.823	170.74
615.875	169.486
615.927	162.717
615.979	172.945
616.031	164.288
616.082	169.662
616.134	163.157
616.186	170.895
616.238	172.079
616.29	154.434
616.342	171.108
616.393	177.31
616.445	174.713
616.497	176.363
616.549	166.429
616.601	168.967
616.653	167.923
616.704	156.104
616.756	162.812
616.808	173.482
616.86	174.807
616.912	175.379
616.964	170.878
617.015	167.031
617.067	176.439
617.119	167.124
617.171	172.215
617.223	178.621
617.274	167.742
617.326	162.342
617.378	178.479
617.43	174.395
617.482	169.64
617.534	168.6
617.585	168.585
617.637	180.446
617.689	174.745
617.741	170.921
617.793	170.262
617.845	179.264
617.896	174.378
617.948	175.984
618	173.582
618.052	174.472
618.104	187.539
618.155	171.936
618.207	171.471
618.259	170.74
618.311	173.872
618.363	182.848
618.415	174.027
618.466	187.364
618.518	182.599
618.57	171.229
618.622	167.909
618.674	177.524
618.725	176.716
618.777	175.555
618.829	184.402
618.881	187.445
618.933	176.349
618.984	175.471
619.036	180.002
619.088	187.942
619.14	179.604
619.192	175.926
619.244	181.87
619.295	192.929
619.347	185.892
619.399	180.626
619.451	190.299
619.503	179.457
619.554	187.763
619.606	178.444
619.658	179.399
619.71	193.663
619.762	190.001
619.813	178.311
619.865	182.269
619.917	187.506
619.969	195.302
620.021	182.355
620.072	187.766
620.124	184.047
620.176	185.208
620.228	182.098
620.279	183.029
620.331	192.19
620.383	181.369
620.435	182.683
620.487	182.078
620.538	185.421
620.59	182.684
620.642	186.105
620.694	186.237
620.746	184.819
620.797	179.553
620.849	172.515
620.901	177.98
620.953	174.361
621.005	185.552
621.056	188.121
621.108	191.332
621.16	190.907
621.212	186.261
621.263	189.17
621.315	189.913
621.367	190.217
621.419	194.525
621.471	179.988
621.522	187.352
621.574	187.158
621.626	187.662
621.678	188.12
621.729	186.59
621.781	191.707
621.833	182.077
621.885	186.469
621.937	185.357
621.988	190.512
622.04	180.415
622.092	182.174
622.144	186.095
622.195	188.453
622.247	190.046
622.299	190.205
622.351	185.515
622.403	188.525
622.454	193.039
622.506	186.909
622.558	188.003
622.61	183.266
622.661	185.524
622.713	182.56
622.765	188.289
622.817	188.699
622.869	189.135
622.92	188.557
622.972	183.714
623.024	188.027
623.076	183.845
623.127	188.839
623.179	191.087
623.231	188.313
623.283	184.395
623.334	188.889
623.386	188.71
623.438	185.03
623.49	178.404
623.541	189.183
623.593	195.714
623.645	192.028
623.697	187.271
623.748	189.506
623.8	192.824
623.852	189.352
623.904	186.856
623.956	190.037
624.007	190.924
624.059	185.806
624.111	179.929
624.162	191.398
624.214	195.94
624.266	184.909
624.318	190.084
624.37	198.101
624.421	195.442
624.473	187.097
624.525	179.009
624.576	187.362
624.628	191.167
624.68	194.957
624.732	192.414
624.784	184.835
624.835	194.874
624.887	197.466
624.939	189.368
624.99	195.839
625.042	195.306
625.094	187.648
625.146	181.76
625.197	185.39
625.249	197.784
625.301	199.246
625.353	194.219
625.404	190.659
625.456	196.106
625.508	198.339
625.56	196.375
625.611	197.497
625.663	192.791
625.715	201.326
625.767	199.547
625.818	201.188
625.87	202.849
625.922	197.152
625.974	191.888
626.025	197.83
626.077	197.252
626.129	192.514
626.18	188.852
626.197	188.507
626.249	191.044
626.3	199.53
626.352	194.438
626.404	193.817
626.456	193.868
626.508	189.653
626.56	195.999
626.611	193.993
626.663	196.358
626.715	199.395
626.767	199.671
626.819	190.721
626.87	196.842
626.922	193.666
626.974	195.358
627.026	199.6
627.078	191.621
627.13	194.096
627.181	195.788
627.233	206.391
627.285	198.751
627.337	200.031
627.389	188.802
627.44	193.046
627.492	203.691
627.544	188.484
627.596	191.921
627.648	205.879
627.7	195.032
627.751	199.495
627.803	205.668
627.855	200.013
627.907	197.645
627.959	201.03
628.01	203.793
628.062	194.063
628.114	197.174
628.166	200.328
628.218	199.003
628.27	201.291
628.321	200.141
628.373	195.607
628.425	193.469
628.477	198.674
628.529	193.742
628.58	214.7
628.632	211.041
628.684	199.378
628.736	199.9
628.788	191.356
628.839	197.984
628.891	208.496
628.943	200.031
628.995	202.047
629.047	203.294
629.098	201.431
629.15	205.833
629.202	211.325
629.254	201.102
629.306	200.494
629.357	207.466
629.409	204.396
629.461	199.94
629.513	198.519
629.565	194.955
629.616	210.589
629.668	203.115
629.72	203.205
629.772	209.322
629.824	210.514
629.875	201.899
629.927	208.478
629.979	208.143
630.031	210.761
630.083	208.059
630.134	208.749
630.186	203.518
630.238	202.148
630.29	208.063
630.342	206.892
630.393	207.073
630.445	209.961
630.497	209.162
630.549	208.764
630.6	203.46
630.652	204.444
630.704	200.416
630.756	202.521
630.808	206.928
630.859	209.729
630.911	204.644
630.963	197.749
631.015	206.212
631.067	207.04
631.118	206.821
631.17	207.687
631.222	205.363
631.274	208.263
631.325	209.931
631.377	214.351
631.429	215.802
631.481	210.505
631.533	214.835
631.584	219.245
631.636	215.937
631.688	222.792
631.74	219.607
631.791	211.779
631.843	210.427
631.895	216.436
631.947	215.364
631.999	214.062
632.05	206.981
632.102	207.977
632.154	210.999
632.206	218.45
632.257	210.203
632.309	218.888
632.361	222.494
632.413	224.336
632.464	223.899
632.516	220.402
632.568	214.301
632.62	210.972
632.672	221.058
632.723	220.661
632.775	217.285
632.827	217.157
632.879	218.419
632.93	218.526
632.982	204.196
633.034	215.638
633.086	223.249
633.137	222.698
633.189	221.711
633.241	211.49
633.293	214.987
633.344	228.538
633.396	222.856
633.448	221.095
633.5	221.959
633.551	223.629
633.603	225.862
633.655	225.572
633.707	225.871
633.758	218.554
633.81	228.161
633.862	230.222
633.914	224.373
633.965	218.429
634.017	227.182
634.069	227.324
634.121	222.708
634.172	226.4
634.224	225.937
634.276	234.968
634.328	231.853
634.379	225.691
634.431	234.168
634.483	231.603
634.535	230.087
634.586	238.764
634.638	239.671
634.69	234.557
634.742	228.509
634.793	223.87
634.845	234.316
634.897	231.026
634.949	229.866
635	238.395
635.052	237.952
635.104	243.348
635.156	244.162
635.207	243.433
635.259	245.074
635.311	249.498
635.363	240.584
635.414	242.275
635.466	237.142
635.518	242.405
635.57	241.455
635.621	234.219
635.673	247.486
635.725	247.964
635.776	245.374
635.828	249.946
635.88	240.997
635.932	241.847
635.983	256.546
636.035	253.77
636.087	250.449
636.139	253.064
636.19	256.86
636.242	251.914
636.294	261.012
636.345	248.375
636.397	266.725
636.449	262.783
636.501	268.547
636.552	270.603
636.604	265.506
636.656	267.392
636.708	263.992
636.759	269.11
636.811	279.355
636.863	279.277
636.914	273.277
636.966	277.664
637.018	290.351
637.07	283.605
637.121	306.367
637.173	297.796
637.225	298.318
637.276	301.143
637.328	300.155
637.38	309.247
637.432	307.058
637.483	305.345
637.535	301.384
637.587	325.136
637.638	323.403
637.69	310.869
637.742	308.422
637.794	318.031
637.845	323.059
637.897	320.712
637.949	322.875
638	328.78
638.052	330.32
638.104	319.657
638.156	321.329
638.207	325.482
638.259	325.182
638.311	319.129
638.362	314.817
638.414	324.963
638.466	322.055
638.517	316.831
638.569	311.846
638.621	318.405
638.673	323.628
638.724	315.446
638.776	312.506
638.828	299.963
638.879	308.68
638.931	313.303
638.983	301.87
639.034	322.552
639.086	293.227
639.138	295.173
639.19	294.945
639.241	300.951
639.293	295.777
639.345	285.137
639.396	297.979
639.448	297.923
639.5	298.836
639.551	295.325
639.603	293.837
639.655	288.177
639.706	282.89
639.758	283.761
639.81	284.626
639.862	283.001
639.913	282.048
639.965	289.841
640.017	290.161
640.068	286.111
640.12	275.081
640.172	279.429
640.223	285.512
640.275	287.166
640.327	277.347
640.378	274.132
640.43	281.028
640.482	279.193
640.533	277.995
640.585	277.747
640.637	263.119
640.688	281.153
640.74	276.998
640.792	284.759
640.844	264.064
640.895	272.495
640.947	275.346
640.999	278.269
641.05	280.206
641.102	269.334
641.154	278.345
641.205	272.429
641.257	267.821
641.309	267.962
641.36	274.974
641.412	268.168
641.464	271.917
641.515	280.414
641.567	272.379
641.619	275.381
641.67	260.23
641.722	274.46
641.774	264.558
641.825	267.943
641.877	269.023
641.929	278.195
641.98	276.262
642.032	268.079
642.084	268.819
642.135	269.476
642.187	273.534
642.239	269.21
642.29	263.126
642.342	271.604
642.394	267.655
642.445	262.829
642.497	287.815
642.549	281.582
642.6	266.301
642.652	267.775
642.704	274.014
642.755	270.008
642.807	260.055
642.859	266.84
642.91	277.524
642.962	263.992
643.013	269.374
643.065	271.65
643.117	272.188
643.168	269.006
643.22	267.76
643.272	266.915
643.323	272.301
643.375	265.763
643.427	272.69
643.478	262.266
643.53	269.163
643.582	280.001
643.633	263.536
643.685	272.36
643.737	273.706
643.788	269.897
643.84	267.327
643.891	267.931
643.898	267.338
643.949	265.875
644.001	276.832
644.053	266.725
644.105	280.186
644.156	275.575
644.208	277.631
644.26	267.909
644.312	274.611
644.363	278.681
644.415	282.246
644.467	266.094
644.519	273.997
644.57	283.305
644.622	273.643
644.674	275.822
644.726	285.395
644.777	283.466
644.829	282.518
644.881	282.012
644.932	287.374
644.984	279.149
645.036	280.756
645.088	275.128
645.139	274.766
645.191	277.556
645.243	286.216
645.295	281.808
645.346	279.075
645.398	278.638
645.45	282.652
645.502	272.574
645.553	283.315
645.605	281.318
645.657	292.606
645.708	284.256
645.76	283.68
645.812	281.465
645.864	281.182
645.915	277.615
645.967	289.731
646.019	282.219
646.071	287.256
646.122	281.946
646.174	288.822
646.226	292.406
646.277	299.7
646.329	281.978
646.381	284.504
646.433	286.518
646.484	288.922
646.536	290.795
646.588	274.517
646.639	280.674
646.691	297.582
646.743	288.857
646.795	300.027
646.846	279.17
646.898	281.517
646.95	284.032
647.001	276.989
647.053	292.775
647.105	284.657
647.157	283.342
647.208	283.793
647.26	290.508
647.312	286.127
647.363	291.97
647.415	296.203
647.467	289.077
647.519	277.348
647.57	288.513
647.622	284.256
647.674	292.58
647.725	281.744
647.777	278.409
647.829	284.252
647.881	289.644
647.932	286.916
647.984	308.704
648.036	289.612
648.087	298.817
648.139	288.219
648.191	290.742
648.242	293.335
648.294	292.367
648.346	285.062
648.398	297.391
648.449	292.656
648.501	293.969
648.553	298.76
648.604	293.925
648.656	296.144
648.708	291.011
648.759	294.249
648.811	294.813
648.863	297.57
648.914	297.972
648.966	300.649
649.018	304.779
649.07	304.618
649.121	292.645
649.173	296.059
649.225	299.644
649.276	306.856
649.328	307.701
649.38	297.743
649.431	307.694
649.483	298.701
649.535	293.137
649.586	299.535
649.638	304.906
649.69	308.131
649.742	302.745
649.793	298.266
649.845	305.045
649.897	302.743
649.948	290.697
650	305.173
650.052	302.947
650.103	297.163
650.155	298.236
650.207	312.805
650.258	307.912
650.31	312.759
650.362	303.053
650.413	302.777
650.465	306.751
650.517	308.303
650.568	302.121
650.62	308.697
650.672	306.78
650.723	299.28
650.775	303.786
650.827	310.364
650.878	309.871
650.93	312.395
650.982	314.042
651.034	314.398
651.085	310.228
651.137	310.692
651.189	315.327
651.24	305.706
651.292	310.458
651.344	307.148
651.395	306.542
651.447	318.957
651.499	320.614
651.55	304.225
651.602	308.094
651.654	313.887
651.705	309.126
651.757	310.835
651.809	316.915
651.86	322.205
651.912	313.278
651.964	307.429
652.015	303.525
652.067	311.096
652.118	323.484
652.17	312.856
652.222	317.624
652.273	308.962
652.325	323.465
652.377	321.406
652.428	323.075
652.48	322.286
652.532	316.416
652.583	327.736
652.635	318.756
652.687	316.301
652.738	320.172
652.79	322.421
652.842	320.341
652.893	328.052
652.945	335.364
652.997	326.065
653.048	315.223
653.1	326.924
653.152	314.106
653.203	321.508
653.255	311.686
653.307	320.955
653.358	321.439
653.41	327.937
653.461	325.265
653.513	333.276
653.565	322.63
653.616	337.681
653.668	330.656
653.72	331.788
653.771	329.854
653.823	329.163
653.875	327.297
653.926	328.473
653.978	334.158
654.029	333.179
654.081	340.471
654.133	321.532
654.184	336.254
654.236	340.906
654.288	320.419
654.339	337.295
654.391	320.74
654.443	340.204
654.494	335.767
654.546	337.673
654.597	348.607
654.649	343.065
654.701	342.516
654.752	346.889
654.804	342.369
654.856	339.449
654.907	336.134
654.959	344.278
655.01	344.92
655.062	339.251
655.114	338.558
655.165	340.492
655.217	354.097
655.269	340.249
655.32	338.451
655.372	338.957
655.424	348.769
655.475	345.059
655.527	351.66
655.578	345.628
655.63	348.252
655.682	342.497
655.733	352.693
655.785	349.876
655.836	361.007
655.888	348.582
655.94	342.936
655.991	344.299
656.043	356.33
656.095	348.195
656.146	355.137
656.198	361.125
656.249	358.947
656.301	357.683
656.353	363.646
656.404	364.521
656.456	364.912
656.508	361.463
656.559	360.054
656.611	355.66
656.662	358.248
656.714	351.373
656.766	356.037
656.817	371.662
656.869	374.44
656.92	362.344
656.972	364.034
657.024	371.881
657.075	372.238
657.127	372.34
657.178	372.503
657.23	370.108
657.282	364.941
657.333	366.039
657.385	374.212
657.436	378.347
657.488	369.761
657.54	372.311
657.591	364.64
657.643	365.029
657.694	369.766
657.746	371.862
657.798	378.372
657.849	384.267
657.901	373.338
657.952	365.719
658.004	365.088
658.056	380.365
658.107	379.583
658.159	373.542
658.21	378.214
658.262	375.194
658.314	379.958
658.365	385.913
658.417	380.441
658.468	378.641
658.52	379.221
658.571	384.953
658.623	385.616
658.675	376.25
658.726	371.83
658.778	375.495
658.829	383.42
658.881	381.678
658.933	382.197
658.984	384.916
659.036	387.273
659.087	376.711
659.139	390.605
659.19	383.184
659.242	397.819
659.294	394.687
659.345	377.473
659.397	373.462
659.448	380.683
659.5	380.847
659.552	377.444
659.603	388.209
659.655	384.94
659.706	390.624
659.758	388.671
659.809	378.901
659.861	380.261
659.913	382.301
659.964	377.289
660.016	382.378
660.067	378.877
660.119	388.005
660.17	376.516
660.222	393.753
660.274	374.732
660.325	388.653
660.377	391.043
660.428	385.162
660.48	383.247
660.531	386.984
660.583	383.166
660.635	385.276
660.686	382.92
660.738	373.64
660.789	374.492
660.841	382.886
660.892	376.891
660.944	388.159
660.995	385.507
661.047	385.903
661.099	386.984
661.15	389.848
661.202	385.32
661.253	380.778
661.305	385.386
661.356	399.753
661.408	393.306
661.46	388.903
661.511	386.826
661.532	384.608
661.583	395.226
661.635	391.802
661.687	387.171
661.738	374.029
661.79	387.566
661.842	393.091
661.893	386.909
661.945	391.34
661.997	382.422
662.048	387.031
662.1	391.078
662.151	387.431
662.203	371.645
662.255	390.534
662.306	382.444
662.358	386.238
662.41	400.816
662.461	389.523
662.513	381.014
662.565	376.99
662.616	390.743
662.668	391.635
662.72	381.845
662.771	387.713
662.823	390.416
662.875	382.867
662.926	392.846
662.978	387.745
663.03	388.461
663.081	384.795
663.133	378.601
663.184	385.956
663.236	388.21
663.288	392.297
663.339	392.765
663.391	391.713
663.443	371.247
663.494	394.851
663.546	391.876
663.598	386.173
663.649	381.952
663.701	377.802
663.752	401.153
663.804	393.154
663.856	389.557
663.907	398.274
663.959	382.261
664.011	395.597
664.062	392.437
664.114	387.461
664.166	380.56
664.217	396.636
664.269	388.404
664.32	382.145
664.372	392.301
664.424	383.054
664.475	390.601
664.527	386.078
664.579	388.075
664.63	396.823
664.682	398.043
664.733	392.238
664.785	390.534
664.837	382.39
664.888	377.796
664.94	384.666
664.992	376.646
665.043	381.529
665.095	381.42
665.146	382.81
665.198	379.644
665.25	382.833
665.301	388.028
665.353	385.66
665.405	385.475
665.456	387.396
665.508	380.166
665.559	381.58
665.611	376.705
665.663	387.679
665.714	368.947
665.766	387.091
665.817	378.694
665.869	385.716
665.921	388.123
665.972	389.472
666.024	377.558
666.076	378.875
666.127	387.024
666.179	386.23
666.23	383.359
666.282	397.329
666.334	392.067
666.385	388.245
666.437	384.35
666.488	377.372
666.54	380.204
666.592	395.892
666.643	384.292
666.695	383.134
666.746	388.094
666.798	384.807
666.85	388.063
666.901	382.706
666.953	389.004
667.004	390.421
667.056	370.722
667.108	380.69
667.159	377.497
667.211	371.291
667.262	370.297
667.314	389.452
667.366	377.77
667.417	379.641
667.469	379.389
667.52	391.169
667.572	391.827
667.624	375.343
667.675	382.517
667.727	369.164
667.778	384.315
667.83	377.193
667.882	371.075
667.933	384.429
667.985	392.747
668.036	377.657
668.088	371.406
668.14	382.774
668.191	384.666
668.243	376.292
668.294	376.026
668.346	386.438
668.397	382.059
668.449	372.578
668.501	384.262
668.552	376.708
668.604	385.762
668.655	393.826
668.707	378.794
668.759	373.584
668.81	386.259
668.862	382.745
668.913	381.202
668.965	379.573
669.016	391.111
669.068	377.529
669.12	399.321
669.171	380.426
669.223	381.81
669.274	375.638
669.326	376.898
669.377	382.424
669.429	377.192
669.481	373.925
669.532	384.447
669.584	387.982
669.635	387.177
669.687	380.366
669.738	389.534
669.79	390.89
669.842	379.336
669.893	382.112
669.945	370.177
669.996	382.726
670.048	379.46
670.099	376.977
670.151	379.914
670.203	384.427
670.254	377.702
670.306	387.532
670.357	385.136
670.409	378.31
670.46	382.222
670.512	384.871
670.564	358.539
670.615	384.703
670.667	386.48
670.718	386.658
670.77	384.779
670.821	391.031
670.873	385.223
670.924	391.291
670.976	380.803
671.028	383.516
671.079	390.513
671.131	389.54
671.182	379.64
671.234	371.983
671.285	384.403
671.337	386.155
671.388	382.634
671.44	399.345
671.492	382.768
671.543	390.434
671.595	382.495
671.646	367.941
671.698	391.659
671.749	372.375
671.801	392.608
671.852	388.079
671.904	392.547
671.956	389.482
672.007	373.339
672.059	375.424
672.11	382.095
672.162	384.877
672.213	395.816
672.265	385.492
672.316	384.232
672.368	385.568
672.419	390.164
672.471	380.091
672.522	385.828
672.574	398.919
672.626	387.246
672.677	386.441
672.729	375.608
672.78	382.224
672.832	384.912
672.883	394.379
672.935	391.022
672.986	386.163
673.038	386.98
673.089	394.69
673.141	386.76
673.192	400.115
673.244	386.834
673.296	387.706
673.347	378.804
673.399	393.928
673.45	392.728
673.502	398.848
673.553	392.438
673.605	387.172
673.656	394.191
673.708	390.482
673.759	385.868
673.811	392.347
673.862	388.727
673.914	392.106
673.965	377.585
674.017	394.168
674.068	393.824
674.12	393.974
674.171	394.768
674.223	398.841
674.275	406.258
674.326	394.116
674.378	392.565
674.429	402.499
674.481	404.781
674.532	407.121
674.584	392.728
674.635	396.887
674.687	397.981
674.738	389.998
674.79	391.291
674.841	390.309
674.893	388.76
674.944	399.395
674.996	395.917
675.047	400.129
675.099	405.309
675.15	402.046
675.202	395.308
675.253	399.047
675.305	405.514
675.356	400.905
675.408	405.378
675.459	406.041
675.511	398.799
675.562	406.191
675.614	402.184
675.665	399.868
675.717	403.979
675.768	406.901
675.82	394.994
675.871	407.868
675.923	401.881
675.974	408.025
676.026	407.8
676.077	399.77
676.129	408.316
676.18	402.223
676.232	401.953
676.283	397.857
676.335	387.834
676.386	397.987
676.438	418.231
676.489	402.878
676.541	403.105
676.592	405.067
676.644	413.57
676.695	412.969
676.747	397.05
676.798	409.868
676.85	407.337
676.901	410.287
676.953	404.11
677.004	396.928
677.056	398.989
677.107	396.773
677.159	391.531
677.21	402.558
677.262	404.452
677.313	419.896
677.365	408.012
677.416	412.943
677.468	415.193
677.519	407.511
677.571	407.148
677.622	407.292
677.674	414.94
677.725	405.253
677.777	409.125
677.828	399.388
677.88	396.983
677.931	406.17
677.982	416.955
678.034	405.208
678.085	409.409
678.137	393.366
678.188	414.451
678.24	415.989
678.291	416.461
678.343	414.463
678.394	404.729
678.446	397.078
678.497	417.396
678.549	408.931
678.6	403.887
678.652	399.31
678.703	403.715
678.755	407.247
678.806	415.793
678.857	407.652
678.909	410.412
678.96	399.846
679.012	394.967
679.063	399.413
679.083	402.099
679.135	399.098
679.186	404.022
679.238	398.376
679.289	409.573
679.341	410.271
679.392	413.084
679.444	408.585
679.496	416.977
679.547	409.233
679.599	399.734
679.65	405.285
679.702	404.039
679.753	419.391
679.805	402.969
679.857	408.033
679.908	400.441
679.96	413.316
680.011	414.308
680.063	415.3
680.114	400.544
680.166	406.867
680.217	413.731
680.269	392.724
680.321	411.525
680.372	408.822
680.424	408.68
680.475	399.494
680.527	419.591
680.578	408.071
680.63	414.42
680.682	407.589
680.733	416.219
680.785	407.976
680.836	416.484
680.888	413.701
680.939	408.753
680.991	412.1
681.042	418.249
681.094	408.84
681.146	410.373
681.197	426.802
681.249	421.616
681.3	413.116
681.352	409.413
681.403	420.049
681.455	418.891
681.506	424.999
681.558	417.442
681.609	408.7
681.661	413.195
681.712	413.319
681.764	405.301
681.816	403.084
681.867	403.652
681.919	422.864
681.97	420.944
682.022	419.553
682.073	419.319
682.125	422.835
682.176	425.224
682.228	416.617
682.279	426.588
682.331	409.429
682.383	411.476
682.434	431.129
682.486	420.621
682.537	410.775
682.589	423.49
682.64	417.09
682.692	409.111
682.743	417.238
682.795	417.14
682.846	426.758
682.898	426.497
682.949	412.917
683.001	423.52
683.052	414.363
683.104	422.814
683.156	415.731
683.207	414.82
683.259	420.517
683.31	422.163
683.362	425.344
683.413	418.177
683.465	418.132
683.516	411.243
683.568	428.119
683.619	416.075
683.671	408.788
683.722	412.935
683.774	417.627
683.825	413.947
683.877	414.054
683.928	417.207
683.98	420.413
684.031	426.54
684.083	414.517
684.134	433.561
684.186	409.275
684.237	423.688
684.289	432.201
684.341	421.124
684.392	418.039
684.444	412.513
684.495	416.631
684.547	411.082
684.598	416.105
684.65	415.5
684.701	417.616
684.753	413.444
684.804	420.627
684.856	416.612
684.907	422.651
684.959	420.645
685.01	415.238
685.062	415.833
685.113	412.34
685.165	410.596
685.216	415.147
685.268	419.225
685.319	411.517
685.371	419.195
685.422	411.293
685.474	421.721
685.525	410.352
685.577	415.958
685.628	419.329
685.68	403.783
685.731	403.037
685.783	410.869
685.834	405.086
685.886	405.059
685.937	411.148
685.989	402.327
686.04	399.59
686.092	401.517
686.143	422.174
686.195	404.47
686.246	407.519
686.298	410.038
686.349	415.659
686.401	411.474
686.452	396.144
686.504	407.86
686.555	421.541
686.607	417.237
686.658	414.025
686.71	418.277
686.761	409.662
686.813	420.091
686.864	405.035
686.916	409.312
686.967	408.499
687.018	422.565
687.07	424.474
687.121	416.586
687.173	401.493
687.224	418.986
687.276	415.586
687.327	413.481
687.379	407.805
687.43	404.987
687.482	419.994
687.533	400.235
687.585	411.867
687.636	410.743
687.688	420.697
687.739	421.352
687.791	412.648
687.842	412.419
687.894	414.91
687.945	412.138
687.997	405.781
688.048	414.415
688.1	388.6
688.151	405.153
688.203	405.47
688.254	417.868
688.305	412.558
688.357	420.547
688.408	405.205
688.46	393.781
688.511	407.448
688.563	402.415
688.614	399.99
688.666	408.244
688.717	419.104
688.769	410.712
688.82	408.974
688.872	411.36
688.923	395.279
688.974	400.765
689.026	408.226
689.077	413.264
689.129	413.619
689.18	399.832
689.232	403.766
689.283	408.219
689.335	408.013
689.386	407.501
689.438	401.551
689.489	409.743
689.541	396.538
689.592	396.135
689.643	396.529
689.695	397.646
689.746	403.98
689.798	410.679
689.849	408.702
689.901	404.661
689.952	413.746
690.004	397.803
690.055	410.072
690.107	401.958
690.158	400.993
690.209	410.472
690.261	408.941
690.312	406.681
690.364	409.529
690.415	403.037
690.467	414.233
690.518	400.378
690.57	405.472
690.621	407.732
690.672	415.784
690.724	400.7
690.775	408.833
690.827	409.14
690.878	396.685
690.93	395.979
690.981	398.394
691.033	406.251
691.084	398.469
691.135	398.965
691.187	409.784
691.238	409.467
691.29	411.117
691.341	404.49
691.393	398.86
691.444	411.282
691.495	406.852
691.547	393.06
691.598	399.479
691.65	402.452
691.701	397.987
691.753	406.703
691.804	402.235
691.856	405.705
691.907	404.322
691.958	399.141
692.01	394.959
692.061	402.941
692.113	393.837
692.164	411.311
692.216	392.919
692.267	398.55
692.318	403.872
692.37	398.432
692.421	392.051
692.473	400.756
692.524	398.645
692.576	390.322
692.627	392.545
692.678	388.194
692.73	392.642
692.781	390.342
692.833	385.392
692.884	397.7
692.935	413.988
692.987	408.041
693.038	393.815
693.09	397.61
693.141	399.638
693.193	394.407
693.244	391.896
693.295	392.852
693.347	381.502
693.398	394.184
693.45	398.413
693.501	387.11
693.552	395.616
693.604	392.616
693.655	391.439
693.707	399.602
693.758	391.259
693.809	389.465
693.861	387.207
693.912	394.593
693.964	391.197
694.015	385.693
694.066	382.427
694.118	389.056
694.169	381.649
694.221	383.873
694.272	391.311
694.323	398.026
694.375	386.853
694.426	382.094
694.478	389.192
694.529	394.214
694.581	391.084
694.632	384.122
694.683	397.834
694.735	399.051
694.786	387.291
694.837	397.994
694.889	388.244
694.94	388.084
694.992	387.355
695.043	389.166
695.094	380.921
695.146	393.167
695.197	397.311
695.249	384.305
695.3	384.089
695.351	385.305
695.403	385.712
695.454	385.727
695.506	387.127
695.557	382.985
695.608	389.81
695.66	392.268
695.711	399.587
695.763	390.739
695.814	384.863
695.865	391.764
695.917	396.446
695.968	393.136
696.019	384.533
696.071	381.417
696.122	388.289
696.174	387.302
696.225	381.707
696.276	382.953
696.328	387.076
696.379	383.612
696.43	393.165
696.482	387.248
696.533	386.963
696.585	382.319
696.636	379.904
696.687	378.88
696.707	379.666
696.759	382.772
696.81	377.337
696.862	369.376
696.913	388.463
696.965	381.572
697.016	368.617
697.068	370.647
697.119	371.1
697.171	382.578
697.222	379.18
697.274	388.164
697.325	383.105
697.377	375.324
697.428	379.052
697.479	390.605
697.531	384.047
697.582	383.637
697.634	384.426
697.685	381.102
697.737	386.121
697.788	368.174
697.84	369.024
697.891	382.017
697.943	384.427
697.994	385.171
698.046	377.696
698.097	378.696
698.149	379.015
698.2	378.646
698.252	377.514
698.303	371.677
698.354	370.989
698.406	377.533
698.457	376.756
698.509	376.824
698.56	376.293
698.612	381.885
698.663	384.025
698.715	372.094
698.766	366.669
698.818	381.917
698.869	374.231
698.921	363.924
698.972	381.752
699.023	376.121
699.075	378.076
699.126	368.634
699.178	383.56
699.229	366.556
699.281	357.887
699.332	375.772
699.384	361.625
699.435	364.878
699.487	366.405
699.538	369.56
699.589	359.378
699.641	369.954
699.692	362.567
699.744	364.317
699.795	370.359
699.847	368.02
699.898	367.023
699.95	369.822
700.001	372.773
700.052	367.115
700.104	367.067
700.155	363.453
700.207	371.848
700.258	370.803
700.31	370.33
700.361	373.057
700.413	368.75
700.464	367.41
700.515	366.715
700.567	373.357
700.618	379.308
700.67	367.376
700.721	376.476
700.773	371.365
700.824	373.789
700.875	374.312
700.927	359.505
700.978	362.114
701.03	367.877
701.081	362.342
701.133	368.52
701.184	363.312
701.235	368.981
701.287	363.476
701.338	373.324
701.39	377.705
701.441	374.94
701.493	375.106
701.544	373.227
701.596	364.103
701.647	364.756
701.698	361.356
701.75	356.862
701.801	359.361
701.853	361.84
701.904	372.599
701.956	366.948
702.007	372.331
702.058	368.741
702.11	368.285
702.161	368.049
702.213	360.944
702.264	358.431
702.315	366.76
702.367	365.803
702.418	368.343
702.47	370.649
702.521	368.98
702.573	372.749
702.624	376.111
702.675	366.716
702.727	369.212
702.778	364.312
702.83	363.73
702.881	378.956
702.932	377.777
702.984	363.512
703.035	368.155
703.087	370.592
703.138	369.669
703.19	370.556
703.241	361.485
703.292	362.968
703.344	364.021
703.395	363.46
703.447	366.748
703.498	362.49
703.549	365.99
703.601	371.491
703.652	364.232
703.704	365.387
703.755	369.082
703.806	367.97
703.858	370.626
703.909	360.79
703.961	360.497
704.012	372.929
704.063	377.48
704.115	366.823
704.166	370.663
704.218	362.128
704.269	358.977
704.32	362.445
704.372	365.615
704.423	354.704
704.475	360.129
704.526	361.683
704.577	359.121
704.629	359.79
704.68	373.624
704.732	357.057
704.783	363.446
704.834	360.787
704.886	361.919
704.937	352.007
704.988	366.721
705.04	358.611
705.091	367.437
705.143	365.794
705.194	355.96
705.245	353.529
705.297	351.695
705.348	365.735
705.4	356.948
705.451	361.199
705.502	365.302
705.554	350.553
705.605	358.84
705.656	365.314
705.708	359.106
705.759	358.349
705.811	358.482
705.862	357.372
705.913	347.168
705.965	349.384
706.016	349.043
706.068	351.211
706.119	349.888
706.17	355.648
706.222	352.48
706.273	356.677
706.324	350.642
706.376	344.263
706.427	347.436
706.479	356.288
706.53	358.483
706.581	353.294
706.633	347.463
706.684	340.415
706.735	345.458
706.787	351.126
706.838	351.086
706.889	344.127
706.941	341.184
706.992	359.862
707.044	355.702
707.095	350.961
707.146	344.4
707.198	352.203
707.249	349.705
707.3	355.332
707.352	347.845
707.403	344.105
707.454	351.288
707.506	353.193
707.557	342.532
707.609	349.161
707.66	347.054
707.711	341.347
707.763	349.668
707.814	346.08
707.865	347.495
707.917	354.411
707.968	343.274
708.019	342.829
708.071	344.658
708.122	346.616
708.173	340.99
708.225	355.955
708.276	340.311
708.328	348.447
708.379	349.588
708.43	345.451
708.482	340.958
708.533	349.331
708.584	351.198
708.636	347.048
708.687	341.072
708.738	344.32
708.79	347.756
708.841	347.934
708.892	335.464
708.944	344.961
708.995	344.422
709.046	340.682
709.098	331.039
709.149	346.796
709.2	343.366
709.252	343.109
709.303	342.845
709.354	348.692
709.406	334.335
709.457	343.215
709.508	344.446
709.56	335.031
709.611	337.383
709.662	345.562
709.714	344.759
709.765	344.679
709.816	341.575
709.868	345.005
709.919	342.284
709.97	345.95
710.022	342.54
710.073	339.971
710.124	329.744
710.176	335.341
710.227	348.238
710.278	334.796
710.33	334.852
710.381	339.076
710.432	342.578
710.484	334.432
710.535	345.027
710.586	344.896
710.638	348.389
710.689	342.109
710.74	342.984
710.792	344.312
710.843	326.886
710.894	337.21
710.946	343.394
710.997	331.486
711.048	334.961
711.1	332.455
711.151	335.868
711.202	339.853
711.254	327.947
711.305	331.088
711.356	339.866
711.407	336.606
711.459	337.724
711.51	334.704
711.561	355.4
711.613	344.209
711.664	343.21
711.715	345.392
711.767	344.424
711.818	345.245
711.869	334.243
711.921	333.226
711.972	333.395
712.023	330.835
712.075	318.488
712.126	327.657
712.177	338.755
712.228	332.414
712.28	334.453
712.331	331.317
712.382	326.102
712.434	335.371
712.485	325.095
712.536	338.035
712.588	336.061
712.639	338.425
712.69	340.132
712.741	319.673
712.793	330.427
712.844	331.889
712.895	332.027
712.947	346.48
712.998	338.229
713.049	327.918
713.101	325.011
713.152	323.648
713.203	324.37
713.254	322.35
713.306	329.96
713.357	319.379
713.408	310.098
713.46	324.386
713.511	328.81
713.562	326.124
713.613	327.188
713.665	321.546
713.716	321.802
713.767	320.495
713.819	321.537
713.87	328.619
713.921	318.639
713.972	329.305
714.024	329.936
714.075	330.919
714.126	319.857
714.178	321.71
714.18	322.061
714.231	318.475
714.283	316.793
714.334	317.585
714.385	313.126
714.437	321.881
714.488	319.484
714.539	319.186
714.591	325.025
714.642	330.766
714.694	322.119
714.745	316.735
714.796	308.489
714.848	319.673
714.899	326.147
714.951	321.814
715.002	320.029
715.053	313.561
715.105	311.616
715.156	313.874
715.207	310.768
715.259	316.413
715.31	319.341
715.362	311.827
715.413	314.986
715.464	307.808
715.516	307.782
715.567	311.964
715.618	320.165
715.67	311.048
715.721	316.43
715.773	318.311
715.824	314.946
715.875	316.171
715.927	312.685
715.978	308.901
716.029	309.17
716.081	301.379
716.132	308.393
716.184	299.647
716.235	321.524
716.286	313.75
716.338	309.349
716.389	309.947
716.44	315.68
716.492	307.809
716.543	310.134
716.594	304.96
716.646	305.445
716.697	296.709
716.749	314.611
716.8	309.775
716.851	314.064
716.903	307.362
716.954	313.956
717.005	319.583
717.057	310.478
717.108	309.019
717.159	306.369
717.211	310.701
717.262	310.74
717.314	298.955
717.365	299.724
717.416	307.335
717.468	307.895
717.519	306.914
717.57	305.287
717.622	306.017
717.673	306.476
717.724	305.851
717.776	308.653
717.827	302.688
717.878	305.929
717.93	301.064
717.981	302.328
718.032	311.103
718.084	312.259
718.135	303.766
718.187	302.494
718.238	304.562
718.289	293.425
718.341	299.242
718.392	301.298
718.443	300.404
718.495	307.182
718.546	298.556
718.597	308.597
718.649	304.759
718.7	305.661
718.751	300.036
718.803	305.651
718.854	303.61
718.905	304.518
718.957	304.297
719.008	297.738
719.059	297.168
719.111	296.275
719.162	300.209
719.213	296.502
719.265	303.994
719.316	315.167
719.367	304.907
719.419	304.14
719.47	304.175
719.521	303.872
719.573	300.585
719.624	306.772
719.675	296.026
719.727	292.062
719.778	291.104
719.829	310.849
719.881	300.116
719.932	292.309
719.983	299.799
720.035	306.086
720.086	300.534
720.137	294.582
720.189	292.71
720.24	308.334
720.291	305.808
720.343	292.294
720.394	299.092
720.445	299.809
720.496	292.501
720.548	287.638
720.599	290.19
720.65	295.539
720.702	293.287
720.753	297.99
720.804	297.751
720.856	303.348
720.907	299.283
720.958	293.208
721.01	289.542
721.061	295.28
721.112	301.723
721.164	292.717
721.215	280.345
721.266	295.712
721.318	297.871
721.369	290.476
721.42	296.966
721.471	295.1
721.523	297.6
721.574	286.93
721.625	293.38
721.677	297.626
721.728	298.169
721.779	295.058
721.831	287.423
721.882	290.304
721.933	287.11
721.984	285.067
722.036	293.403
722.087	294.61
722.138	300.496
722.19	294.759
722.241	287.342
722.292	279.741
722.344	286.926
722.395	288.977
722.446	281.919
722.497	286.364
722.549	289.96
722.6	291.102
722.651	283.118
722.703	284.282
722.754	299.505
722.805	288.248
722.857	287.764
722.908	292.771
722.959	291.908
723.01	292.421
723.062	290.785
723.113	293.265
723.164	284.029
723.216	284.644
723.267	279.897
723.318	294.979
723.369	293.052
723.421	286.899
723.472	290.849
723.523	290.947
723.575	289.058
723.626	287.421
723.677	284.927
723.728	283.271
723.78	287.517
723.831	283.862
723.882	283.493
723.934	284.723
723.985	293.297
724.036	284.895
724.087	286.961
724.139	287.114
724.19	283.608
724.241	285.596
724.292	291.46
724.344	291.826
724.395	278.328
724.446	280.065
724.498	288.231
724.549	278.235
724.6	283.227
724.651	287.413
724.703	286.737
724.754	282.836
724.805	282.232
724.856	281.723
724.908	285.699
724.959	286.942
725.01	279.513
725.062	288.122
725.113	281.195
725.164	282.801
725.215	284.446
725.267	285.336
725.318	288.987
725.369	285.82
725.42	290.077
725.472	281.566
725.523	279.828
725.574	278.656
725.625	280.583
725.677	277.268
725.728	289.432
725.779	293.862
725.83	277.216
725.882	274.104
725.933	285.4
725.984	284.634
726.036	281.002
726.087	284.61
726.138	288.805
726.189	284.742
726.241	287.969
726.292	278.127
726.343	269.535
726.394	283.457
726.445	276.484
726.497	285.038
726.548	298.07
726.599	291.403
726.651	280.894
726.702	278.316
726.753	279.781
726.804	284.779
726.855	282.472
726.907	281.728
726.958	274.161
727.009	282.144
727.06	286.703
727.112	296.346
727.163	296.022
727.214	289.1
727.265	277.702
727.317	284.061
727.368	279.963
727.419	280.87
727.47	281.199
727.522	287.194
727.573	273.157
727.624	274.28
727.675	282.683
727.727	271.165
727.778	284.031
727.829	282.401
727.88	276.971
727.932	280.071
727.983	281.44
728.034	276.336
728.085	273.886
728.136	269.207
728.188	277.106
728.239	273.789
728.29	275.832
728.341	281.629
728.393	279.198
728.444	272.209
728.495	266.858
728.546	276.66
728.597	278.885
728.649	279.887
728.7	262.204
728.751	275.604
728.802	270.954
728.854	283.657
728.905	282.609
728.956	280
729.007	264.485
729.058	267.274
729.11	259.938
729.161	264.428
729.212	279.198
729.263	271.917
729.315	278.615
729.366	274.185
729.417	272.202
729.468	261.563
729.519	260.921
729.571	282.194
729.622	274.221
729.673	272.295
729.724	258.441
729.775	274.379
729.827	277.809
729.878	268.128
729.929	269.092
729.98	276.362
730.031	268.748
730.083	271.648
730.134	260.999
730.185	281.497
730.236	279.622
730.288	268.281
730.339	270.443
730.39	281.68
730.441	276.259
730.492	267.064
730.544	274.778
730.595	276.742
730.646	262.588
730.697	271.025
730.748	278.781
730.8	278.867
730.851	275.308
730.902	278.097
730.953	271.087
731.004	252.337
731.056	272.804
731.107	255.043
731.158	275.51
731.209	278.756
731.26	282.101
731.312	264.935
731.363	272.995
731.414	258.343
731.465	277.839
731.516	264.043
731.567	275.727
731.619	264.927
731.622	264.088
731.673	271.896
731.725	263.117
731.776	266.119
731.827	276.505
731.878	275.455
731.93	267.37
731.981	271.184
732.032	283.777
732.084	273.804
732.135	271.848
732.186	283.591
732.237	271.793
732.289	275.653
732.34	280.496
732.391	286.77
732.443	268.974
732.494	274.754
732.545	270.112
732.597	279.06
732.648	275.355
732.699	280.213
732.75	264.277
732.802	284.614
732.853	283.255
732.904	276.357
732.956	274.983
733.007	283.072
733.058	275.344
733.109	279.385
733.161	280.117
733.212	282.237
733.263	283.305
733.315	282.342
733.366	284.006
733.417	290.346
733.468	283.414
733.52	292.407
733.571	282.887
733.622	285.339
733.673	278.722
733.725	278.122
733.776	272.223
733.827	283.195
733.879	293.663
733.93	288.414
733.981	283.713
734.032	289.477
734.084	292.952
734.135	288.164
734.186	289.339
734.237	300.397
734.289	299.11
734.34	306.286
734.391	292.51
734.443	302.406
734.494	300.62
734.545	309.205
734.596	305.276
734.648	310.352
734.699	300.957
734.75	313.162
734.801	301.365
734.853	313.517
734.904	310.164
734.955	313.1
735.006	319.272
735.058	312.491
735.109	309.407
735.16	313.936
735.211	325.653
735.263	309.681
735.314	314.799
735.365	314.876
735.417	339.201
735.468	324.506
735.519	328.623
735.57	328.788
735.622	329.904
735.673	327.336
735.724	335.668
735.775	345.397
735.827	353.078
735.878	348.52
735.929	338.754
735.98	354.227
736.032	357.798
736.083	350.054
736.134	354.24
736.185	364.991
736.237	368.344
736.288	364.783
736.339	366.994
736.39	361.808
736.442	370.216
736.493	381.471
736.544	388.16
736.595	389.811
736.646	387.507
736.698	392.582
736.749	390.809
736.8	401.986
736.851	409.872
736.903	412.58
736.954	406.128
737.005	407.479
737.056	407.631
737.108	415.357
737.159	431.111
737.21	425.482
737.261	437.752
737.313	439.9
737.364	441.975
737.415	452.009
737.466	444.279
737.518	448.286
737.569	463.457
737.62	463.642
737.671	459.391
737.722	469.288
737.774	463.056
737.825	472.896
737.876	474.046
737.927	472.707
737.979	485.487
738.03	480.348
738.081	476.028
738.132	480.76
738.183	475.843
738.235	475.947
738.286	475.374
738.337	476.651
738.388	473.419
738.44	487.558
738.491	489.677
738.542	469.692
738.593	481.899
738.644	477.34
738.696	471.454
738.747	467.309
738.798	473.801
738.849	472.491
738.901	464.601
738.952	462.117
739.003	454.299
739.054	457.513
739.105	451.727
739.157	450.901
739.208	460.138
739.259	448.212
739.31	440.124
739.361	438.949
739.413	433.088
739.464	429.532
739.515	428.182
739.566	432.023
739.617	428.281
739.669	430.572
739.72	422.101
739.771	417.776
739.822	405.114
739.874	401.953
739.925	393.259
739.976	395.004
740.027	400.79
740.078	404.252
740.13	383.892
740.181	378.054
740.232	366.556
740.283	378.045
740.334	383.805
740.385	380.976
740.437	364.548
740.488	365.538
740.539	354.361
740.59	359.386
740.641	357.361
740.693	353.11
740.744	343.725
740.795	342.131
740.846	347.565
740.897	346.31
740.949	341.105
741	342.424
741.051	339.402
741.102	341.759
741.153	332.221
741.205	337.117
741.256	325.04
741.307	316.019
741.358	329.369
741.409	323.768
741.461	315.744
741.512	310.65
741.563	302.771
741.614	315.111
741.665	319.452
741.716	307.931
741.768	307.583
741.819	299.779
741.87	297.515
741.921	298.845
741.972	303.106
742.024	300.649
742.075	304.744
742.126	300.618
742.177	300.63
742.228	297.748
742.279	293.248
742.331	288.573
742.382	296.416
742.433	288.709
742.484	288.466
742.535	289.484
742.586	288.796
742.638	285.332
742.689	282.653
742.74	283.765
742.791	289.379
742.842	285.762
742.893	280.637
742.945	283.182
742.996	279.821
743.047	271.423
743.098	282.058
743.149	273.486
743.201	266.467
743.252	272.117
743.303	271.21
743.354	266.068
743.405	267.347
743.456	273.625
743.507	272.937
743.559	268.919
743.61	265.413
743.661	268.333
743.712	258.361
743.763	255.999
743.814	262.079
743.866	258.671
743.917	257.722
743.968	253.658
744.019	253.066
744.07	262.969
744.121	259.782
744.172	251.081
744.224	250.276
744.275	258.763
744.326	257.586
744.377	258.969
744.428	257.449
744.479	256.794
744.531	254.396
744.582	254.446
744.633	248.759
744.684	254.975
744.735	251.502
744.786	245.426
744.837	252.442
744.889	247.368
744.94	244.242
744.991	244.648
745.042	240.681
745.093	246.716
745.144	246.547
745.195	244.014
745.247	240.817
745.298	242.751
745.349	244.436
745.4	240.048
745.451	239.662
745.502	241.053
745.553	240.249
745.605	239.297
745.656	233.655
745.707	240.571
745.758	242.333
745.809	243.619
745.86	237.597
745.911	233.66
745.962	230.805
746.014	240.953
746.065	244.695
746.116	235.503
746.167	238.207
746.218	237.943
746.269	243.329
746.32	239.481
746.372	232.846
746.423	236.367
746.474	230.74
746.525	230.439
746.576	229.12
746.627	236.093
746.678	227.65
746.729	232.621
746.78	228.366
746.832	231.011
746.883	230.919
746.934	237.985
746.985	235.933
747.036	233.669
747.087	227.463
747.138	218.237
747.189	226.073
747.241	222.736
747.292	230.72
747.343	232.782
747.394	225.676
747.445	224.656
747.496	228.757
747.547	228.736
747.598	225.584
747.649	229.694
747.701	225.681
747.752	228.837
747.803	225.6
747.854	224.303
747.905	226.312
747.956	231.959
748.007	227.146
748.058	223.495
748.109	224.135
748.161	226.837
748.212	224.453
748.263	221.813
748.314	220.644
748.365	224.911
748.416	225.826
748.467	219.031
748.518	216.983
748.569	223.188
748.62	232.736
748.672	227.569
748.723	225.248
748.774	220.677
748.825	225.038
748.876	224.247
748.927	216.783
748.978	225.099
749.029	223.307
749.08	215.791
749.131	221.266
749.173	218.035
749.224	220.908
749.275	228.526
749.326	232.62
749.378	227.933
749.429	224.634
749.48	204.899
749.531	212.478
749.582	223.38
749.634	212.919
749.685	219.478
749.736	212.898
749.787	218.583
749.838	212.176
749.89	220.725
749.941	215.895
749.992	220.289
750.043	224.068
750.094	205.922
750.146	215.71
750.197	217.301
750.248	222.334
750.299	217.486
750.35	221.084
750.401	229.911
750.453	220.643
750.504	219.577
750.555	214.01
750.606	209.73
750.657	225.32
750.709	207.722
750.76	217.895
750.811	219.758
750.862	214.746
750.913	211.191
750.964	206.32
751.016	209.254
751.067	215.846
751.118	203.744
751.169	214.811
751.22	216.414
751.272	223.879
751.323	203.371
751.374	217.727
751.425	205.564
751.476	212.321
751.528	213.2
751.579	215.287
751.63	211.456
751.681	215.702
751.732	206.554
751.783	205.025
751.835	213.894
751.886	209.287
751.937	205.925
751.988	204.811
752.039	204.529
752.09	210.741
752.142	216.053
752.193	210.587
752.244	214.066
752.295	205.379
752.346	211.636
752.397	209.207
752.449	217.576
752.5	209.007
752.551	209.737
752.602	214.424
752.653	209.579
752.704	197.119
752.756	210.698
752.807	206.08
752.858	212.771
752.909	209.086
752.96	205.079
753.011	204.048
753.063	200.92
753.114	207.931
753.165	191.482
753.216	203.11
753.267	204.466
753.318	201.405
753.37	202.175
753.421	202.899
753.472	209.75
753.523	188.876
753.574	200.728
753.625	201.269
753.676	196.671
753.728	197.026
753.779	198.438
753.83	206.376
753.881	199.596
753.932	197.626
753.983	206.611
754.034	195.287
754.086	203.951
754.137	193.215
754.188	198.311
754.239	205.289
754.29	196.724
754.341	194.859
754.393	199.192
754.444	190.415
754.495	215.437
754.546	192.578
754.597	203.97
754.648	197.7
754.699	206.343
754.75	192.673
754.802	193.914
754.853	200.128
754.904	200.667
754.955	192.339
755.006	193.004
755.057	193.907
755.108	203.162
755.16	192.819
755.211	201.183
755.262	187.87
755.313	203.193
755.364	199.609
755.415	185.114
755.466	193.761
755.518	196.805
755.569	192.893
755.62	196.44
755.671	197.629
755.722	197.839
755.773	189.572
755.824	194.539
755.875	199.907
755.927	190.854
755.978	185.467
756.029	195.635
756.08	198.648
756.131	189.259
756.182	193.922
756.233	198.75
756.284	189.143
756.336	191.162
756.387	196.175
756.438	198.8
756.489	195.059
756.54	183.387
756.591	193.192
756.642	190.961
756.693	193.779
756.745	190.684
756.796	185.353
756.847	187.654
756.898	188.586
756.949	183.093
757	186.963
757.051	190.943
757.102	196.444
757.153	192.006
757.205	190.767
757.256	192.923
757.307	189.825
757.358	185.646
757.409	183.202
757.46	188.416
757.511	187.028
757.562	186.909
757.613	189.939
757.664	189.313
757.716	183.591
757.767	183.066
757.818	189.001
757.869	184.886
757.92	189.015
757.971	182.857
758.022	183.96
758.073	185.556
758.124	182.184
758.175	182.875
758.227	179.007
758.278	192.517
758.329	189.707
758.38	169.319
758.431	179.439
758.482	186.369
758.533	184.119
758.584	181.067
758.635	187.639
758.686	185.835
758.738	190.25
758.789	182.968
758.84	184.847
758.891	183.307
758.942	177.976
758.993	177
759.044	180.815
759.095	187.319
759.146	179.74
759.197	180.608
759.248	182.488
759.3	184.76
759.351	170.076
759.402	180.029
759.453	178.161
759.504	180.015
759.555	177.981
759.606	184.212
759.657	176.81
759.708	178.161
759.759	171.677
759.81	172.478
759.861	179.174
759.913	179.892
759.964	176.248
760.015	176.124
760.066	179.031
760.117	179.307
760.168	178.025
760.219	172.138
760.27	183.117
760.321	181.939
760.372	179.354
760.423	176.986
760.474	172.283
760.525	174.251
760.576	176.997
760.628	178.027
760.679	175.793
760.73	177.879
760.781	170.443
760.832	180.431
760.883	177.917
760.934	175.07
760.985	173.178
761.036	167.671
761.087	175.36
761.138	173.212
761.189	173.188
761.24	172.111
761.291	173.993
761.342	179.756
761.393	171.862
761.445	172.134
761.496	176.996
761.547	179.816
761.598	172.613
761.649	170.257
761.7	166.133
761.751	173.96
761.802	172.437
761.853	168.494
761.904	173.117
761.955	171.691
762.006	172.081
762.057	172.561
762.108	172.457
762.159	170.418
762.21	169.446
762.261	164.677
762.313	169.455
762.364	175.367
762.415	173.149
762.466	167.216
762.517	162.17
762.568	169.411
762.619	171.627
762.67	171.508
762.721	178.268
762.772	175.967
762.823	172.409
762.874	164.541
762.925	169.22
762.976	170.919
763.027	173.956
763.078	170.351
763.129	171.932
763.18	171.86
763.231	172.347
763.282	165.584
763.333	168.277
763.384	168.914
763.435	167.593
763.486	171.65
763.537	170.794
763.589	164.057
763.64	161.477
763.691	166.518
763.742	167.068
763.793	167.548
763.844	164.87
763.895	167.051
763.946	170.437
763.997	165.821
764.048	163.999
764.099	161.115
764.15	164.12
764.201	164.092
764.252	158.781
764.303	157.825
764.354	167.095
764.405	169.323
764.456	170.463
764.507	169.51
764.558	171.353
764.609	171.216
764.66	163.147
764.711	166.459
764.762	167.271
764.813	158.744
764.864	158.727
764.915	158.271
764.966	161.226
765.017	167.27
765.068	164.027
765.119	156.933
765.17	165.472
765.221	167.998
765.272	164.518
765.323	164.503
765.374	162.499
765.425	159.963
765.476	160.143
765.527	159.534
765.578	161.553
765.629	164.005
765.68	161.354
765.731	157.046
765.782	168.913
765.833	167.881
765.884	159.051
765.935	163.696
765.986	165.711
766.037	166.13
766.088	162.86
766.139	158.6
766.19	164.213
766.241	168.336
766.292	162.249
766.343	160.526
766.394	161.347
766.445	160.207
766.496	155.732
766.547	159.012
766.598	165.212
766.649	167.648
766.677	169.836
766.729	167.213
766.78	158.132
766.831	164.699
766.882	161.164
766.933	155.299
766.984	163.599
767.035	156.13
767.086	171.975
767.137	154.559
767.188	152.266
767.24	151.842
767.291	152.767
767.342	147.635
767.393	162.734
767.444	162.866
767.495	154.772
767.546	154.96
767.597	163.079
767.648	161.753
767.7	159.338
767.751	150.445
767.802	154.015
767.853	163.122
767.904	147.672
767.955	144.244
768.006	151.648
768.057	150.417
768.108	164.137
768.159	153.21
768.21	157.784
768.262	152.021
768.313	142.438
768.364	158.516
768.415	153.13
768.466	154.979
768.517	147.736
768.568	153.336
768.619	153.809
768.67	146.823
768.721	152.112
768.772	152.622
768.823	150.992
768.875	155.911
768.926	165.078
768.977	149.116
769.028	156.483
769.079	156.826
769.13	147.281
769.181	150.116
769.232	153.883
769.283	154.921
769.334	142.725
769.385	144.503
769.436	147.627
769.488	145.579
769.539	137.574
769.59	143.449
769.641	141.598
769.692	147.741
769.743	144.614
769.794	146.273
769.845	150.189
769.896	152.59
769.947	150.176
769.998	143.634
770.049	151.297
770.1	141.691
770.151	140.987
770.203	145.01
770.254	145.534
770.305	136.014
770.356	141.949
770.407	146.71
770.458	143.619
770.509	144.726
770.56	150.074
770.611	143.915
770.662	142.316
770.713	133.217
770.764	138.634
770.815	144.309
770.866	141.916
770.917	149.973
770.968	140.552
771.02	137.414
771.071	135.66
771.122	137.489
771.173	138.357
771.224	141.66
771.275	139.827
771.326	137.464
771.377	136.391
771.428	134.196
771.479	140.613
771.53	137.582
771.581	133.142
771.632	138.226
771.683	136.647
771.734	132.441
771.785	140.062
771.836	138.663
771.887	135.775
771.938	135.701
771.99	135.082
772.041	138.556
772.092	144.729
772.143	130.795
772.194	141.34
772.245	131.981
772.296	136.817
772.347	140.735
772.398	139.804
772.449	133.712
772.5	135.546
772.551	136.734
772.602	134.767
772.653	132.392
772.704	135.278
772.755	137.407
772.806	135.207
772.857	135.726
772.908	137.679
772.959	135.875
773.01	137.784
773.061	128.895
773.112	136.5
773.163	140.54
773.214	130.585
773.265	133.07
773.316	137.139
773.367	137.224
773.419	136.081
773.47	131.632
773.521	135.628
773.572	136.562
773.623	130.635
773.674	133.512
773.725	131.93
773.776	130.404
773.827	129.223
773.878	127.751
773.929	130.367
773.98	125.303
774.031	130.3
774.082	128.579
774.133	126.966
774.184	131.063
774.235	129.532
774.286	123.616
774.337	120.784
774.388	125.902
774.439	126.711
774.49	129.319
774.541	131.436
774.592	129.096
774.643	129.433
774.694	130.799
774.745	128.321
774.796	121.785
774.847	120.979
774.898	129.775
774.949	130.974
775	126.136
775.051	128.98
775.102	130.294
775.153	129.572
775.204	126.655
775.255	126.515
775.306	131.528
775.357	130.556
775.408	128.16
775.459	128.291
775.51	126.181
775.561	119.772
775.612	116.367
775.663	123.18
775.714	128.974
775.765	133.323
775.816	125.917
775.867	120.07
775.918	117.56
775.969	115.093
776.02	120.126
776.071	121.446
776.122	124.379
776.173	122.132
776.224	122.709
776.275	120.174
776.326	128.297
776.377	119.42
776.428	118.275
776.479	124.208
776.53	129.073
776.581	128.51
776.632	119.846
776.683	118.647
776.734	120.835
776.785	120.475
776.836	122.978
776.887	123.179
776.938	123.238
776.989	123.333
777.04	121.926
777.091	122.092
777.142	124.003
777.193	118.602
777.244	115.485
777.295	120.001
777.346	121.888
777.397	120.914
777.448	120.721
777.499	120.636
777.55	118.066
777.601	114.661
777.652	120.334
777.703	119.094
777.754	122.107
777.805	121.924
777.856	116.381
777.907	117.682
777.958	119.326
778.009	115.79
778.06	114.408
778.111	113.93
778.161	122.591
778.212	121.906
778.263	116.276
778.314	115.573
778.365	119.172
778.416	115.717
778.467	113.59
778.518	113.305
778.569	118.121
778.62	120.553
778.671	115.858
778.722	112.63
778.773	117.179
778.824	115.221
778.875	114.626
778.926	110.896
778.977	111.907
779.028	110.483
779.079	113.645
779.13	115.134
779.181	116.076
779.232	114.607
779.283	110.288
779.334	108.911
779.385	112.816
779.436	113.706
779.487	116.902
779.537	117.205
779.588	109.405
779.639	112.648
779.69	111.488
779.741	114.323
779.792	111.78
779.843	114.843
779.894	112.989
779.945	110.208
779.996	113.083
780.047	112.395
780.098	114.953
780.149	117.771
780.2	120.182
780.251	112.268
780.302	110.723
780.353	110.17
780.404	111.583
780.455	107.844
780.505	108.303
780.556	114.079
780.607	112.32
780.658	108.131
780.709	103.906
780.76	113.117
780.811	115.496
780.862	108.341
780.913	106.45
780.964	113.16
781.015	110.845
781.066	108.669
781.117	110.462
781.168	113.02
781.219	110.665
781.27	109.612
781.32	106.945
781.371	112.256
781.422	112.879
781.473	110.483
781.524	107.135
781.575	106.223
781.626	109.086
781.677	111.72
781.728	107.876
781.779	110.956
781.83	114.264
781.881	108.715
781.932	103.954
781.983	108.135
782.033	110.901
782.084	107.112
782.135	104.093
782.186	110.536
782.237	106.532
782.288	104.249
782.339	102.888
782.39	105.922
782.441	106.538
782.492	103.062
782.543	107.477
782.594	109.733
782.644	102.983
782.695	98.4181
782.746	98.5158
782.797	106.687
782.848	105.535
782.899	101.542
782.95	104.839
783.001	105.107
783.052	106.645
783.103	106.918
783.154	105.07
783.204	110.166
783.255	107.049
783.306	103.293
783.357	105.623
783.408	101.784
783.459	95.6885
783.51	100.122
783.561	99.2878
783.612	107.917
783.663	110.63
783.714	104.653
783.764	101.264
783.815	104.31
783.866	101.114
783.917	98.3883
783.968	100.75
784.019	103.545
784.07	102.791
784.109	109.715
784.16	100.36
784.211	103.667
784.262	103.093
784.313	94.9256
784.364	107.821
784.415	104.724
784.466	97.4355
784.517	99.6826
784.568	101.067
784.619	96.9211
784.67	100.718
784.721	92.348
784.772	98.379
784.823	97.0691
784.874	96.9097
784.925	96.9375
784.976	101.928
785.027	93.3976
785.078	99.7417
785.129	98.9276
785.18	100.527
785.231	110.007
785.282	103.923
785.333	99.2889
785.384	96.4127
785.435	97.2462
785.486	93.6325
785.537	94.9857
785.588	96.3743
785.639	104.086
785.69	99.6452
785.741	97.6711
785.792	103.366
785.843	102.34
785.894	102.878
785.945	95.5396
785.996	97.9269
786.047	100.657
786.098	98.7192
786.149	95.427
786.2	95.6148
786.251	93.1316
786.302	101.505
786.353	92.8336
786.404	96.6625
786.455	99.2373
786.506	102.586
786.557	89.4417
786.608	97.9374
786.659	96.6763
786.71	97.0933
786.761	96.5554
786.812	89.0552
786.863	84.8768
786.914	88.2696
786.965	91.7627
787.016	99.7828
787.067	96.4071
787.118	99.5057
787.169	92.0454
787.22	96.2505
787.271	93.6676
787.322	92.2005
787.373	84.1426
787.424	101.373
787.475	102.564
787.526	93.2781
787.576	92.5106
787.627	95.9772
787.678	90.054
787.729	92.4716
787.78	90.2459
787.831	97.3745
787.882	97.3168
787.933	92.2663
787.984	87.8824
788.035	92.8482
788.086	95.9774
788.137	93.6739
788.188	89.0882
788.239	92.7226
788.29	95.6177
788.341	94.5994
788.392	86.4234
788.443	93.5696
788.494	94.6937
788.545	89.2634
788.596	88.582
788.647	93.6934
788.698	92.2614
788.749	91.649
788.8	91.1846
788.851	90.2629
788.901	92.1697
788.952	92.0145
789.003	90.6
789.054	94.1772
789.105	98.6232
789.156	86.856
789.207	86.5636
789.258	90.8831
789.309	94.0172
789.36	91.1365
789.411	86.8134
789.462	96.5592
789.513	90.7108
789.564	85.014
789.615	86.1408
789.666	88.2071
789.717	94.2739
789.768	90.9332
789.819	87.0991
789.87	85.2358
789.92	91.7193
789.971	87.6883
790.022	88.4112
790.073	92.329
790.124	89.4259
790.175	87.776
790.226	83.5386
790.277	86.3908
790.328	87.7251
790.379	84.0779
790.43	92.773
790.481	92.2988
790.532	92.7498
790.583	86.8409
790.634	87.1543
790.685	91.5216
790.735	89.2604
790.786	81.989
790.837	92.6773
790.888	91.1907
790.939	88.3601
790.99	82.6744
791.041	87.2927
791.092	95.5399
791.143	91.0811
791.194	85.9719
791.245	82.467
791.296	90.5312
791.347	90.5062
791.397	85.7495
791.448	84.8704
791.499	92.2689
791.55	89.1095
791.601	79.0572
791.652	85.2055
791.703	94.0687
791.754	91.7772
791.805	87.7384
791.856	84.0999
791.907	84.2777
791.958	87.7075
792.008	86.5002
792.059	83.1584
792.11	88.1757
792.161	85.176
792.212	83.959
792.263	87.0346
792.314	90.2593
792.365	80.7502
792.416	79.4618
792.467	83.6409
792.518	88.4632
792.569	85.0035
792.619	84.2804
792.67	85.1959
792.721	88.2335
792.772	83.2233
792.823	86.2648
792.874	86.6212
792.925	84.8964
792.976	84.7633
793.027	83.6937
793.078	84.0972
793.128	82.9922
793.179	86.8551
793.23	82.8171
793.281	80.3265
793.332	86.8732
793.383	89.3186
793.434	84.9009
793.485	83.0382
793.536	81.7448
793.587	81.0693
793.638	84.1785
793.688	84.34
793.739	85.2013
793.79	83.4362
793.841	80.418
793.892	82.4498
793.943	86.8591
793.994	79.8159
794.045	79.4377
794.096	83.8952
794.146	81.6969
794.197	78.0946
794.248	76.1051
794.299	83.6388
794.35	85.7462
794.401	84.0747
794.452	78.2842
794.503	79.2526
794.554	81.7311
794.604	78.0996
794.655	78.5632
794.706	82.7377
794.757	83.329
794.808	80.3685
794.859	78.1454
794.91	79.4811
794.961	80.3904
795.011	80.5846
795.062	86.0978
795.113	86.926
795.164	86.5728
795.215	86.4297
795.266	81.6335
795.317	82.6472
795.368	81.9057
795.418	82.4718
795.469	80.4943
795.52	81.8101
795.571	81.1735
795.622	80.5104
795.673	73.7181
795.724	78.1752
795.775	83.4477
795.825	77.2071
795.876	73.7242
795.927	80.2718
795.978	85.0338
796.029	78.3013
796.08	83.8665
796.131	80.4145
796.181	80.2487
796.232	77.4628
796.283	79.5164
796.334	82.6316
796.385	78.2887
796.436	78.5441
796.487	78.0823
796.537	72.829
796.588	77.5597
796.639	78.6216
796.69	78.2569
796.741	78.2344
796.792	76.3147
796.843	74.6397
796.893	74.6588
796.944	79.55
796.995	79.223
797.046	77.1602
797.097	75.2955
797.148	73.9168
797.199	76.8842
797.249	79.3944
797.3	81.0783
797.351	81.5927
797.402	82.9859
797.453	79.3104
797.504	82.1184
797.555	81.2735
797.605	72.9236
797.656	72.0246
797.707	77.3917
797.758	80.2515
797.809	79.0771
797.86	75.8611
797.91	79.2369
797.961	79.935
798.012	77.9989
798.063	75.1111
798.114	75.3118
798.165	77.1901
798.216	78.0223
798.266	76.9196
798.317	78.6409
798.368	76.0607
798.419	67.2648
798.47	72.8259
798.521	73.6616
798.571	75.3169
798.622	76.8759
798.673	74.1976
798.724	75.2845
798.775	77.9608
798.826	77.5241
798.876	76.5888
798.927	79.0977
798.978	73.2707
799.029	75.8594
799.08	77.7688
799.13	71.0161
799.181	70.9449
799.232	75.3211
799.283	76.804
799.334	73.9555
799.385	71.0241
799.435	77.514
799.486	69.7621
799.537	72.9543
799.588	75.5126
799.639	75.9132
799.69	73.4864
799.74	76.5395
799.791	78.464
799.842	77.9431
799.893	69.1113
799.944	72.3212
799.994	72.5261
800.045	73.4852
800.096	72.7169
800.147	72.2463
800.198	72.1354
800.248	77.3197
800.299	75.2194
800.35	75.5289
800.401	71.078
800.452	72.243
800.503	76.2368
800.553	77.2336
800.604	74.8921
800.655	74.5712
800.706	75.1585
800.757	73.8743
800.807	72.0418
800.858	72.549
800.909	73.162
800.96	73.1278
801.011	73.7505
801.061	66.0492
801.112	65.3678
801.163	70.8419
801.214	66.4148
801.265	66.8001
801.315	72.8349
801.366	76.3061
801.417	68.2077
801.457	69.7572
801.508	77.9868
801.558	69.4986
801.609	72.2497
801.66	65.5461
801.711	71.0281
801.762	68.3924
801.813	67.7449
801.864	69.1742
801.915	69.1748
801.966	72.1734
802.017	67.0108
802.068	63.426
802.118	69.2722
802.169	65.253
802.22	66.9874
802.271	66.1378
802.322	71.524
802.373	68.8203
802.424	68.3656
802.475	69.6602
802.526	66.6444
802.577	68.1446
802.627	68.8539
802.678	69.7499
802.729	71.7222
802.78	69.1926
802.831	73.8283
802.882	64.4688
802.933	65.6081
802.984	72.6183
803.035	66.7675
803.086	66.2574
803.136	67.7467
803.187	68.5372
803.238	72.9399
803.289	70.2298
803.34	72.7149
803.391	68.1602
803.442	69.4726
803.493	70.3456
803.544	72.6674
803.594	62.1668
803.645	64.0442
803.696	64.5961
803.747	68.9523
803.798	69.3803
803.849	68.2935
803.9	64.8629
803.951	71.6766
804.002	69.8055
804.052	67.4224
804.103	67.1719
804.154	63.1937
804.205	69.6238
804.256	73.8848
804.307	66.8734
804.358	67.3072
804.409	59.3732
804.459	67.4812
804.51	68.2746
804.561	69.4905
804.612	61.4545
804.663	66.099
804.714	69.2836
804.765	64.1054
804.816	64.5923
804.866	69.4321
804.917	67.0772
804.968	63.7966
805.019	68.1818
805.07	67.53
805.121	67.5339
805.172	64.2167
805.223	65.8567
805.273	65.2289
805.324	71.2927
805.375	69.9345
805.426	68.1036
805.477	69.4518
805.528	65.3725
805.579	62.0114
805.629	60.813
805.68	66.2357
805.731	65.6099
805.782	65.8587
805.833	60.8932
805.884	69.4192
805.935	57.0869
805.985	68.2625
806.036	68.3223
806.087	68.6291
806.138	70.4049
806.189	57.1666
806.24	66.9357
806.291	64.7726
806.341	70.4809
806.392	64.2618
806.443	65.3458
806.494	65.4412
806.545	64.4342
806.596	60.9874
806.647	58.8834
806.697	66.4901
806.748	63.5932
806.799	68.2768
806.85	61.6216
806.901	62.3758
806.952	67.6574
807.003	63.0927
807.053	61.0983
807.104	71.1017
807.155	65.9251
807.206	65.1206
807.257	59.6565
807.308	60.9885
807.358	67.7604
807.409	58.8159
807.46	61.8073
807.511	68.2345
807.562	62.5573
807.613	66.2025
807.663	59.6369
807.714	65.8416
807.765	64.4914
807.816	61.6975
807.867	69.6964
807.918	61.709
807.969	59.1811
808.019	52.9482
808.07	69.3705
808.121	62.1166
808.172	65.3653
808.223	59.4593
808.273	64.4173
808.324	66.9028
808.375	61.8903
808.426	59.2564
808.477	65.9246
808.528	67.4584
808.578	66.2189
808.629	66.9814
808.68	64.4048
808.731	64.3307
808.782	65.9596
808.833	63.4587
808.883	59.7311
808.934	57.5179
808.985	60.633
809.036	57.2517
809.087	62.198
809.138	61.6774
809.188	62.3725
809.239	58.6029
809.29	64.1461
809.341	62.1759
809.392	60.9116
809.442	62.6648
809.493	63.2092
809.544	64.1561
809.595	59.0418
809.646	60.604
809.696	59.7062
809.747	60.0858
809.798	56.6343
809.849	54.9016
809.9	62.3458
809.951	65.3478
810.001	58.3909
810.052	57.5525
810.103	62.6268
810.154	61.4266
810.205	63.6739
810.255	61.0284
810.306	62.6264
810.357	64.7527
810.408	56.9042
810.459	60.3606
810.509	60.9701
810.56	64.4735
810.611	60.3907
810.662	58.3875
810.713	59.9097
810.763	65.0424
810.814	61.3436
810.865	59.7368
810.916	59.9402
810.967	56.6008
811.017	61.9843
811.068	58.994
811.119	61.6496
811.17	63.9858
811.221	58.2591
811.271	61.4188
811.322	65.3393
811.373	63.5145
811.424	63.5672
811.474	59.7887
811.525	52.8512
811.576	59.6736
811.627	52.3692
811.678	58.9814
811.728	60.2088
811.779	58.6802
811.83	59.7078
811.881	58.8444
811.932	55.4855
811.982	56.6361
812.033	58.7653
812.084	64.5327
812.135	64.3464
812.185	60.4515
812.236	62.9772
812.287	60.0286
812.338	63.9527
812.389	63.1157
812.439	58.8472
812.49	58.5529
812.541	62.2261
812.592	62.6528
812.642	59.5472
812.693	62.1534
812.744	59.9598
812.795	59.506
812.846	56.2812
812.896	58.2385
812.947	59.918
812.998	57.9884
813.049	58.1191
813.099	62.7905
813.15	58.0989
813.201	53.8841
813.252	50.293
813.302	56.1376
813.353	60.1688
813.404	56.1448
813.455	54.7694
813.506	57.1393
813.556	59.1972
813.607	59.3801
813.658	56.5785
813.709	53.7835
813.759	58.72
813.81	57.5669
813.861	55.5254
813.912	58.474
813.962	59.8022
814.013	59.6364
814.064	60.2104
814.115	59.8217
814.165	57.3102
814.216	57.5527
814.267	59.5066
814.318	57.6749
814.368	56.1201
814.419	57.0576
814.47	56.3302
814.521	59.445
814.571	56.4054
814.622	57.3538
814.673	53.3847
814.724	59.0774
814.774	57.7334
814.825	58.4542
814.876	58.1354
814.927	54.9157
814.977	55.5101
815.028	55.5604
815.079	57.0683
815.13	56.3512
815.18	57.7907
815.231	57.8484
815.282	53.7576
815.333	53.8364
815.383	56.3926
815.434	54.7701
815.485	55.2751
815.536	54.4238
815.586	52.7233
815.637	54.4399
815.688	59.1665
815.739	59.6183
815.789	54.0723
815.84	50.0423
815.891	50.3006
815.941	54.6181
815.992	53.2199
816.043	55.878
816.094	58.2218
816.144	61.0886
816.195	64.0993
816.246	57.0362
816.297	55.2659
816.347	54.9066
816.398	54.019
816.449	53.0771
816.499	53.3288
816.55	52.2474
816.601	56.8193
816.652	55.0597
816.702	52.9139
816.753	56.609
816.804	56.3126
816.855	54.6041
816.905	53.5729
816.956	54.613
817.007	55.1561
817.057	52.7106
817.108	54.5191
817.159	58.1095
817.21	58.3546
817.26	55.6564
817.311	56.8488
817.362	58.3181
817.412	53.7956
817.463	52.668
817.514	53.8393
817.565	55.2125
817.615	54.1357
817.666	52.597
817.717	52.0381
817.767	54.9838
817.818	52.4485
817.869	50.6214
817.919	50.5843
817.97	54.5784
818.021	56.4466
818.072	57.2173
818.122	58.3903
818.173	58.6428
818.224	57.6132
818.274	58.808
818.325	58.2647
818.376	58.7958
818.427	53.6387
818.477	48.9365
818.528	54.079
818.579	58.6556
818.629	50.0831
818.68	49.9288
818.731	55.0203
818.781	56.7122
818.806	56.7098
818.857	52.7204
818.908	49.6227
818.959	54.2819
819.01	50.1625
819.06	50.2306
819.111	52.5766
819.162	51.2816
819.213	51.2639
819.264	53.7
819.315	48.0347
819.365	54.9847
819.416	44.8762
819.467	45.6349
819.518	52.2052
819.569	53.1149
819.619	51.1019
819.67	53.1116
819.721	48.7517
819.772	58.9843
819.823	51.5704
819.873	44.339
819.924	50.4876
819.975	53.1372
820.026	53.9669
820.077	45.2989
820.127	45.8342
820.178	50.3274
820.229	48.4086
820.28	48.6802
820.331	45.3575
820.381	52.7361
820.432	55.0281
820.483	50.9334
820.534	50.6212
820.585	50.7935
820.635	49.2069
820.686	48.5511
820.737	52.6468
820.788	54.6426
820.839	52.9548
820.889	50.9009
820.94	47.198
820.991	48.3335
821.042	48.659
821.092	52.9119
821.143	54.4146
821.194	52.245
821.245	51.5543
821.296	46.7962
821.346	50.1182
821.397	52.1042
821.448	51.1286
821.499	45.9179
821.549	50.0119
821.6	51.0451
821.651	48.2942
821.702	51.7901
821.753	50.1758
821.803	48.9297
821.854	51.986
821.905	47.3774
821.956	53.2141
822.006	50.8203
822.057	49.063
822.108	50.4855
822.159	52.1776
822.21	51.5007
822.26	48.4047
822.311	52.0759
822.362	57.4367
822.413	54.9134
822.463	45.2404
822.514	43.1016
822.565	47.9902
822.616	48.6892
822.667	43.7189
822.717	45.4809
822.768	49.7681
822.819	48.9731
822.87	47.5048
822.92	48.0312
822.971	51.1659
823.022	49.2079
823.073	49.4537
823.123	48.5137
823.174	47.7481
823.225	48.4254
823.276	49.5693
823.326	46.7938
823.377	46.9942
823.428	47.6777
823.479	46.4696
823.529	46.7207
823.58	49.2425
823.631	50.6251
823.682	47.2189
823.732	49.6758
823.783	52.5977
823.834	49.6049
823.885	46.6271
823.935	48.5815
823.986	49.7583
824.037	47.2986
824.088	53.0557
824.138	50.6392
824.189	48.7635
824.24	47.9855
824.291	46.2785
824.341	47.0774
824.392	51.0816
824.443	48.5286
824.494	45.0734
824.544	45.7368
824.595	48.4379
824.646	47.3576
824.697	44.9464
824.747	45.6867
824.798	49.2524
824.849	48.2255
824.9	44.1813
824.95	53.5183
825.001	49.7442
825.052	47.6987
825.103	47.9573
825.153	47.1758
825.204	43.0159
825.255	44.9649
825.305	50.6925
825.356	49.3044
825.407	51.9785
825.458	48.1984
825.508	47.7132
825.559	46.3072
825.61	46.0134
825.661	40.9925
825.711	44.3561
825.762	46.012
825.813	49.2845
825.864	46.5689
825.914	45.5716
825.965	45.4666
826.016	44.0446
826.066	47.3217
826.117	46.748
826.168	43.8605
826.219	47.5231
826.269	46.1363
826.32	44.0114
826.371	42.2494
826.421	49.6309
826.472	50.7148
826.523	47.0281
826.574	48.8149
826.624	50.0605
826.675	43.5527
826.726	44.4053
826.776	46.4473
826.827	46.3435
826.878	44.2271
826.929	45.2751
826.979	46.9706
827.03	47.4625
827.081	44.3836
827.131	44.7038
827.182	44.693
827.233	49.1562
827.284	45.7862
827.334	44.9996
827.385	46.336
827.436	51.6627
827.486	45.9787
827.537	46.0397
827.588	49.1758
827.638	46.2165
827.689	45.9207
827.74	48.1715
827.791	47.4428
827.841	48.3694
827.892	46.8635
827.943	40.388
827.993	46.7497
828.044	48.7664
828.095	46.2398
828.146	45.7953
828.196	47.9415
828.247	43.702
828.298	43.1214
828.348	46.7786
828.399	46.6922
828.45	47.1016
828.5	44.7469
828.551	43.2894
828.602	51.3881
828.652	48.6473
828.703	44.5215
828.754	43.6612
828.805	47.312
828.855	45.578
828.906	46.0659
828.957	42.6099
829.007	46.3131
829.058	47.9358
829.109	42.5105
829.159	44.7886
829.21	49.4755
829.261	45.9797
829.311	42.907
829.362	42.8199
829.413	44.5716
829.463	44.6786
829.514	47.8993
829.565	45.7666
829.615	46.6796
829.666	43.8472
829.717	46.4765
829.767	40.4431
829.818	46.7456
829.869	46.6086
829.919	44.3785
829.97	42.2642
830.021	45.65
830.071	42.8506
830.122	42.8784
830.173	40.5077
830.224	42.7579
830.274	43.8181
830.325	47.4263
830.376	41.2875
830.426	43.2627
830.477	43.7644
830.528	46.931
830.578	42.3475
830.629	47.3483
830.68	45.3378
830.73	42.472
830.781	43.0801
830.831	49.2714
830.882	43.2325
830.933	46.2589
830.983	40.7194
831.034	43.5533
831.085	47.0698
831.135	46.9417
831.186	47.5422
831.237	46.7268
831.287	45.4665
831.338	48.5826
831.389	45.992
831.439	41.4384
831.49	43.3322
831.541	44.0248
831.591	51.567
831.642	44.3509
831.693	39.2724
831.743	36.7775
831.794	43.2427
831.845	44.3504
831.895	47.6781
831.946	43.9754
831.997	41.0266
832.047	43.2934
832.098	45.5821
832.148	44.3827
832.199	40.8242
832.25	44.7302
832.3	45.4388
832.351	40.5654
832.402	41.6434
832.452	45.4607
832.503	46.259
832.554	45.5645
832.604	48.5852
832.655	42.2841
832.706	44.8457
832.756	38.9676
832.807	44.9194
832.857	44.4763
832.908	44.6597
832.959	41.4158
833.009	46.9796
833.06	46.5206
833.111	43.6784
833.161	46.4685
833.212	38.4497
833.263	38.3912
833.313	43.0204
833.364	45.8682
833.414	45.201
833.465	44.7801
833.516	42.7894
833.566	37.8846
833.617	42.4635
833.668	44.1802
833.718	44.672
833.769	45.6609
833.819	51.4216
833.87	42.7788
833.921	48.2651
833.971	41.3838
834.022	41.9355
834.073	44.9615
834.123	44.8357
834.174	41.767
834.224	46.7455
834.275	40.6934
834.326	41.9401
834.376	40.0026
834.427	43.4583
834.477	43.9995
834.528	40.1148
834.579	41.021
834.629	44.1392
834.68	41.4956
834.73	41.1474
834.781	44.1602
834.832	44.5237
834.882	43.1199
834.933	44.6129
834.984	41.7158
835.034	47.4983
835.085	36.5022
835.135	41.428
835.186	41.7601
835.237	39.3451
835.287	42.4084
835.338	45.1568
835.388	42.7466
835.439	43.1615
835.49	47.4443
835.54	40.9122
835.591	42.1513
835.641	43.0872
835.692	39.8192
835.743	40.7772
835.793	40.004
835.844	42.0323
835.894	42.9141
835.945	38.0321
835.996	42.9274
836.046	42.0234
836.097	47.8556
836.099	47.9729
836.15	41.829
836.201	37.093
836.251	40
836.302	41.0212
836.353	43.0384
836.404	43.9482
836.454	42.9743
836.505	43.0125
836.556	42.8556
836.606	36.9886
836.657	40.0086
836.708	44.0549
836.758	41.9301
836.809	43.7397
836.86	42.0381
836.911	47.7826
836.961	40.4628
837.012	42.8585
837.063	43.9179
837.113	43.0573
837.164	38.0752
837.215	35.8127
837.265	41.8021
837.316	43.7345
837.367	39.6212
837.418	42.4125
837.468	38.0684
837.519	41.7015
837.57	40.8721
837.62	45.5294
837.671	44.9322
837.722	44.2298
837.772	35.0296
837.823	42.8429
837.874	42.2276
837.924	41.8927
837.975	40.0936
838.026	37.8932
838.077	41.9153
838.127	35.7261
838.178	42.3644
838.229	39.0108
838.279	41.9209
838.33	42.8174
838.381	40.4008
838.431	36.3837
838.482	39.3066
838.533	40.1027
838.583	38.5619
838.634	41.566
838.685	44.1787
838.735	45.4452
838.786	40.8095
838.837	42.482
838.888	45.956
838.938	35.2425
838.989	41.904
839.04	37.8596
839.09	41.8779
839.141	43.0182
839.192	41.6823
839.242	39.0348
839.293	40.0158
839.344	34.4677
839.394	37.2643
839.445	33.9612
839.496	46.043
839.546	41.0852
839.597	39.2611
839.648	35.6983
839.698	38.398
839.749	33.2457
839.8	41.9453
839.85	45.664
839.901	43.2615
839.952	43.5089
840.002	40.0006
840.053	44.199
840.104	41.0218
840.154	38.9822
840.205	38.8712
840.256	40.3292
840.306	44.6545
840.357	37.2262
840.408	41.0281
840.458	41.6372
840.509	41.1156
840.56	38.8046
840.61	43.0342
840.661	44.2693
840.711	48.5064
840.762	38.6696
840.813	42.7186
840.863	39
840.914	42.0723
840.965	34.9608
841.015	43.4119
841.066	39.4583
841.117	42.0827
841.167	39.4035
841.218	41.1976
841.269	37.6906
841.319	43.7275
841.37	40.063
841.421	36.7736
841.471	42.0729
841.522	40.9084
841.573	35.105
841.623	37.9344
841.674	35.1313
841.724	37.9362
841.775	39.6265
841.826	42.253
841.876	44.1154
841.927	40.9265
841.978	38.5352
842.028	39.309
842.079	39.4094
842.13	43.861
842.18	40.9495
842.231	40.859
842.281	45.735
842.332	38.449
842.383	38.8564
842.433	36.4016
842.484	41.6286
842.535	41.9933
842.585	37.1573
842.636	40.1247
842.687	39.9416
842.737	37.3162
842.788	39.4711
842.838	38.8849
842.889	40.0435
842.94	38.6923
842.99	37.0797
843.041	37.3329
843.092	37.1322
843.142	43.0002
843.193	40.6532
843.243	38.5633
843.294	38.3308
843.345	39.3183
843.395	43.9605
843.446	41.6999
843.497	41.4165
843.547	39.457
843.598	38.5055
843.648	38.3538
843.699	39.8388
843.75	40.4256
843.8	39.9739
843.851	36.3323
843.901	39.53
843.952	36.6825
844.003	37.6967
844.053	40.6304
844.104	39.9633
844.155	37.9349
844.205	39.3319
844.256	35.6138
844.306	43.9988
844.357	39.4289
844.408	35.8551
844.458	35.3408
844.509	38.0036
844.559	36.7449
844.61	36.8981
844.661	36.985
844.711	37.9496
844.762	37.1452
844.812	41.5147
844.863	41.5544
844.914	40.8149
844.964	39.1046
845.015	40.258
845.065	36.3301
845.116	40.4181
845.167	39.1299
845.217	39.5744
845.268	38.9711
845.318	37.7739
845.369	37.074
845.42	38.7612
845.47	40.4607
845.521	44.1406
845.571	39.3325
845.622	37.4898
845.673	39.1136
845.723	39.7486
845.774	40.2968
845.824	39.5933
845.875	38.8549
845.926	39.8971
845.976	38.8661
846.027	37.3293
846.077	36.8954
846.128	37.9985
846.178	39.514
846.229	37.0183
846.28	38.1838
846.33	38.6288
846.381	38.9929
846.431	36.2563
846.482	34.9776
846.533	40.2934
846.583	42.1583
846.634	41.4752
846.684	41.2561
846.735	40.9658
846.785	40.4773
846.836	37.5355
846.887	35.1288
846.937	39.3508
846.988	39.3469
847.038	36.1137
847.089	41.0658
847.139	42.8478
847.19	42.184
847.241	40.9067
847.291	41.8878
847.342	39.6898
847.392	39.7071
847.443	35.3088
847.493	37.7899
847.544	37.2767
847.595	37.4243
847.645	36.936
847.696	38.3653
847.746	38.1435
847.797	38.7049
847.847	34.216
847.898	39.6091
847.948	35.2722
847.999	35.2096
848.05	36.9002
848.1	37.3378
848.151	35.9222
848.201	37.813
848.252	39.2369
848.302	39.9054
848.353	34.9736
848.404	38.3251
848.454	38.0305
848.505	39.0378
848.555	40.0942
848.606	40.1993
848.656	38.9444
848.707	40.5306
848.757	38.6452
848.808	35.4824
848.859	33.5081
848.909	37.4578
848.96	34.9935
849.01	40.5636
849.061	36.9811
849.111	37.2189
849.162	37.8699
849.212	36.701
849.263	36.7331
849.313	41.1574
849.364	40.7593
849.414	41.6562
849.465	35.8
849.516	39.9817
849.566	37.2569
849.617	36.2893
849.667	36.2034
849.718	35.8778
849.768	39.3704
849.819	39.5747
849.869	39.9199
849.92	39.6432
849.97	39.4722
850.021	38.2177
850.071	39.1087
850.122	40.1045
850.173	36.7299
850.223	37.288
850.274	40.394
850.324	35.2671
850.375	36.7338
850.425	36.4981
850.476	34.7248
850.526	38.8505
850.577	43.9781
850.627	36.5949
850.678	35.056
850.728	34.9639
850.779	39.4942
850.829	41.1071
850.88	35.2773
850.93	35.2486
850.981	38.1821
851.031	38.9139
851.082	37.4467
851.133	39.1299
851.183	38.1447
851.234	36.9854
851.284	39.5147
851.335	35.1634
851.385	35.3237
851.436	36.4141
851.486	39.3348
851.537	42.7625
851.587	38.3955
851.638	34.5358
851.688	41.1169
851.739	38.3511
851.789	42.7515
851.84	37.1594
851.89	37.2762
851.941	37.7778
851.991	39.1646
852.042	34.5259
852.092	35.7433
852.143	32.9143
852.193	38.6982
852.244	34.2288
852.294	37.3642
852.345	40.0982
852.395	36.1033
852.446	36.4334
852.496	38.649
852.547	33.8843
852.597	32.5581
852.648	34.4017
852.698	34.7117
852.749	35.8937
852.799	35.3153
852.85	32.9697
852.9	40.335
852.951	38.3923
853.001	37.3625
853.052	34.5007
853.102	36.0208
853.153	33.7705
853.203	34.1711
853.254	38.8173
853.304	39.4401
853.355	38.0943
853.405	40.6872
853.443	35.7164
853.493	37.4208
853.544	35.8372
853.594	45.1265
853.645	38.1499
853.696	40.34
853.746	35.0432
853.797	36.6598
853.847	33.703
853.898	35.9534
853.949	36.5409
853.999	37.3307
854.05	38.3216
854.1	32.8554
854.151	31.2213
854.202	33.3061
854.252	35.9885
854.303	36.1077
854.353	34.9451
854.404	40.512
854.455	37.7563
854.505	39.0402
854.556	33.5907
854.606	40.2634
854.657	34.7524
854.708	33.3667
854.758	32.2444
854.809	40.2201
854.859	34.9679
854.91	33.382
854.961	31.0653
855.011	36.9546
855.062	38.67
855.112	34.5011
855.163	32.2588
855.214	39.0921
855.264	35.3845
855.315	33.6093
855.365	31.4014
855.416	34.9801
855.466	36.7978
855.517	34.9217
855.568	37.3214
855.618	37.6428
855.669	38.5154
855.719	38.056
855.77	31.5686
855.821	37.8021
855.871	41.0102
855.922	34.7526
855.972	35.8656
856.023	39.3446
856.073	35.0035
856.124	37.0145
856.175	37.4698
856.225	36.6776
856.276	32.888
856.326	35.4537
856.377	33.013
856.427	37.1912
856.478	37.622
856.529	33.2955
856.579	33.6526
856.63	36.1858
856.68	39.0609
856.731	35.7613
856.781	33.3886
856.832	36.1465
856.883	36.4093
856.933	36.7473
856.984	35.2819
857.034	34.346
857.085	37.6841
857.135	34.3737
857.186	33.9034
857.237	35.1409
857.287	32.5626
857.338	30.4956
857.388	31.8692
857.439	35.9506
857.489	37.597
857.54	34.3008
857.59	34.7949
857.641	39.0895
857.692	37.325
857.742	34.869
857.793	33.9201
857.843	34.1945
857.894	35.3813
857.944	33.2731
857.995	38.0928
858.045	35.8836
858.096	32.8554
858.147	35.8304
858.197	36.4579
858.248	35.4287
858.298	36.6517
858.349	32.6118
858.399	34.4681
858.45	31.0034
858.5	33.4937
858.551	39.2855
858.601	36.4349
858.652	34.274
858.703	32.2127
858.753	35.8143
858.804	34.3129
858.854	31.3858
858.905	35.5624
858.955	31.4276
859.006	34.0324
859.056	36.074
859.107	31.2029
859.157	35.1225
859.208	33.2647
859.258	39.3079
859.309	35.0453
859.36	34.48
859.41	34.8869
859.461	35.9101
859.511	33.2239
859.562	32.9617
859.612	39.8165
859.663	34.627
859.713	32.86
859.764	30.9918
859.814	36.6475
859.865	33.4764
859.915	36.204
859.966	30.0918
860.016	36.181
860.067	38.3543
860.117	34.0136
860.168	29.4207
860.219	34.328
860.269	33.9123
860.32	33.1978
860.37	31.479
860.421	36.2718
860.471	32.4039
860.522	35.4466
860.572	34.5484
860.623	33.6854
860.673	35.1221
860.724	36.3345
860.774	31.2567
860.825	36.8429
860.875	39.1786
860.926	34.1377
860.976	29.6437
861.027	37.2141
861.077	38.1071
861.128	33.8842
861.178	31.899
861.229	37.75
861.279	37.1105
861.33	31.0784
861.38	34.7935
861.431	40.8607
861.481	34.9213
861.532	31.4995
861.582	32.9619
861.633	32.1728
861.683	29.9291
861.734	35.0181
861.784	36.3838
861.835	38.2576
861.885	34.5167
861.936	36.8183
861.986	35.8887
862.037	35.3168
862.087	35.567
862.138	33.0946
862.188	34.323
862.239	40.3862
862.289	32.9145
862.34	36.6185
862.39	37.4994
862.441	35.3912
862.491	35.4167
862.542	30.9815
862.592	35.7437
862.643	31.2967
862.693	28.2108
862.744	36.9422
862.794	32.9498
862.845	34.8791
862.895	30.1058
862.946	36.3523
862.996	31.6396
863.047	35.0111
863.097	30.6586
863.148	33.2582
863.198	35.6251
863.249	36.161
863.299	37.099
863.35	37.0827
863.4	29.0988
863.451	37.2243
863.501	29.458
863.552	30.1291
863.602	36.0247
863.653	35.019
863.703	30.2826
863.754	28.2253
863.804	27.6061
863.854	33.6387
863.905	30.5408
863.955	32.992
864.006	32.6726
864.056	36.6214
864.107	33.796
864.157	30.8247
864.208	38.2496
864.258	36.2144
864.309	33.7389
864.359	28.8348
864.41	35.801
864.46	37.8262
864.511	37.9415
864.561	31.1733
864.612	34.7033
864.662	33.8671
864.712	32.6682
864.763	29.7776
864.813	34.5866
864.864	32.0917
864.914	36.0097
864.965	30.0604
865.015	32.1692
865.066	30.4221
865.116	30.941
865.167	30.9558
865.217	32.5795
865.268	34.1331
865.318	32.8621
865.368	33.2319
865.419	32.4618
865.469	36.0774
865.52	33.9098
865.57	34.3467
865.621	34.3551
865.671	35.3624
865.722	35.633
865.772	33.2376
865.823	32.8367
865.873	29.7787
865.923	37.8847
865.974	31.1473
866.024	33.1273
866.075	32.8147
866.125	34.1853
866.176	32.4499
866.226	33.5465
866.276	35.4077
866.327	36.6623
866.377	33.3307
866.428	37.2262
866.478	36.7598
866.529	33.8077
866.579	34.1434
866.63	35.7531
866.68	32.8108
866.73	32.4768
866.781	34.0678
866.831	34.4839
866.882	31.8999
866.932	30.6983
866.983	32.4236
867.033	35.34
867.083	34.7657
867.134	32.7583
867.184	28.4996
867.235	32.3099
867.285	31.6293
867.336	28.9104
867.386	33.2922
867.436	32.3253
867.487	37.9786
867.537	30.4266
867.588	28.903
867.638	36.2077
867.689	33.7098
867.739	32.0176
867.789	32.4108
867.84	34.0964
867.89	33.01
867.941	32.7501
867.991	31.209
868.042	36.2679
868.092	34.416
868.142	30.1704
868.193	34.0391
868.243	35.3741
868.294	33.5627
868.344	31.7954
868.394	34.1623
868.445	38.1062
868.495	35.3199
868.546	35.8878
868.596	36.3625
868.647	37.161
868.697	35.5473
868.747	36.7
868.798	33.0265
868.848	35.9644
868.899	31.0373
868.949	31.92
868.999	34.1457
869.05	36.3328
869.1	31.8295
869.151	33.6899
869.201	32.064
869.251	33.8611
869.302	30.9304
869.352	34.2447
869.403	37.7334
869.453	40.1994
869.503	38.2155
869.554	31.9013
869.604	30.8202
869.655	33.2136
869.705	30.2261
869.755	33.5934
869.806	34.5348
869.856	32.1124
869.907	34.2322
869.957	33.806
870.007	35.7926
870.058	37.1048
870.108	31.6854
870.159	34.2589
870.209	27.9169
870.259	33.4818
870.31	32.2604
870.36	35.7466
870.41	35.3228
870.461	35.6589
870.511	31.6758
870.562	31.6985
870.612	32.92
870.662	30.8517
870.713	27.8989
870.731	28.2848
870.782	29.1643
870.832	36.6239
870.883	33.0362
870.933	32.3386
870.984	32.9609
871.034	34.0495
871.085	38.5271
871.135	30.9793
871.186	27.7037
871.236	28.0749
871.287	32.0415
871.337	32.7027
871.388	30.371
871.438	35.4732
871.489	32.9225
871.539	34.9383
871.59	33.1777
871.64	36.5035
871.691	32.4724
871.741	28.7675
871.792	29.6417
871.842	33.4873
871.893	33.9902
871.943	31.5604
871.994	29.064
872.044	36.4643
872.095	31.3215
872.145	29.8357
872.196	29.5465
872.246	35.7791
872.297	30.9901
872.347	30.4427
872.397	32.5882
872.448	32.0163
872.498	30.0425
872.549	33.2896
872.599	28.8755
872.65	34.4945
872.7	29.3574
872.751	31.9441
872.801	31.2591
872.852	32.0392
872.902	30.7461
872.953	28.6054
873.003	33.3405
873.054	38.7955
873.104	35.673
873.155	31.2276
873.205	30.7549
873.256	33.2676
873.306	34.857
873.357	28.5433
873.407	32.0861
873.458	32.7562
873.508	35.4821
873.558	34.8952
873.609	33.2968
873.659	31.8099
873.71	32.1432
873.76	28.3101
873.811	30.5738
873.861	33.7655
873.912	32.6554
873.962	30.2747
874.013	30.4372
874.063	31.94
874.114	36.3062
874.164	29.6599
874.215	32.2768
874.265	28.946
874.315	34.5214
874.366	35.8446
874.416	32.2967
874.467	31.9578
874.517	31.5763
874.568	29.2921
874.618	31.6843
874.669	30.5322
874.719	31.3345
874.77	27.6521
874.82	35.8492
874.87	33.1571
874.921	31.6792
874.971	26.8195
875.022	33.8167
875.072	32.0906
875.123	34.21
875.173	31.1209
875.224	36.995
875.274	32.0826
875.324	34.3487
875.375	32.882
875.425	30.9823
875.476	30.0838
875.526	35.4799
875.577	30.2982
875.627	34.7762
875.678	34.198
875.728	33.2522
875.779	30.6983
875.829	32.0956
875.879	31.3258
875.93	32.9759
875.98	31.6322
876.031	35.8685
876.081	30.7239
876.132	36.9626
876.182	31.7209
876.232	29.4248
876.283	36.4851
876.333	34.0894
876.384	26.9313
876.434	33.2658
876.485	29.7377
876.535	32.9587
876.585	28.2442
876.636	36.9347
876.686	35.4815
876.737	36.5807
876.787	31.109
876.838	33.4183
876.888	32.7663
876.938	29.4481
876.989	23.9904
877.039	36.2891
877.09	29.2158
877.14	33.7067
877.191	29.7449
877.241	35.0512
877.291	31.7983
877.342	30.0817
877.392	30.6177
877.443	35.1427
877.493	32.1692
877.544	31.9258
877.594	31.4922
877.644	36.5575
877.695	31.2642
877.745	31.3
877.796	28.0536
877.846	34.7414
877.896	32.6041
877.947	29.7541
877.997	24.4641
878.048	29.0548
878.098	35.472
878.148	28.7639
878.199	29.7554
878.249	31.5912
878.3	32.5934
878.35	29.1988
878.4	29.8156
878.451	28.5872
878.501	31.9202
878.552	30.7769
878.602	31.9038
878.653	27.878
878.703	36.7539
878.753	28.5687
878.804	30.6537
878.854	30.7162
878.904	31.65
878.955	27.5577
879.005	35.093
879.056	32.3723
879.106	36.001
879.156	27.4737
879.207	32.1362
879.257	30.195
879.308	34.7429
879.358	25.3966
879.408	30.9256
879.459	32.9845
879.509	30.3828
879.56	24.5794
879.61	31.1923
879.66	29.8693
879.711	30.4519
879.761	31.4547
879.812	35.9386
879.862	30.2317
879.912	36.3761
879.963	27.0385
880.013	33.0893
880.063	31.3255
880.114	32.9249
880.164	28.2942
880.215	35.0349
880.265	27.1077
880.315	35.0617
880.366	26.0452
880.416	37.2371
880.467	26.9969
880.517	35.7891
880.567	31.028
880.618	37.6328
880.668	35.493
880.718	34.7486
880.769	31.861
880.819	33.4025
880.87	30.0536
880.92	32.7886
880.97	27.1269
881.021	33.6579
881.071	35.1693
881.121	34.6096
881.172	30.6411
881.222	32.4186
881.273	29.6332
881.323	31.8842
881.373	29.0002
881.424	31.9617
881.474	29.7001
881.524	30.4794
881.575	29.8094
881.625	29.482
881.675	29.8501
881.726	29.1676
881.776	29.0935
881.826	32.5314
881.877	30.5772
881.927	31.939
881.978	28.9065
882.028	29.3265
882.078	31.8737
882.129	31.1117
882.179	28.8291
882.229	31.7394
882.28	33.1619
882.33	30.0356
882.38	30.1569
882.431	28.2188
882.481	34.6161
882.531	31.98
882.582	31.0544
882.632	29.2283
882.682	32.6669
882.733	30.6077
882.783	30.4474
882.834	30.0733
882.884	32.8536
882.934	28.7217
882.985	31.4905
883.035	30.326
883.085	34.113
883.136	28.6545
883.186	28.8658
883.236	30.0462
883.287	30.3086
883.337	30.6001
883.387	32.9101
883.438	32.7225
883.488	34.5233
883.538	29.1473
883.589	30.7247
883.639	29.9121
883.689	31.3679
883.74	29.7867
883.79	30.6273
883.84	31.3409
883.891	32.4992
883.941	27.0858
883.991	29.8526
884.042	30.2859
884.092	32.1348
884.142	30.561
884.193	32.8985
884.243	31.2276
884.293	35.7218
884.344	27.8024
884.394	25.2128
884.444	30.151
884.495	30.6146
884.545	25.9983
884.595	30.1612
884.646	32.3115
884.696	31.3662
884.746	29.8425
884.797	32.1749
884.847	28.3909
884.897	28.0818
884.947	25.0362
884.998	29.0363
885.048	30.5314
885.098	30.6375
885.149	28.3214
885.199	31.726
885.249	33.3506
885.3	31.0953
885.35	27.6499
885.4	28.4306
885.451	32.1294
885.501	32.0432
885.551	27.3614
885.602	27.7689
885.652	31.1032
885.702	29.9247
885.752	26.3067
885.803	27.8524
885.853	29.6511
885.903	31.8647
885.954	30.1194
886.004	30.2823
886.054	28.9069
886.105	30.6526
886.155	30.1723
886.205	29.763
886.255	32.6628
886.306	31.6561
886.356	30.9214
886.406	30.4838
886.457	31.8789
886.507	33.9431
886.557	31.4745
886.608	28.9088
886.658	32.343
886.708	31.5956
886.758	32.8318
886.809	34.317
886.859	28.4919
886.909	29.2314
886.96	30.4535
887.01	31.1816
887.06	29.6196
887.11	31.8281
887.161	33.3562
887.211	32.5841
887.261	30.6109
887.312	28.586
887.362	32.6222
887.412	33.3315
887.462	32.4753
887.513	31.1393
887.563	27.4364
887.613	28.5928
887.664	27.7188
887.714	31.871
887.764	30.643
887.814	29.3619
887.865	29.4073
887.915	31.1834
887.965	28.096
887.987	28.9647
888.038	25.3841
888.088	30.9523
888.138	30.0415
888.189	31.6103
888.239	25.8731
888.289	30.4865
888.34	24.6489
888.39	29.9063
888.441	28.3919
888.491	26.688
888.542	27.3278
888.592	28.3542
888.642	27.5079
888.693	29.4464
888.743	26.1023
888.793	28.6899
888.844	28.8141
888.894	30.4914
888.945	29.8641
888.995	26.8738
889.045	32.5553
889.096	32.7855
889.146	26.8457
889.197	30.3201
889.247	29.9946
889.297	28.423
889.348	28.0208
889.398	33.1915
889.448	27.0207
889.499	29.115
889.549	28.7051
889.6	32.4461
889.65	31.822
889.7	26.1035
889.751	29.5503
889.801	31.0079
889.851	32.0026
889.902	27.9013
889.952	26.9464
890.003	31.8546
890.053	26.3253
890.103	26.9566
890.154	33.3742
890.204	32.7424
890.254	32.8452
890.305	30.687
890.355	28.237
890.406	27.8436
890.456	31.6868
890.506	31.272
890.557	29.2853
890.607	29.8151
890.657	33.987
890.708	28.0914
890.758	28.635
890.808	32.175
890.859	33.1911
890.909	28.9049
890.96	28.7289
891.01	29.687
891.06	28.9349
891.111	26.4974
891.161	28.5234
891.211	31.0246
891.262	31.9754
891.312	26.1835
891.362	29.4078
891.413	26.7318
891.463	27.0202
891.513	26.1425
891.564	34.0757
891.614	33.4584
891.665	31.1212
891.715	28.2582
891.765	29.3508
891.816	30.3122
891.866	29.8574
891.916	26.4203
891.967	33.5054
892.017	34.1244
892.067	28.7654
892.118	26.6677
892.168	34.1418
892.218	32.4122
892.269	30.008
892.319	24.2921
892.369	28.6295
892.42	27.6477
892.47	30.5167
892.52	29.897
892.571	34.7326
892.621	27.1385
892.671	26.4485
892.722	27.1702
892.772	30.8101
892.822	27.4555
892.873	28.7942
892.923	26.0602
892.973	31.6388
893.024	31.2914
893.074	28.5001
893.124	28.4995
893.175	34.7817
893.225	30.1495
893.275	27.9109
893.326	28.0837
893.376	30.1329
893.426	28.8162
893.477	26.3377
893.527	28.7615
893.577	29.2033
893.628	31.0593
893.678	29.7257
893.728	28.3583
893.779	27.6635
893.829	28.6425
893.879	29.4689
893.93	28.9995
893.98	27.1336
894.03	29.632
894.081	27.7289
894.131	28.7452
894.181	29.2951
894.232	29.2661
894.282	27.6513
894.332	28.7715
894.383	28.6295
894.433	28.2825
894.483	26.9919
894.533	29.5222
894.584	27.5779
894.634	29.0428
894.684	30.8642
894.735	27.1226
894.785	26.5279
894.835	27.3372
894.886	28.3749
894.936	33.7724
894.986	32.6981
895.037	28.1851
895.087	28.1688
895.137	32.1632
895.188	30.9668
895.238	28.5646
895.288	25.6461
895.338	30.055
895.389	30.1519
895.439	28.3478
895.489	26.4204
895.54	30.7273
895.59	30.5468
895.64	29.3512
895.69	25.1314
895.741	29.7372
895.791	27.1958
895.841	27.886
895.892	27.6291
895.942	32.5752
895.992	29.1049
896.043	28.2451
896.093	24.8986
896.143	33.5596
896.193	32.205
896.244	29.228
896.294	26.0395
896.344	24.2494
896.395	27.7455
896.445	27.8029
896.495	23.9163
896.545	27.4216
896.596	30.3503
896.646	27.8891
896.696	26.3845
896.747	29.3878
896.797	32.8249
896.847	29.4555
896.897	27.2935
896.948	32.4357
896.998	31.1212
897.048	27.6163
897.099	25.901
897.149	30.5006
897.199	32.9938
897.249	31.0768
897.3	28.9861
897.35	31.5703
897.4	31.358
897.451	29.1127
897.501	28.1764
897.551	26.0765
897.601	30.4631
897.652	29.7872
897.702	31.9222
897.752	30.6941
897.802	29.9399
897.853	29.8478
897.903	28.963
897.953	28.9238
898.003	27.8692
898.054	27.5746
898.104	31.2131
898.154	31.6554
898.204	25.3316
898.255	26.4334
898.305	30.9576
898.355	30.0105
898.406	30.2174
898.456	25.9185
898.506	29.4002
898.556	34.2182
898.607	27.5687
898.657	27.3916
898.707	24.6355
898.757	27.5923
898.808	32.7923
898.858	24.2123
898.908	29.3121
898.958	29.7654
899.009	27.4042
899.059	24.6414
899.109	28.5012
899.159	25.2144
899.21	31.1783
899.26	28.9098
899.31	31.0646
899.36	29.138
899.411	28.2221
899.461	27.6368
899.511	24.316
899.561	29.0049
899.612	26.906
899.662	27.2979
899.712	27.2022
899.762	28.1503
899.813	26.5337
899.863	22.0234
899.913	25.4633
899.963	30.6667
