#Acq. time (s)=	2
#Accumulations=	3
#Range (nm)=	520...900
#Windows=	24
#Auto scanning=	On
#Autofocus=	Off
#AutoExposure=	Off
#Spike filter=	Multiple accum.
#Delay time (s)=	0
#Binning=	1
#Readout mode=	Signal
#DeNoise=	Off
#ICS correction=	Off
#Dark correction=	Off
#Inst. Process=	Off
#Detector temperature (°C)=	-59.98
#Instrument=	LabRAM HR Evol
#Detector=	Syncerity OE
#Objective=	x50_VIS
#Grating=	600 (500nm)
#ND Filter=	10%
#Laser=	514nm_Edge
#Hole=	199.981
#Range=	Auto
#StageXY=	Marzhauser
#StageZ=	Marzhauser
#X (µm)=	-5866
#Y (µm)=	817.4
#Z (µm)=	-25.2
#Full time(mm:ss)=	3:03
#Project=	
#Sample=	
#Site=	
#Title=	M3_140224
#Remark=	
#Date=	19.02.2024 14:16
#Acquired=	19.02.2024 14:16:38
520.013	26.0636
520.065	28.0854
520.117	28.5043
520.17	27.8547
520.222	24.9984
520.274	31.6663
520.327	26.7211
520.379	21.2688
520.431	27.8197
520.483	26.0761
520.536	23.2673
520.588	20.7622
520.64	24.3955
520.693	31.0951
520.745	27.3286
520.797	25.7677
520.85	19.836
520.902	27.9674
520.954	26.5021
521.007	26.9075
521.059	27.327
521.111	28.1664
521.163	25.7156
521.216	23.5306
521.268	28.1475
521.32	23.0626
521.373	27.8696
521.425	26.4069
521.477	25.5649
521.529	29.2192
521.582	29.0405
521.634	25.7481
521.686	23.7095
521.739	22.6667
521.791	24.3086
521.843	25.0868
521.896	21.7542
521.948	28.2445
522	27.9457
522.052	26.8296
522.105	26.8866
522.157	28.885
522.209	26.9435
522.262	23.6094
522.314	27.6945
522.366	29.8531
522.418	23.9679
522.471	26.9355
522.523	24.2113
522.575	28.7282
522.628	25.7529
522.68	25.6888
522.732	27.1292
522.784	30.0466
522.837	27.4921
522.889	26.4282
522.941	26.2608
522.994	28.4232
523.046	27.8486
523.098	26.4515
523.15	26.9172
523.203	26.6749
523.255	26.8878
523.307	26.4505
523.36	26.6689
523.412	31.402
523.464	25.9301
523.516	25.2663
523.569	28.8956
523.621	31.7303
523.673	25.749
523.726	25.4482
523.778	30.7126
523.83	27.7801
523.882	27.8309
523.935	28.2356
523.987	27.15
524.039	29.0062
524.091	28.8522
524.144	23.0801
524.196	26.058
524.248	28.5343
524.301	28.3543
524.353	25.6503
524.405	30.2856
524.457	27.4451
524.51	23.7239
524.562	25.3671
524.614	34.4946
524.666	30.226
524.719	25.8483
524.771	27.655
524.823	24.5343
524.875	28.657
524.928	26.9627
524.98	26.8407
525.032	30.3682
525.085	30.4913
525.137	27.8374
525.189	21.6869
525.241	26.285
525.294	30.8332
525.346	27.8283
525.398	30.2062
525.45	27.5068
525.503	28.3636
525.555	24.786
525.607	24.095
525.659	27.1633
525.712	27.2212
525.764	27.0092
525.816	28.1826
525.868	29.8545
525.921	25.5274
525.973	24
526.025	27.0805
526.077	29.1918
526.13	25.5964
526.182	26.4931
526.234	26.7863
526.286	30.5072
526.339	25.0544
526.391	28.0495
526.443	27.1989
526.495	27.437
526.548	25.497
526.6	27.0168
526.652	27.9258
526.704	29.812
526.757	26.5476
526.809	25.8732
526.861	27.3333
526.913	28.8718
526.966	26.1382
527.018	27.7809
527.07	26.8225
527.122	30.7824
527.175	26.4096
527.227	24.7968
527.279	27.006
527.331	29.8512
527.384	27.6963
527.436	28.0313
527.488	29.6985
527.54	31.0741
527.593	24.8118
527.645	24.6612
527.697	28.2111
527.749	31.7492
527.802	26.1161
527.854	28.7832
527.906	23.16
527.958	28.3431
528.011	27.2611
528.063	27.2736
528.115	27.6746
528.167	29.9882
528.219	25.6317
528.272	29.8845
528.324	29.1492
528.376	27.4266
528.428	27.9067
528.481	27.0636
528.533	29.4891
528.585	30.396
528.637	25.6912
528.69	24.5973
528.742	21.4398
528.794	27.7838
528.846	24.4968
528.898	27.7745
528.951	26.625
529.003	27.3762
529.055	26.49
529.107	29.7087
529.16	26.5995
529.212	26.2397
529.264	26.7986
529.316	23.9898
529.369	29.5891
529.421	27.4426
529.473	27.0645
529.525	24.436
529.577	24.9993
529.63	26.0033
529.682	25.799
529.734	22.8577
529.786	27.3554
529.839	29.077
529.891	29.8495
529.943	25.2383
529.995	28.2951
530.047	28.1991
530.1	32.0538
530.152	28.8495
530.204	28.5424
530.256	26.6846
530.308	30.4319
530.361	27.3654
530.413	27.9611
530.465	32.0816
530.517	31.4936
530.57	27.1239
530.622	27.826
530.674	28.6972
530.726	25.7452
530.778	25.9015
530.831	28.8201
530.883	26.3863
530.935	27.1438
530.987	30.0799
531.039	30.3203
531.092	28.635
531.144	27.6663
531.196	24.7731
531.248	25.3019
531.3	26.5497
531.353	27.6044
531.405	26.0528
531.457	26.6163
531.509	30.1181
531.561	26.7866
531.614	24.962
531.666	27.6074
531.718	25.0829
531.77	31.1894
531.822	28.6056
531.875	27.8338
531.927	28.3963
531.979	28.9247
532.031	30.5929
532.083	30.9237
532.136	24.5619
532.188	29.4117
532.24	25.8277
532.292	31.139
532.344	28.5557
532.397	28.1599
532.449	27.569
532.501	31.5496
532.553	30.7087
532.605	30.3073
532.658	28.1162
532.71	26.6694
532.762	27.2538
532.814	28.1839
532.866	28.468
532.919	31.3681
532.971	27.5924
533.023	27.5657
533.075	27.5058
533.127	29.2262
533.179	30.6164
533.232	26.9396
533.284	26.4735
533.336	29.6413
533.388	30.5049
533.44	27.2401
533.493	29.7039
533.545	28.098
533.597	28.6624
533.649	26.689
533.701	30.6254
533.753	31.8878
533.806	29.9703
533.858	27.2316
533.91	24.3238
533.962	32.0206
534.014	28.2791
534.067	24.9265
534.119	26.6869
534.171	32.753
534.223	28.0598
534.275	32.4649
534.327	34.7511
534.38	30.5274
534.432	36.2748
534.484	31.98
534.536	31.9217
534.588	33.6241
534.641	34.0706
534.693	34.6929
534.745	30.5441
534.797	33.3957
534.849	33.0538
534.901	33.4826
534.953	36.5712
535.006	36.5414
535.058	35.291
535.11	30.0028
535.162	32.6044
535.214	30.4666
535.267	35.1762
535.319	32.7562
535.371	36.2545
535.423	31.319
535.475	32.9211
535.527	32.019
535.58	31.978
535.632	34.1407
535.684	36.7847
535.736	29.79
535.788	27.6235
535.84	32.2998
535.892	33.0051
535.945	25.3471
535.997	37.9904
536.049	29.7759
536.101	32.8481
536.153	28.5072
536.205	30.65
536.258	29.7353
536.31	26.6846
536.362	29.6364
536.414	34.009
536.466	27.6404
536.518	26.7245
536.57	21.5325
536.623	32.1758
536.675	28.2965
536.727	31.3337
536.779	30.5078
536.831	32.6162
536.883	31.1521
536.936	27.7924
536.988	29.123
537.04	29.2261
537.092	31.5178
537.144	29.5188
537.196	29.5457
537.248	33.6187
537.301	29.5513
537.353	29.9637
537.405	24.2719
537.457	29.6896
537.509	29.2771
537.561	32.0083
537.613	27.8994
537.666	32.4896
537.718	27.9065
537.77	27.8913
537.778	29.1901
537.831	25.7115
537.883	35.7665
537.935	32.1236
537.987	27.6456
538.04	31.1253
538.092	29.7082
538.144	27.5575
538.196	32.332
538.249	32.4834
538.301	31.0956
538.353	33.1383
538.405	26.8983
538.457	26.2959
538.51	30.9279
538.562	30.3515
538.614	26.1394
538.666	22.7305
538.719	32.1462
538.771	25.9764
538.823	27.1883
538.875	30.9865
538.927	30.0789
538.98	30.5618
539.032	27.853
539.084	30.8669
539.136	26.1234
539.189	30.0323
539.241	24.0821
539.293	24.4684
539.345	30.0226
539.397	26.8296
539.45	24.0015
539.502	33.2979
539.554	27.6711
539.606	34.3235
539.659	27.2194
539.711	26.9599
539.763	30.4076
539.815	31.3087
539.867	26.9005
539.92	33.6066
539.972	29.5678
540.024	31.326
540.076	28.6514
540.128	30.7538
540.181	28.1639
540.233	30.4939
540.285	30.8628
540.337	30.2919
540.39	27.0186
540.442	27.6495
540.494	26.3628
540.546	31.0345
540.598	28.9486
540.651	30.0975
540.703	32.1348
540.755	31.9711
540.807	29.3936
540.859	28.9898
540.912	25.5173
540.964	33.4062
541.016	34.1031
541.068	33.4304
541.12	29.7376
541.173	31.0404
541.225	24.7002
541.277	30.302
541.329	23.4704
541.381	32.7908
541.434	29.6295
541.486	30.9421
541.538	27.0956
541.59	31.262
541.642	27.5751
541.695	27.5359
541.747	26.9705
541.799	27.0572
541.851	32.995
541.903	29.8584
541.956	30.1299
542.008	31.6978
542.06	30.2496
542.112	30.0112
542.164	25.7131
542.217	31.2433
542.269	31.6444
542.321	30.8595
542.373	29.9236
542.425	30.7778
542.478	32.492
542.53	23.7984
542.582	30.5507
542.634	26.8194
542.686	31.7514
542.738	28.8194
542.791	28.5052
542.843	28.8997
542.895	33.5461
542.947	31.3865
542.999	32.7026
543.052	30.2487
543.104	33.1058
543.156	30.3206
543.208	33.0818
543.26	30.5564
543.313	35.5075
543.365	29.4213
543.417	32.687
543.469	26.7559
543.521	26.031
543.573	31.1525
543.626	28.7738
543.678	38.0337
543.73	31.6676
543.782	28.6662
543.834	27.8185
543.886	29.6391
543.939	29.6563
543.991	32.0503
544.043	30.7734
544.095	37.4934
544.147	33.0766
544.2	32.2787
544.252	32.866
544.304	29.3703
544.356	35.9356
544.408	31.564
544.46	30.7499
544.513	33.5538
544.565	33.6824
544.617	31.074
544.669	27.8886
544.721	27.9832
544.773	34.0584
544.826	27.0715
544.878	36.4553
544.93	29.873
544.982	28.4258
545.034	27.3681
545.086	33.9638
545.139	30.0944
545.191	30.3798
545.243	33.0793
545.295	30.8908
545.347	33.6562
545.399	32.0001
545.452	34.5109
545.504	33.4358
545.556	29.4914
545.608	29.7019
545.66	31.258
545.712	30.9304
545.765	32.2208
545.817	31.1114
545.869	33.1
545.921	34.4173
545.973	32.6667
546.025	31.0024
546.077	31.9765
546.13	32.0858
546.182	35.0148
546.234	30.2364
546.286	29.7817
546.338	33.387
546.39	32.4382
546.443	30.97
546.495	31.7134
546.547	33.4265
546.599	35.3023
546.651	35.8821
546.703	30.9701
546.755	30.9707
546.808	32.0301
546.86	32.8227
546.912	32.9794
546.964	28.6952
547.016	31.8184
547.068	29.6868
547.12	31.669
547.173	29.619
547.225	38.0353
547.277	34.4286
547.329	35.0776
547.381	31.6312
547.433	33.5143
547.485	33.2696
547.538	33.771
547.59	29.4043
547.642	35.1076
547.694	32.9407
547.746	32.3988
547.798	33.7969
547.85	32.3153
547.903	33.7208
547.955	36.8257
548.007	34.5163
548.059	34.093
548.111	30.6308
548.163	33.4893
548.215	35.7187
548.268	32.3768
548.32	33.9756
548.372	32.8592
548.424	36.408
548.476	34.0045
548.528	26.9324
548.58	36.5269
548.633	33.7395
548.685	31.8396
548.737	34.7115
548.789	31.5987
548.841	32.6971
548.893	31.907
548.945	32.7613
548.997	38.1661
549.049	32.6319
549.102	34.8998
549.154	34.4411
549.206	29.4478
549.258	31.7686
549.31	35.2702
549.362	32.7583
549.414	29.4832
549.467	33.4273
549.519	32.0864
549.571	35.6337
549.623	36.4973
549.675	39.7755
549.727	34.21
549.779	30.5298
549.831	34.8681
549.883	35.4727
549.936	38.9796
549.988	36.7291
550.04	31.2555
550.092	35.3149
550.144	34.6991
550.196	34.5453
550.248	37.6278
550.3	34.3714
550.353	34.2602
550.405	34.5131
550.457	32.6978
550.509	35.8927
550.561	36.0007
550.613	36.474
550.665	37.0356
550.717	38.7705
550.769	36.1269
550.822	37.5403
550.874	38.4899
550.926	40.7713
550.978	35.1798
551.03	37.8198
551.082	43.6228
551.134	46.0567
551.186	43.4559
551.238	46.6152
551.291	45.8709
551.343	48.4399
551.395	47.068
551.447	46.3646
551.499	48.7354
551.551	50.4711
551.603	49.8816
551.655	51.7741
551.707	52.2131
551.759	57.8381
551.812	62.8092
551.864	63.6491
551.916	66.7151
551.968	71.3372
552.02	74.6615
552.072	82.1285
552.124	83.5773
552.176	90.0691
552.228	111.583
552.28	132.335
552.332	172.25
552.385	272.817
552.437	529.473
552.489	1094.61
552.541	2020.97
552.593	3602.48
552.645	6483.2
552.697	8415.14
552.749	6135.02
552.801	3032.92
552.853	1190.25
552.905	483.33
552.958	257.019
553.01	177.545
553.062	136.466
553.114	105.667
553.166	94.0446
553.218	87.206
553.27	77.3433
553.322	68.6461
553.374	63.8705
553.426	55.8928
553.478	54.7471
553.531	48.9724
553.583	51.4317
553.635	55.1598
553.687	50.9634
553.739	44.9261
553.791	42.6004
553.843	43.8343
553.895	44.0966
553.947	43.1737
553.999	45.2076
554.051	46.4923
554.103	45.0881
554.155	42.176
554.208	38.9952
554.26	37.6648
554.312	39.4051
554.364	42.1312
554.416	38.9044
554.468	41.4096
554.52	40.2009
554.572	35.5581
554.624	38.1649
554.676	39.5487
554.728	37.7177
554.78	38.2245
554.832	38.328
554.884	39.0764
554.937	39.3563
554.989	39.5936
555.041	36.9643
555.093	38.2209
555.145	38.1374
555.197	39.487
555.249	39.8061
555.301	40.1821
555.353	39.7963
555.405	37.2508
555.457	39.5235
555.509	39.6596
555.529	38.1055
555.582	43.8717
555.634	40.0145
555.686	37.9394
555.738	32.2626
555.79	38.0168
555.842	38.938
555.895	38.0385
555.947	34.2478
555.999	40.9264
556.051	33.1067
556.103	39.9841
556.155	37.3637
556.207	39.8856
556.26	36.2056
556.312	40.8616
556.364	38.3592
556.416	41.7524
556.468	42.2924
556.52	37.2015
556.573	38.0323
556.625	42.4161
556.677	40.7046
556.729	38.2644
556.781	37.9905
556.833	39.7517
556.885	32.9519
556.938	34.8698
556.99	38.1418
557.042	39.7117
557.094	39.0909
557.146	45.0849
557.198	42.5936
557.25	39.8681
557.302	40.7071
557.355	41.594
557.407	39.3211
557.459	33.7082
557.511	38.9555
557.563	35.5073
557.615	40.8332
557.667	41.6512
557.72	39.7298
557.772	39.2746
557.824	43.3155
557.876	38.1256
557.928	38.9489
557.98	38.4199
558.032	43.3089
558.085	40.5586
558.137	43.1575
558.189	38.0031
558.241	42.5388
558.293	33.3207
558.345	37.4937
558.397	41.7123
558.449	40.0536
558.502	42.5094
558.554	40.8916
558.606	41.8768
558.658	41.3342
558.71	41.4412
558.762	39.8789
558.814	36.5589
558.866	39.7177
558.919	42.438
558.971	41.9918
559.023	35.1755
559.075	39.5194
559.127	38.5088
559.179	37.7762
559.231	43.5209
559.283	37.0712
559.336	40.8581
559.388	42.7765
559.44	38.7136
559.492	39.2981
559.544	42.1226
559.596	39.8388
559.648	41.8417
559.7	42.1307
559.753	40.3156
559.805	44.4699
559.857	39.4812
559.909	43.5262
559.961	39.3824
560.013	40.0739
560.065	42.9185
560.117	42.1745
560.169	35.8656
560.222	42.6183
560.274	39.3255
560.326	42.4736
560.378	36.5128
560.43	33.1177
560.482	38.904
560.534	39.9609
560.586	36.9663
560.638	42.5163
560.69	36.5733
560.743	45.3566
560.795	45.765
560.847	40.9046
560.899	34.5379
560.951	40.6124
561.003	43.2805
561.055	45.3433
561.107	44.0788
561.159	43.2285
561.212	43.6162
561.264	45.7278
561.316	45.4558
561.368	40.9001
561.42	41.9547
561.472	42.9982
561.524	41.1507
561.576	42.4953
561.628	38.9231
561.68	46.3551
561.733	46.9576
561.785	45.7134
561.837	44.5696
561.889	45.5366
561.941	44.1599
561.993	44.43
562.045	43.954
562.097	48.1725
562.149	47.9149
562.201	42.3949
562.253	44.5914
562.306	45.6336
562.358	43.1667
562.41	41.5978
562.462	45.7625
562.514	44.1074
562.566	47.0923
562.618	41.606
562.67	43.4981
562.722	43.9014
562.774	43.4605
562.826	46.9302
562.879	46.5455
562.931	44.1618
562.983	43.1893
563.035	45.646
563.087	41.9233
563.139	46.0345
563.191	44.4092
563.243	46.1607
563.295	45.8199
563.347	45.6219
563.399	47.9572
563.451	42.9376
563.504	42.6828
563.556	47.1048
563.608	45.2363
563.66	44.6305
563.712	44.8723
563.764	41.864
563.816	39.5528
563.868	42.9999
563.92	43.9842
563.972	46.8126
564.024	49.3165
564.076	45.2627
564.128	48.1096
564.181	47.8905
564.233	46.9929
564.285	48.8251
564.337	47.1217
564.389	49.1814
564.441	47.6315
564.493	46.5661
564.545	48.7189
564.597	53.2433
564.649	49.6131
564.701	44.1931
564.753	45.0394
564.805	44.3055
564.857	49.0545
564.909	48.7
564.962	46.0128
565.014	44.7561
565.066	46.749
565.118	45.2802
565.17	45.53
565.222	44.515
565.274	45.3192
565.326	48.9746
565.378	46.3576
565.43	48.732
565.482	46.8609
565.534	46.8772
565.586	50.683
565.638	49.3481
565.69	44.8028
565.742	47.7555
565.795	49.8877
565.847	48.1616
565.899	45.988
565.951	44.1183
566.003	49.5462
566.055	49.9792
566.107	47.5665
566.159	48.431
566.211	50.0154
566.263	49.0782
566.315	46.6968
566.367	49.2065
566.419	52.7891
566.471	52.9525
566.523	49.5977
566.575	48.1666
566.627	49.7517
566.679	50.7532
566.732	51.3616
566.784	50.873
566.836	47.8741
566.888	54.1948
566.94	52.1715
566.992	45.9565
567.044	51.0682
567.096	49.2318
567.148	48.1447
567.2	53.2021
567.252	50.1922
567.304	53.0603
567.356	52.6605
567.408	51.6591
567.46	54.7861
567.512	52.9445
567.564	50.0906
567.616	52.7126
567.668	49.5395
567.72	48.4343
567.772	50.3279
567.824	54.499
567.876	55.7619
567.928	55.6684
567.98	51.522
568.033	53.4385
568.085	55.3752
568.137	49.6667
568.189	51.6062
568.241	53.4884
568.293	49.2931
568.345	50.6197
568.397	54.6202
568.449	58.2625
568.501	56.5424
568.553	55.354
568.605	50.7693
568.657	51.6469
568.709	55.1192
568.761	59.5422
568.813	57.8969
568.865	55.49
568.917	54.0986
568.969	55.2393
569.021	56.1079
569.073	53.0043
569.125	57.2616
569.177	59.6002
569.229	56.0959
569.281	52.4222
569.333	51.6314
569.385	55.1002
569.437	61.6782
569.489	62.5077
569.541	61.9487
569.593	57.1273
569.645	59.146
569.697	58.3
569.749	59.5334
569.801	61.4989
569.853	60.5341
569.905	60.9687
569.957	66.8083
570.009	66.1716
570.061	64.3399
570.113	65.8912
570.165	62.6776
570.217	62.3791
570.269	69.6218
570.321	67.6237
570.374	65.9497
570.426	60.8598
570.478	64.9412
570.53	64.2488
570.582	62.524
570.634	63.0672
570.686	65.4384
570.738	66.6938
570.79	66.0624
570.842	62.3313
570.894	63.7139
570.946	64.4714
570.998	62.5022
571.05	64.4392
571.102	64.2694
571.154	62.7396
571.206	60.5087
571.258	62.6995
571.31	66.3464
571.362	65.5491
571.414	66.5224
571.466	66.6919
571.518	66.9445
571.57	64.0682
571.622	65.0083
571.674	66.4246
571.726	67.5921
571.778	67.5124
571.83	63.2092
571.882	66.0687
571.934	70.5432
571.986	69.8781
572.038	67.708
572.09	69.5312
572.142	71.0178
572.194	73.8347
572.246	71.3369
572.298	71.0115
572.349	75.5351
572.401	70.8074
572.453	70.4277
572.505	68.6747
572.557	69.6707
572.609	75.118
572.661	72.2099
572.713	73.2634
572.765	82.2434
572.817	72.0784
572.869	75.437
572.921	81.7997
572.973	81.1538
573.025	76.214
573.077	76.2649
573.129	74.6288
573.181	79.5005
573.212	79.5348
573.264	80.0934
573.316	79.2912
573.368	87.1059
573.421	87.8229
573.473	83.864
573.525	76.6452
573.577	84.7605
573.629	90.4325
573.681	84.5099
573.733	90.3086
573.785	91.9878
573.837	91.3935
573.889	86.8739
573.941	92.7197
573.993	101.209
574.045	98.5047
574.097	87.956
574.15	96.9877
574.202	103.146
574.254	98.2317
574.306	103.168
574.358	103.746
574.41	110.498
574.462	103.243
574.514	103.143
574.566	107.666
574.618	107.204
574.67	113.931
574.722	114.781
574.774	106.113
574.826	111.41
574.878	113.255
574.931	115.916
574.983	109.034
575.035	117.505
575.087	115.824
575.139	117.239
575.191	111.695
575.243	119.542
575.295	114.671
575.347	115.678
575.399	109.675
575.451	121.971
575.503	121.929
575.555	111.597
575.607	117.729
575.659	112.335
575.711	119.024
575.763	117.816
575.815	114.941
575.868	111.797
575.92	111.127
575.972	114.758
576.024	107.517
576.076	116.3
576.128	107.123
576.18	98.6695
576.232	107.623
576.284	114.06
576.336	115.21
576.388	118.673
576.44	112.03
576.492	113.81
576.544	113.047
576.596	108.329
576.648	113.493
576.7	109.299
576.752	106.189
576.804	107.021
576.856	106.273
576.909	102.264
576.961	108.483
577.013	103.429
577.065	101.021
577.117	102.159
577.169	106.139
577.221	97.3936
577.273	97.7493
577.325	99.1499
577.377	98.565
577.429	91.5047
577.481	100.973
577.533	98.581
577.585	96.0061
577.637	89.9922
577.689	93.73
577.741	96.2585
577.793	95.2418
577.845	87.5171
577.897	89.7769
577.949	94.8529
578.001	88.941
578.053	89.6585
578.105	90.8379
578.157	91.5501
578.209	89.386
578.261	82.3272
578.313	83.2007
578.365	95.0495
578.417	86.8901
578.469	87.3712
578.522	94.9998
578.574	94.2154
578.626	93.8057
578.678	87.743
578.73	93.1219
578.782	87.1176
578.834	90.0593
578.886	89.8749
578.938	90.1945
578.99	89.9301
579.042	88.1101
579.094	90.5535
579.146	90.4103
579.198	88.5878
579.25	88.4426
579.302	92.6236
579.354	91.6505
579.406	85.1082
579.458	87.0842
579.51	90.5627
579.562	89.7309
579.614	92.4355
579.666	92.0926
579.718	93.1998
579.77	98.3767
579.822	93.4141
579.874	91.6928
579.926	91.7248
579.978	91.4729
580.03	99.1066
580.082	92.3356
580.134	96.8713
580.186	97.0202
580.238	93.6543
580.29	98.5349
580.342	94.7386
580.394	86.4516
580.446	88.1721
580.498	87.9906
580.55	89.0605
580.602	91.0307
580.654	89.1312
580.706	90.3358
580.758	94.0455
580.81	94.9073
580.862	94.3451
580.914	93.3546
580.966	94.8375
581.018	94.1284
581.07	94.7826
581.122	95.5066
581.174	96.9307
581.226	94.2071
581.278	97.6257
581.33	92.1654
581.382	90.0793
581.434	87.8728
581.486	98.095
581.538	94.8548
581.59	95.2964
581.642	95.7691
581.694	93.6218
581.746	93.7273
581.798	103.318
581.85	98.6945
581.902	92.3356
581.954	98.1268
582.006	100.442
582.058	94.5256
582.11	97.5756
582.162	101.099
582.214	101.374
582.266	97.4204
582.318	97.9742
582.37	98.0801
582.422	103.878
582.474	105.641
582.526	103.187
582.578	101.54
582.63	102.818
582.682	103.655
582.734	102.389
582.786	105.568
582.838	105.722
582.89	99.1197
582.942	101.788
582.994	106.905
583.046	106.745
583.098	108.193
583.15	106.023
583.202	105.397
583.254	111.296
583.306	108.431
583.358	104.383
583.41	105.872
583.462	108.66
583.514	107.508
583.566	109.223
583.618	106.079
583.67	108.676
583.721	112.164
583.773	112.208
583.825	114.977
583.877	114.057
583.929	111.273
583.981	105.754
584.033	110.128
584.085	112.768
584.137	112.274
584.189	109.493
584.241	109.742
584.293	109.602
584.345	114.375
584.397	113.794
584.449	115.184
584.501	116.931
584.553	112.947
584.605	111.325
584.657	116.538
584.709	118.529
584.761	120.149
584.813	118.855
584.865	119.031
584.917	122.959
584.969	123.733
585.021	124.03
585.073	119.9
585.125	119.709
585.177	122.954
585.229	120.009
585.281	120.749
585.332	120.838
585.384	123.627
585.436	122.467
585.488	120.327
585.54	124.694
585.592	124.032
585.644	120.237
585.696	128.404
585.748	118.725
585.8	112.936
585.852	118.86
585.904	122.826
585.956	125.263
586.008	123.313
586.06	114.935
586.112	121.425
586.164	121.711
586.216	119.351
586.268	122.796
586.32	128.234
586.371	119.555
586.423	128.409
586.475	125.73
586.527	128.104
586.579	131.685
586.631	127.324
586.683	123.244
586.735	127.609
586.787	125.163
586.839	128.352
586.891	126.078
586.943	128.227
586.995	132.189
587.047	133.726
587.099	134.034
587.151	135.605
587.203	131.14
587.255	131.584
587.306	130.852
587.358	131.588
587.41	132.861
587.462	132.346
587.514	128.545
587.566	128.4
587.618	137.082
587.67	132.189
587.722	131.903
587.774	132.755
587.826	132.984
587.878	130.501
587.93	135.903
587.982	134.643
588.034	122.944
588.085	128.727
588.137	127.108
588.189	132.904
588.241	135.319
588.293	137.472
588.345	139.202
588.397	140.247
588.449	140.68
588.501	129.228
588.553	133.637
588.605	131.387
588.657	131.905
588.709	135.631
588.76	136.859
588.812	138.757
588.864	135.703
588.916	144.408
588.968	141.974
589.02	140.921
589.072	153.788
589.124	144.799
589.176	146.503
589.228	154.032
589.28	153.244
589.332	152.557
589.383	147.445
589.435	149.894
589.487	143.349
589.539	140.575
589.591	143.848
589.643	146.038
589.695	144.661
589.747	138.795
589.799	146.554
589.851	147.939
589.903	154.699
589.955	139.835
590.006	146.926
590.058	145.59
590.11	143.83
590.162	141.285
590.214	145.155
590.266	145.64
590.318	135.144
590.37	136.391
590.422	134.705
590.474	144.007
590.525	139.984
590.577	140.258
590.629	145.123
590.681	141.919
590.733	149.093
590.785	140.294
590.837	142.477
590.889	143.057
590.932	133.086
590.984	143.031
591.036	142.91
591.088	138.068
591.14	140.038
591.192	135.037
591.244	134.851
591.296	133.769
591.348	127.828
591.4	134.803
591.452	137.615
591.504	137.696
591.556	129.251
591.608	130.979
591.66	137.199
591.712	137.758
591.764	132.088
591.816	130.787
591.868	129.441
591.92	122.823
591.972	133.016
592.024	132.672
592.076	123.609
592.128	129.928
592.18	121.879
592.232	135.145
592.284	133.207
592.336	121.513
592.388	131.568
592.44	124.228
592.492	126.026
592.544	134.141
592.596	130.111
592.648	123.191
592.7	135.698
592.752	125.196
592.804	125.942
592.856	127.245
592.908	126.915
592.96	132.04
593.012	122.667
593.064	130.884
593.116	129.276
593.168	127.67
593.22	125.024
593.272	125.075
593.324	123.058
593.376	139.115
593.428	131.354
593.479	130.95
593.531	129.835
593.583	127.401
593.635	135.804
593.687	126.336
593.739	137.154
593.791	134.838
593.843	121.239
593.895	128.346
593.947	127.786
593.999	131.936
594.051	128.574
594.103	134.603
594.155	121.986
594.207	134.81
594.259	129.925
594.311	131.801
594.363	130.736
594.415	133.647
594.467	130.936
594.519	128.081
594.571	126.275
594.623	129.563
594.675	127.911
594.727	123.975
594.779	129.39
594.831	133.769
594.883	142.609
594.935	131.685
594.986	130.182
595.038	131.103
595.09	129.368
595.142	130.9
595.194	143.788
595.246	140.954
595.298	132.335
595.35	138.918
595.402	133.616
595.454	134.62
595.506	138.508
595.558	133.251
595.61	141.102
595.662	133.222
595.714	138.482
595.766	137.24
595.818	139.736
595.87	141.275
595.922	141.713
595.974	135.688
596.026	147.99
596.077	141.64
596.129	143.505
596.181	138.135
596.233	143.838
596.285	147.276
596.337	145.921
596.389	141.358
596.441	144.88
596.493	137.932
596.545	142.971
596.597	148.126
596.649	154.702
596.701	155.154
596.753	158.641
596.805	148.142
596.857	154.997
596.909	146.571
596.96	148.593
597.012	140.061
597.064	139.112
597.116	136.183
597.168	144.697
597.22	137.428
597.272	142.692
597.324	142.228
597.376	133.804
597.428	142.284
597.48	137.122
597.532	136.32
597.584	132.623
597.636	132.795
597.688	142.546
597.739	139.019
597.791	135.953
597.843	140.238
597.895	138.209
597.947	136.573
597.999	137.435
598.051	131.744
598.103	130.86
598.155	134.977
598.207	131.126
598.259	139.478
598.311	139.623
598.363	146.793
598.414	137.993
598.466	127.672
598.518	130.732
598.57	137.213
598.622	138.036
598.674	142.348
598.726	130.686
598.778	133.962
598.83	131.982
598.882	136.452
598.934	133.823
598.986	130.054
599.037	133.725
599.089	139.741
599.141	131.89
599.193	132.127
599.245	133.528
599.297	128.317
599.349	138.12
599.401	134.697
599.453	132.141
599.505	133.089
599.557	128.033
599.609	125.03
599.66	130.295
599.712	136.079
599.764	135.308
599.816	135.013
599.868	127.893
599.92	131.332
599.972	135.379
600.024	134.327
600.076	131.669
600.128	132.678
600.18	134.044
600.231	131.526
600.283	131.909
600.335	137.432
600.387	137.968
600.439	134.433
600.491	137.35
600.543	137.159
600.595	134.931
600.647	127.062
600.699	131.356
600.75	135.814
600.802	138.339
600.854	135.324
600.906	137.337
600.958	136.872
601.01	135.447
601.062	132.941
601.114	133.858
601.166	135.921
601.217	135.678
601.269	133.796
601.321	130.385
601.373	123.96
601.425	125.899
601.477	134.177
601.529	129.888
601.581	134.685
601.633	129.816
601.685	126.028
601.736	135.414
601.788	130.209
601.84	134.918
601.892	134.586
601.944	138.032
601.996	135.419
602.048	140.367
602.1	134.602
602.151	131.39
602.203	132.795
602.255	135.141
602.307	134.523
602.359	139.836
602.411	133.667
602.463	132.069
602.515	136.427
602.567	139.264
602.618	134.12
602.67	136.905
602.722	136.93
602.774	136.305
602.826	136.852
602.878	136.018
602.93	136.731
602.982	137.528
603.033	140.863
603.085	139.941
603.137	132.535
603.189	138.608
603.241	137.425
603.293	140.895
603.345	138.739
603.396	140.803
603.448	142.553
603.5	140.988
603.552	141.182
603.604	140.256
603.656	140.901
603.708	140.386
603.76	140.276
603.811	143.199
603.863	140.07
603.915	141.646
603.967	138.88
604.019	135.475
604.071	145.78
604.123	145.214
604.174	143.214
604.226	136.622
604.278	142.079
604.33	136.653
604.382	144.197
604.434	151.345
604.486	142.511
604.538	144.88
604.589	140.415
604.641	140.943
604.693	134.229
604.745	137.237
604.797	137.874
604.849	143.448
604.901	142.081
604.952	138.661
605.004	143.295
605.056	139.47
605.108	146.592
605.16	136.493
605.212	134.687
605.263	141.494
605.315	137.916
605.367	147.982
605.419	145.159
605.471	138.81
605.523	148.383
605.575	141.653
605.626	132.138
605.678	136.893
605.73	141.208
605.782	141.703
605.834	140.335
605.886	142.295
605.938	139.308
605.989	129.374
606.041	133.36
606.093	141.053
606.145	146.077
606.197	138.548
606.249	142.515
606.3	140.855
606.352	142.4
606.404	139.826
606.456	141.367
606.508	144.553
606.56	141.549
606.611	145.88
606.663	145.828
606.715	146.885
606.767	138.701
606.819	141.946
606.871	143.473
606.922	140.286
606.974	144.464
607.026	141.155
607.078	141.858
607.13	144.934
607.182	141.206
607.233	145.751
607.285	142.108
607.337	138.205
607.389	140.547
607.441	133.979
607.493	136.82
607.544	141.866
607.596	144.083
607.648	139.185
607.7	141.783
607.752	143.3
607.803	147.078
607.855	140.285
607.907	137.646
607.959	138.992
608.011	144.595
608.063	145.895
608.114	136.759
608.166	139.656
608.218	139.048
608.27	146.334
608.322	141.337
608.374	145.303
608.425	145.778
608.477	140.006
608.529	141.396
608.56	146.202
608.612	149.417
608.664	146.028
608.716	149.457
608.768	140.285
608.82	151.498
608.872	151.762
608.924	143.762
608.976	152.696
609.027	153.363
609.079	141.68
609.131	141.059
609.183	143.685
609.235	151.652
609.287	143.433
609.339	147.934
609.391	146.607
609.443	152.657
609.495	145.898
609.547	143.799
609.598	149.384
609.65	151.638
609.702	152.247
609.754	150.395
609.806	144.696
609.858	153.661
609.91	153.516
609.962	152.744
610.014	143.56
610.065	148.811
610.117	142.035
610.169	148.156
610.221	151.59
610.273	146.724
610.325	142.695
610.377	148.706
610.429	143.951
610.481	158.564
610.533	154.273
610.584	152.812
610.636	147.024
610.688	154.24
610.74	147.018
610.792	153.269
610.844	151.685
610.896	158.516
610.948	151.787
611	149.509
611.052	143.35
611.103	158.931
611.155	148.533
611.207	149.895
611.259	147.738
611.311	146.608
611.363	146.817
611.415	153.453
611.467	152.701
611.518	144.847
611.57	150.873
611.622	154.199
611.674	153.484
611.726	151.263
611.778	152.603
611.83	155.594
611.882	157.101
611.934	160.777
611.985	151.592
612.037	149.719
612.089	155.894
612.141	145.718
612.193	150.547
612.245	151.778
612.297	149.775
612.349	151.587
612.4	157.565
612.452	162.838
612.504	154.433
612.556	149.32
612.608	155.548
612.66	159.209
612.712	153.284
612.764	152.917
612.815	148.312
612.867	156.97
612.919	156.074
612.971	154.866
613.023	162.452
613.075	160.966
613.127	161.672
613.179	158.475
613.23	151.393
613.282	158.227
613.334	152.521
613.386	156.132
613.438	164.138
613.49	157.33
613.542	156.872
613.594	162.435
613.645	159.654
613.697	164.044
613.749	156.096
613.801	153.027
613.853	161.58
613.905	158.068
613.957	168.018
614.008	159.942
614.06	165.168
614.112	161.042
614.164	164.232
614.216	157.619
614.268	170.281
614.32	161.517
614.371	164.43
614.423	154.206
614.475	159.744
614.527	167.405
614.579	167.759
614.631	158.379
614.683	159.806
614.734	153.471
614.786	168.045
614.838	159.326
614.89	159.138
614.942	165.146
614.994	163.351
615.045	157.123
615.097	161.484
615.149	169.445
615.201	174.974
615.253	162.166
615.305	158.131
615.357	168.33
615.408	165.31
615.46	158.838
615.512	163.994
615.564	177.302
615.616	178.124
615.668	169.315
615.719	166.968
615.771	165.236
615.823	163.75
615.875	168.987
615.927	169.031
615.979	169.828
616.031	168.584
616.082	160.293
616.134	170.812
616.186	178.177
616.238	166.829
616.29	163.779
616.342	163.768
616.393	163.245
616.445	174.664
616.497	176.297
616.549	169.183
616.601	174.481
616.653	160.566
616.704	167.625
616.756	168.085
616.808	174.204
616.86	168.472
616.912	175.619
616.964	170.099
617.015	171.417
617.067	165.97
617.119	171.594
617.171	174.074
617.223	166.193
617.274	168.598
617.326	173.943
617.378	182.52
617.43	174.598
617.482	181.369
617.534	173.211
617.585	168.074
617.637	167.671
617.689	179.606
617.741	177.478
617.793	169.038
617.845	175.764
617.896	168.223
617.948	168.769
618	174.729
618.052	179.485
618.104	181.332
618.155	173.841
618.207	174.311
618.259	173.995
618.311	178.692
618.363	177.315
618.415	180.563
618.466	177.477
618.518	174.592
618.57	178.3
618.622	167.824
618.674	183.573
618.725	183.199
618.777	183.901
618.829	181.572
618.881	181.142
618.933	174.133
618.984	180.947
619.036	184.738
619.088	181.733
619.14	177.761
619.192	178.246
619.244	178.353
619.295	173.231
619.347	174.952
619.399	179.503
619.451	180.675
619.503	184.71
619.554	182.076
619.606	183.725
619.658	183.262
619.71	178.948
619.762	182.468
619.813	176.24
619.865	185.784
619.917	183.685
619.969	184.144
620.021	182.488
620.072	185.902
620.124	178.206
620.176	188.176
620.228	181.707
620.279	188.252
620.331	177.287
620.383	182.644
620.435	183.424
620.487	188.201
620.538	181.22
620.59	183.348
620.642	192.137
620.694	193.811
620.746	190.711
620.797	191.403
620.849	178.846
620.901	180.298
620.953	184.234
621.005	178.748
621.056	190.093
621.108	185.76
621.16	182.711
621.212	187.585
621.263	174.833
621.315	188.828
621.367	189.841
621.419	186.546
621.471	189.238
621.522	188.382
621.574	184.134
621.626	185.508
621.678	183.053
621.729	187.15
621.781	187.393
621.833	187.432
621.885	188.031
621.937	184.752
621.988	187.614
622.04	187.543
622.092	184.198
622.144	181.994
622.195	187.011
622.247	188.203
622.299	179.492
622.351	181.619
622.403	187.223
622.454	180.609
622.506	183.813
622.558	186.354
622.61	185.491
622.661	184.166
622.713	178.921
622.765	188.492
622.817	179.535
622.869	183.328
622.92	191.493
622.972	185.719
623.024	187.724
623.076	179.675
623.127	179.114
623.179	185.448
623.231	184.708
623.283	188.984
623.334	196.23
623.386	183.458
623.438	190.359
623.49	183.439
623.541	180.701
623.593	179.933
623.645	182.627
623.697	182.409
623.748	185.004
623.8	184.017
623.852	182.184
623.904	182.01
623.956	188.797
624.007	191.231
624.059	186.823
624.111	185.818
624.162	191.901
624.214	196.02
624.266	193.703
624.318	192.027
624.37	189.439
624.421	183.642
624.473	187.592
624.525	188.349
624.576	189.96
624.628	189.662
624.68	185.569
624.732	187.229
624.784	195.378
624.835	198.192
624.887	198.887
624.939	186.268
624.99	194.572
625.042	193.269
625.094	193.738
625.146	193.54
625.197	188.248
625.249	189.564
625.301	190.137
625.353	193.413
625.404	193.905
625.456	191.811
625.508	196.298
625.56	187.738
625.611	197.898
625.663	196.036
625.715	195.456
625.767	198.919
625.818	185.062
625.87	186.969
625.922	194.069
625.974	192.159
626.025	200.244
626.077	197.095
626.129	198.639
626.18	191.532
626.197	190.543
626.249	193.997
626.3	189.56
626.352	195.997
626.404	193.982
626.456	202.916
626.508	185.774
626.56	190.539
626.611	192.475
626.663	189.927
626.715	190.207
626.767	187.264
626.819	195.319
626.87	196.036
626.922	190.826
626.974	187.485
627.026	199.546
627.078	202.172
627.13	188.258
627.181	187.231
627.233	192.788
627.285	194.745
627.337	201.435
627.389	201.192
627.44	193.669
627.492	198.911
627.544	194.488
627.596	185.064
627.648	203.742
627.7	196.025
627.751	196.113
627.803	192.482
627.855	192.812
627.907	193.67
627.959	193.709
628.01	201.438
628.062	205.143
628.114	203.77
628.166	194.57
628.218	191.715
628.27	203.741
628.321	203.764
628.373	195.68
628.425	197.791
628.477	197.713
628.529	203.913
628.58	212.729
628.632	194.764
628.684	196.141
628.736	193.461
628.788	205.093
628.839	199.419
628.891	207.881
628.943	203.57
628.995	198.356
629.047	200.234
629.098	197.124
629.15	206.275
629.202	206.248
629.254	204.886
629.306	209.981
629.357	203.484
629.409	201.421
629.461	199.479
629.513	204.408
629.565	203.644
629.616	205.827
629.668	205.265
629.72	208.671
629.772	202.783
629.824	198.022
629.875	201.084
629.927	208.31
629.979	200.694
630.031	209.007
630.083	201.11
630.134	202.87
630.186	204.419
630.238	209.162
630.29	201.997
630.342	202.192
630.393	202.815
630.445	208.619
630.497	204.098
630.549	209.601
630.6	203.254
630.652	205.067
630.704	201.522
630.756	211.788
630.808	202.069
630.859	205.377
630.911	207.834
630.963	209.182
631.015	203.662
631.067	207.62
631.118	208.577
631.17	207.306
631.222	208.533
631.274	214.709
631.325	213.154
631.377	209.767
631.429	212.946
631.481	215.773
631.533	206.865
631.584	211.489
631.636	216.714
631.688	206.953
631.74	204.851
631.791	210.016
631.843	209.678
631.895	202.869
631.947	212.394
631.999	209.823
632.05	210.208
632.102	213.134
632.154	223.259
632.206	206.873
632.257	211.079
632.309	212.919
632.361	215.048
632.413	213.461
632.464	213.312
632.516	211.906
632.568	222.085
632.62	215.922
632.672	210.714
632.723	211.931
632.775	212.385
632.827	212.601
632.879	222.172
632.93	219.531
632.982	224.527
633.034	217.463
633.086	221.416
633.137	228.813
633.189	228.158
633.241	219.02
633.293	219.091
633.344	214.469
633.396	222.961
633.448	215.748
633.5	222.774
633.551	220.497
633.603	223.983
633.655	221.86
633.707	225.685
633.758	213.922
633.81	211.957
633.862	217.816
633.914	234.105
633.965	219.582
634.017	222.244
634.069	219.457
634.121	220.3
634.172	224.039
634.224	228.545
634.276	229.022
634.328	227.81
634.379	228.236
634.431	226.894
634.483	231.187
634.535	228.873
634.586	228.579
634.638	233.998
634.69	230.103
634.742	230.17
634.793	231.419
634.845	234.823
634.897	229.453
634.949	223.492
635	228.965
635.052	232.268
635.104	228.386
635.156	242.959
635.207	242.81
635.259	251.471
635.311	241.109
635.363	240.077
635.414	240.777
635.466	249.305
635.518	245.89
635.57	248.638
635.621	234.357
635.673	251.506
635.725	252.215
635.776	251.492
635.828	255.689
635.88	251.572
635.932	251.017
635.983	252.182
636.035	250.343
636.087	255.913
636.139	260.843
636.19	259.094
636.242	271.973
636.294	269.115
636.345	269.966
636.397	273.228
636.449	267.882
636.501	273.63
636.552	280.081
636.604	282.313
636.656	278.091
636.708	267.317
636.759	283.593
636.811	291.657
636.863	278.346
636.914	291.181
636.966	289.956
637.018	280.931
637.07	301.298
637.121	301.559
637.173	302.401
637.225	294.48
637.276	306.596
637.328	290.37
637.38	298.167
637.432	306.063
637.483	315.855
637.535	310.14
637.587	309.817
637.638	294.111
637.69	307.019
637.742	306.558
637.794	301.461
637.845	315.968
637.897	308.082
637.949	305.582
638	307.316
638.052	309.567
638.104	304.887
638.156	298.897
638.207	300.068
638.259	299.467
638.311	304.365
638.362	302.659
638.414	296.401
638.466	296.039
638.517	301.175
638.569	290.428
638.621	295.288
638.673	287.668
638.724	293.291
638.776	294.285
638.828	292.833
638.879	293.311
638.931	286.667
638.983	287.647
639.034	272.092
639.086	287.248
639.138	288.296
639.19	287.284
639.241	286.024
639.293	281.788
639.345	281.49
639.396	284.637
639.448	279.281
639.5	268.036
639.551	273.676
639.603	276.741
639.655	278.63
639.706	275.823
639.758	280.393
639.81	280.963
639.862	272.066
639.913	266.995
639.965	270.353
640.017	264.188
640.068	268.847
640.12	265.035
640.172	270.68
640.223	270.631
640.275	270.326
640.327	267.286
640.378	274.453
640.43	272.647
640.482	275.609
640.533	268.504
640.585	257.978
640.637	263.409
640.688	270.71
640.74	267.47
640.792	265.577
640.844	259.864
640.895	267.992
640.947	254.647
640.999	264.752
641.05	257.239
641.102	268.645
641.154	258.816
641.205	269.965
641.257	258.344
641.309	269.76
641.36	267.573
641.412	265.973
641.464	263.59
641.515	261.098
641.567	265.083
641.619	264.044
641.67	266.492
641.722	259.232
641.774	249.467
641.825	269.465
641.877	260.674
641.929	261.35
641.98	262.865
642.032	265.304
642.084	262.899
642.135	270.497
642.187	266.322
642.239	269.002
642.29	262.017
642.342	259.482
642.394	252.936
642.445	261.025
642.497	254.192
642.549	244.45
642.6	263.67
642.652	265.863
642.704	260.195
642.755	259.978
642.807	268.913
642.859	269.194
642.91	262.804
642.962	258.024
643.013	270.259
643.065	258.767
643.117	259.447
643.168	265.902
643.22	257.913
643.272	260.87
643.323	258.513
643.375	265.81
643.427	262.049
643.478	272.102
643.53	256.345
643.582	259.846
643.633	275.575
643.685	253.012
643.737	248.517
643.788	272.974
643.84	263.076
643.891	268.517
643.898	269.004
643.949	277.623
644.001	275.845
644.053	265.985
644.105	266.334
644.156	272.636
644.208	266.975
644.26	275.473
644.312	281.826
644.363	271.582
644.415	257.392
644.467	271.397
644.519	279.855
644.57	272.866
644.622	265.931
644.674	272.191
644.726	275.073
644.777	273.174
644.829	263.854
644.881	265.669
644.932	274.269
644.984	267.679
645.036	268.406
645.088	268.95
645.139	266.698
645.191	262.681
645.243	272.032
645.295	278.33
645.346	270.405
645.398	278.155
645.45	267.367
645.502	270.448
645.553	269.932
645.605	278.505
645.657	274.265
645.708	270.856
645.76	267.899
645.812	273.103
645.864	267.393
645.915	268.601
645.967	274.268
646.019	268.659
646.071	275.486
646.122	270.807
646.174	280.714
646.226	273.403
646.277	281.508
646.329	276.357
646.381	271.203
646.433	274.061
646.484	266.445
646.536	283.109
646.588	273.911
646.639	276.004
646.691	275.279
646.743	278.128
646.795	279.889
646.846	272.118
646.898	267.135
646.95	269.834
647.001	279.675
647.053	282.894
647.105	277.556
647.157	278.798
647.208	269.254
647.26	281.704
647.312	274.566
647.363	275.172
647.415	282.499
647.467	278.435
647.519	277.162
647.57	275.278
647.622	282.863
647.674	281.116
647.725	281.005
647.777	289.524
647.829	280.784
647.881	277.206
647.932	276.917
647.984	279.364
648.036	297.667
648.087	276.382
648.139	289.109
648.191	275.682
648.242	280.749
648.294	271.939
648.346	285.457
648.398	274.832
648.449	280.612
648.501	275.871
648.553	279.005
648.604	280.185
648.656	285.96
648.708	281.765
648.759	289.437
648.811	290.053
648.863	291.095
648.914	282.503
648.966	288.491
649.018	294.581
649.07	288.513
649.121	301.648
649.173	287.853
649.225	282.151
649.276	292.477
649.328	278.536
649.38	286.905
649.431	285.862
649.483	286.305
649.535	283.441
649.586	286.017
649.638	288.055
649.69	291.247
649.742	291.435
649.793	289.329
649.845	297.354
649.897	294.292
649.948	292.973
650	296.983
650.052	292.451
650.103	289.652
650.155	286.901
650.207	300.701
650.258	296.859
650.31	291.889
650.362	300.983
650.413	300.578
650.465	294.295
650.517	310.396
650.568	284.678
650.62	297.392
650.672	300.372
650.723	294.143
650.775	296.112
650.827	300.28
650.878	281.162
650.93	307.337
650.982	292.748
651.034	294.146
651.085	291.162
651.137	301.905
651.189	296.459
651.24	288.508
651.292	297.869
651.344	298.461
651.395	317.923
651.447	293.382
651.499	302.782
651.55	296.607
651.602	297.969
651.654	308.133
651.705	299.884
651.757	300.45
651.809	311.16
651.86	307.297
651.912	296.575
651.964	290.572
652.015	310.565
652.067	299.129
652.118	304.563
652.17	304.507
652.222	309.798
652.273	320.992
652.325	302.744
652.377	301.877
652.428	313.889
652.48	302.85
652.532	301.231
652.583	305.194
652.635	311.465
652.687	305.152
652.738	311.712
652.79	310.068
652.842	312.523
652.893	314.655
652.945	314.702
652.997	313.387
653.048	315.677
653.1	302.837
653.152	323.219
653.203	310.09
653.255	313.796
653.307	307.466
653.358	306.933
653.41	300.723
653.461	317.522
653.513	305.226
653.565	311.446
653.616	311.602
653.668	319.359
653.72	324.935
653.771	315.876
653.823	325.422
653.875	324.694
653.926	319.711
653.978	327.924
654.029	320.912
654.081	318.394
654.133	314.814
654.184	316.688
654.236	320.242
654.288	315.473
654.339	322.077
654.391	327.446
654.443	328.033
654.494	321.759
654.546	315.357
654.597	324.232
654.649	327.487
654.701	331.005
654.752	315.611
654.804	323.933
654.856	327.922
654.907	329.879
654.959	338.157
655.01	328.306
655.062	338.83
655.114	337.136
655.165	332.276
655.217	318.425
655.269	320.283
655.32	314.861
655.372	335.474
655.424	338.838
655.475	342.566
655.527	336.806
655.578	337.435
655.63	341.729
655.682	332.59
655.733	335.269
655.785	336.799
655.836	338.57
655.888	352.25
655.94	350.625
655.991	341.771
656.043	338.99
656.095	344.373
656.146	338.93
656.198	342.742
656.249	344.141
656.301	344.747
656.353	353.869
656.404	337.773
656.456	341.083
656.508	351.814
656.559	351.862
656.611	353.968
656.662	359.523
656.714	352.906
656.766	345.907
656.817	351.414
656.869	352.502
656.92	357.882
656.972	358.675
657.024	359.797
657.075	357.44
657.127	352.259
657.178	351.625
657.23	356.79
657.282	359.527
657.333	339.134
657.385	350.588
657.436	357.388
657.488	352.202
657.54	359.767
657.591	345.333
657.643	345.342
657.694	360.064
657.746	363.401
657.798	358.951
657.849	357.836
657.901	356.32
657.952	365.466
658.004	363.641
658.056	356.26
658.107	368.006
658.159	367.241
658.21	351.133
658.262	348.845
658.314	357.352
658.365	357.11
658.417	368.187
658.468	367.733
658.52	369.657
658.571	366.33
658.623	368.34
658.675	366.795
658.726	354.223
658.778	351.366
658.829	364.37
658.881	354.409
658.933	362.299
658.984	364.238
659.036	370.845
659.087	359.109
659.139	376.463
659.19	363.054
659.242	368.304
659.294	372.441
659.345	367.484
659.397	362.741
659.448	361.232
659.5	367.331
659.552	370.211
659.603	372.236
659.655	365.714
659.706	360.052
659.758	369.362
659.809	367.493
659.861	360.757
659.913	360.35
659.964	369.67
660.016	365.03
660.067	372.255
660.119	372.48
660.17	362.891
660.222	362.591
660.274	349.461
660.325	365.467
660.377	356.926
660.428	364.661
660.48	366.333
660.531	365.925
660.583	357.24
660.635	370.557
660.686	364.821
660.738	356.813
660.789	363.205
660.841	368.825
660.892	355.157
660.944	367.165
660.995	370.405
661.047	365.24
661.099	359.054
661.15	357.933
661.202	366.127
661.253	371.73
661.305	363.319
661.356	362.04
661.408	352.192
661.46	358.245
661.511	366.624
661.532	364.325
661.583	362.567
661.635	375.184
661.687	375.525
661.738	370.65
661.79	358.528
661.842	354.734
661.893	359.77
661.945	363.306
661.997	365.722
662.048	359.474
662.1	364.077
662.151	362.04
662.203	348.938
662.255	363.518
662.306	363.281
662.358	367.004
662.41	362.285
662.461	364.35
662.513	371.294
662.565	351.201
662.616	367.495
662.668	361.318
662.72	365.738
662.771	352.996
662.823	359.951
662.875	356.135
662.926	367.831
662.978	362.817
663.03	373.214
663.081	354.419
663.133	353.092
663.184	362.465
663.236	360.931
663.288	361.007
663.339	369.742
663.391	368.386
663.443	366.906
663.494	358.749
663.546	354.995
663.598	364.831
663.649	371.485
663.701	362.097
663.752	357.813
663.804	373.547
663.856	364.693
663.907	354.693
663.959	363.051
664.011	359.06
664.062	371.233
664.114	365.49
664.166	371.648
664.217	361.437
664.269	361.539
664.32	369.821
664.372	358.368
664.424	369.975
664.475	373.876
664.527	368.599
664.579	358.243
664.63	360.367
664.682	353.492
664.733	368.66
664.785	374.919
664.837	368.331
664.888	373.484
664.94	374.284
664.992	364.577
665.043	373.696
665.095	358.163
665.146	367.884
665.198	366.911
665.25	361.09
665.301	362.71
665.353	369.072
665.405	368.195
665.456	375.213
665.508	360.07
665.559	363.799
665.611	355.044
665.663	348.949
665.714	356.255
665.766	363.794
665.817	360.236
665.869	356.149
665.921	364.454
665.972	373.935
666.024	372.941
666.076	366.586
666.127	354.845
666.179	364.992
666.23	357.402
666.282	360.874
666.334	366.512
666.385	358.277
666.437	368.841
666.488	376.42
666.54	362.58
666.592	360.476
666.643	359.806
666.695	366.458
666.746	355.948
666.798	361.514
666.85	361.896
666.901	370.344
666.953	352.332
667.004	350.329
667.056	358.324
667.108	364.315
667.159	361.29
667.211	378.939
667.262	364.548
667.314	362.821
667.366	359.494
667.417	362.988
667.469	369.254
667.52	367.949
667.572	366.793
667.624	372.519
667.675	355.284
667.727	356.034
667.778	355.069
667.83	357.624
667.882	357.378
667.933	353.723
667.985	357.107
668.036	374.473
668.088	357.401
668.14	356.531
668.191	357.153
668.243	362.377
668.294	362.645
668.346	357.859
668.397	363.831
668.449	359.203
668.501	358.723
668.552	359.502
668.604	372.452
668.655	363.398
668.707	359.633
668.759	351.468
668.81	362.498
668.862	356.484
668.913	357.514
668.965	363.959
669.016	370.655
669.068	358.143
669.12	360.738
669.171	360.308
669.223	373.708
669.274	369.445
669.326	365.707
669.377	360.457
669.429	368.519
669.481	352.755
669.532	364.337
669.584	363.518
669.635	360.039
669.687	356.348
669.738	360.621
669.79	366.467
669.842	360.322
669.893	362.927
669.945	363.371
669.996	364.95
670.048	354.967
670.099	360.133
670.151	351.214
670.203	350.536
670.254	375.843
670.306	358.719
670.357	357.597
670.409	363.207
670.46	367.515
670.512	364.821
670.564	359.216
670.615	354.733
670.667	358.748
670.718	358.491
670.77	348.198
670.821	361.535
670.873	364.19
670.924	362.371
670.976	363.81
671.028	360.347
671.079	361.058
671.131	370.546
671.182	368.372
671.234	362.082
671.285	355.582
671.337	372.358
671.388	380.108
671.44	359.595
671.492	367.653
671.543	356.316
671.595	361.838
671.646	365.598
671.698	367.084
671.749	347.681
671.801	363.782
671.852	361.485
671.904	362.296
671.956	354.979
672.007	358.204
672.059	360.81
672.11	365.687
672.162	370.149
672.213	368.184
672.265	370.311
672.316	367.494
672.368	359.269
672.419	356.173
672.471	364.351
672.522	371.003
672.574	358.175
672.626	367.439
672.677	365.683
672.729	368.579
672.78	356.002
672.832	376.189
672.883	376.417
672.935	361.481
672.986	354.705
673.038	370.786
673.089	364.323
673.141	372.959
673.192	367.106
673.244	363.454
673.296	369.258
673.347	360.289
673.399	369.221
673.45	368.31
673.502	363.145
673.553	363.202
673.605	373.277
673.656	369.061
673.708	382.221
673.759	378.246
673.811	375.81
673.862	373.213
673.914	388.552
673.965	372.514
674.017	380.439
674.068	367.74
674.12	370.075
674.171	372.335
674.223	375.532
674.275	368.791
674.326	370.588
674.378	369.047
674.429	385.186
674.481	376.494
674.532	371.79
674.584	363.641
674.635	379.447
674.687	368.699
674.738	372.832
674.79	372.933
674.841	379.533
674.893	377.856
674.944	384.826
674.996	372.619
675.047	381.226
675.099	383.226
675.15	370.23
675.202	377.637
675.253	387.63
675.305	387.038
675.356	382.624
675.408	380.84
675.459	383.502
675.511	380.942
675.562	373.028
675.614	376.089
675.665	378.233
675.717	382.505
675.768	378.579
675.82	373.837
675.871	383.129
675.923	388.993
675.974	396.641
676.026	379.587
676.077	377.293
676.129	376.055
676.18	378.262
676.232	378.999
676.283	375.52
676.335	380.887
676.386	383.266
676.438	383.574
676.489	376.092
676.541	379.346
676.592	385.218
676.644	382.85
676.695	383.651
676.747	392.714
676.798	385.6
676.85	382.274
676.901	380.039
676.953	382.954
677.004	385.343
677.056	373.937
677.107	385.985
677.159	388.902
677.21	381.794
677.262	385.507
677.313	385.599
677.365	391.392
677.416	395.303
677.468	386.686
677.519	392.243
677.571	392.624
677.622	381.907
677.674	391.67
677.725	381.814
677.777	389.719
677.828	376.145
677.88	382.737
677.931	395.642
677.982	389.397
678.034	392.947
678.085	384.098
678.137	376.248
678.188	376.872
678.24	383.638
678.291	385.656
678.343	375.963
678.394	390.838
678.446	385.952
678.497	381.035
678.549	387.043
678.6	388.354
678.652	377.151
678.703	388.436
678.755	386.97
678.806	389.35
678.857	381.198
678.909	373.919
678.96	378.084
679.012	379.22
679.063	373.729
679.083	378.285
679.135	386.169
679.186	389.266
679.238	384.566
679.289	384.361
679.341	387.072
679.392	383.478
679.444	378.224
679.496	372.325
679.547	381.943
679.599	388.712
679.65	388.95
679.702	378.047
679.753	389.503
679.805	386.405
679.857	397.107
679.908	395.839
679.96	383.935
680.011	381.996
680.063	372.206
680.114	368.121
680.166	387.26
680.217	386.36
680.269	395.968
680.321	384.2
680.372	389.152
680.424	386.447
680.475	380.662
680.527	390.55
680.578	383.861
680.63	378.618
680.682	393.829
680.733	381.085
680.785	381.294
680.836	386.198
680.888	381.024
680.939	380.279
680.991	396.094
681.042	394.775
681.094	389.262
681.146	382.211
681.197	395.677
681.249	387.021
681.3	388.426
681.352	389.977
681.403	393.796
681.455	399.143
681.506	380.156
681.558	386.85
681.609	389.684
681.661	398.982
681.712	379.343
681.764	396.096
681.816	384.468
681.867	394.413
681.919	394.921
681.97	398.858
682.022	406.533
682.073	398.313
682.125	387.259
682.176	391.026
682.228	394.869
682.279	395.631
682.331	390.897
682.383	390.324
682.434	395.408
682.486	390.317
682.537	373.846
682.589	390.276
682.64	394.883
682.692	387.416
682.743	387.189
682.795	388.138
682.846	389.772
682.898	394.03
682.949	399.64
683.001	393.508
683.052	381.484
683.104	384.737
683.156	391.658
683.207	388.97
683.259	402.276
683.31	386.961
683.362	384.346
683.413	409.263
683.465	387.069
683.516	403.562
683.568	389.112
683.619	382.892
683.671	400.88
683.722	407.662
683.774	389.734
683.825	396.577
683.877	411.237
683.928	385.431
683.98	387.688
684.031	383.81
684.083	392.253
684.134	385.293
684.186	400.498
684.237	396.697
684.289	396.736
684.341	394.439
684.392	383.216
684.444	393.386
684.495	396.6
684.547	389.455
684.598	397.958
684.65	386.413
684.701	390.383
684.753	375.992
684.804	382.574
684.856	389.122
684.907	404.033
684.959	388.51
685.01	390.082
685.062	388.254
685.113	392.367
685.165	379.516
685.216	370.958
685.268	398.931
685.319	406.458
685.371	383.484
685.422	393.103
685.474	396.121
685.525	395.132
685.577	396.165
685.628	381.06
685.68	384.031
685.731	394.258
685.783	386.212
685.834	388.835
685.886	391.396
685.937	388.476
685.989	374.416
686.04	370.242
686.092	382.215
686.143	400.397
686.195	394.507
686.246	375.368
686.298	384.291
686.349	385.951
686.401	383.618
686.452	392.85
686.504	383.815
686.555	394.632
686.607	386.369
686.658	374.762
686.71	393.956
686.761	376.607
686.813	380.028
686.864	394.421
686.916	394.643
686.967	388.161
687.018	385.523
687.07	387.843
687.121	380.335
687.173	378.865
687.224	377.956
687.276	379.499
687.327	382.682
687.379	389.103
687.43	385.792
687.482	379.442
687.533	384.722
687.585	389.28
687.636	382.724
687.688	388.974
687.739	384.559
687.791	390.002
687.842	375.174
687.894	385.09
687.945	385.898
687.997	389.937
688.048	383.71
688.1	385.737
688.151	373.586
688.203	378.353
688.254	381.549
688.305	382.633
688.357	388.74
688.408	378.26
688.46	386.362
688.511	380.763
688.563	380.545
688.614	383.824
688.666	379.33
688.717	378.422
688.769	384.396
688.82	382.998
688.872	382.264
688.923	388.349
688.974	377.134
689.026	384.349
689.077	383.86
689.129	379.054
689.18	386.501
689.232	388.122
689.283	374.122
689.335	385.16
689.386	375.376
689.438	378.205
689.489	384.217
689.541	378.437
689.592	388.657
689.643	380.181
689.695	379.494
689.746	383.861
689.798	376.653
689.849	376.846
689.901	371.488
689.952	379.584
690.004	384.031
690.055	384.62
690.107	368.073
690.158	368.65
690.209	380.787
690.261	376.627
690.312	373.467
690.364	375.473
690.415	382.462
690.467	380.093
690.518	373.666
690.57	376.804
690.621	376.037
690.672	373.026
690.724	370.786
690.775	397.224
690.827	385.814
690.878	367.028
690.93	375.263
690.981	370.365
691.033	368.28
691.084	378.89
691.135	377.902
691.187	381.733
691.238	373.387
691.29	385.581
691.341	372.607
691.393	365.398
691.444	368.178
691.495	378.2
691.547	375.126
691.598	366.727
691.65	372.589
691.701	372.205
691.753	373.206
691.804	375.313
691.856	373.15
691.907	369.144
691.958	381.742
692.01	371.168
692.061	374.57
692.113	374.283
692.164	372.421
692.216	372.348
692.267	372.387
692.318	363.125
692.37	367.76
692.421	375.315
692.473	376.633
692.524	380.871
692.576	371.514
692.627	378.703
692.678	374.7
692.73	364.691
692.781	366.376
692.833	371.128
692.884	365.845
692.935	371.204
692.987	368.541
693.038	366.568
693.09	377.089
693.141	367.751
693.193	364.004
693.244	370.817
693.295	367.316
693.347	368.075
693.398	365.931
693.45	357.261
693.501	365.88
693.552	357.444
693.604	362.901
693.655	364.266
693.707	366.246
693.758	370.257
693.809	359.954
693.861	358.858
693.912	371.322
693.964	372.283
694.015	373.838
694.066	357.479
694.118	363.67
694.169	358.988
694.221	371.05
694.272	371.652
694.323	362.62
694.375	358.148
694.426	366.845
694.478	375.795
694.529	371.133
694.581	367.625
694.632	370.671
694.683	371.137
694.735	365.727
694.786	348.28
694.837	351.702
694.889	372.136
694.94	364.998
694.992	364.216
695.043	371.783
695.094	366.638
695.146	359.424
695.197	358.73
695.249	364.829
695.3	364.959
695.351	357.294
695.403	351.734
695.454	357.166
695.506	363.055
695.557	364.782
695.608	365.021
695.66	365.556
695.711	365.13
695.763	357.275
695.814	349.998
695.865	354.93
695.917	362.848
695.968	359.833
696.019	357.681
696.071	367.712
696.122	368.156
696.174	359.862
696.225	364.68
696.276	360.92
696.328	359.986
696.379	358.316
696.43	343.878
696.482	351.599
696.533	361.567
696.585	355.667
696.636	352.556
696.687	357.19
696.707	359.129
696.759	371.814
696.81	358.705
696.862	351.202
696.913	342.221
696.965	348.91
697.016	354.266
697.068	360.236
697.119	355.647
697.171	356.175
697.222	352.279
697.274	364.794
697.325	351.586
697.377	358.107
697.428	358.655
697.479	355.79
697.531	348.252
697.582	357.48
697.634	345.535
697.685	351.788
697.737	344.569
697.788	347.281
697.84	350.547
697.891	356.122
697.943	339.333
697.994	333.08
698.046	343.236
698.097	351.147
698.149	343.555
698.2	340.383
698.252	340.081
698.303	349.79
698.354	348.21
698.406	352.928
698.457	349.755
698.509	340.382
698.56	340.589
698.612	349.513
698.663	342.147
698.715	347.133
698.766	340.547
698.818	356.201
698.869	338.799
698.921	339.197
698.972	343.608
699.023	352.336
699.075	347.608
699.126	335.06
699.178	351.655
699.229	352.311
699.281	344.696
699.332	343.451
699.384	351.579
699.435	348.31
699.487	345.433
699.538	349.577
699.589	342.795
699.641	343.744
699.692	342.178
699.744	344.888
699.795	347.758
699.847	346.467
699.898	346.971
699.95	346.954
700.001	349.625
700.052	338.319
700.104	342.535
700.155	350.46
700.207	351.471
700.258	338.009
700.31	342.98
700.361	338.827
700.413	335.024
700.464	349.56
700.515	343.153
700.567	337.187
700.618	334.501
700.67	333.967
700.721	349.721
700.773	343.954
700.824	340.747
700.875	337.561
700.927	334.607
700.978	339.449
701.03	336.639
701.081	330.409
701.133	339.629
701.184	347.167
701.235	339.97
701.287	332.988
701.338	339.629
701.39	332.843
701.441	340.967
701.493	336.521
701.544	344.399
701.596	341.104
701.647	343.514
701.698	340.013
701.75	342.046
701.801	352.756
701.853	349.667
701.904	338.249
701.956	335.404
702.007	339.854
702.058	350.911
702.11	329.016
702.161	327.217
702.213	332.626
702.264	336.734
702.315	341.055
702.367	340.792
702.418	343.645
702.47	350.716
702.521	340.192
702.573	333.98
702.624	344.59
702.675	337.08
702.727	339.149
702.778	337.157
702.83	345.864
702.881	348.522
702.932	336.764
702.984	340.857
703.035	342.736
703.087	341.856
703.138	338.823
703.19	344.203
703.241	339.879
703.292	337.934
703.344	343.997
703.395	339.993
703.447	337.308
703.498	342.012
703.549	344.432
703.601	342.862
703.652	344.989
703.704	338.642
703.755	332.479
703.806	348.368
703.858	333.126
703.909	327.488
703.961	332.324
704.012	339.737
704.063	343.269
704.115	336.662
704.166	349.955
704.218	340.668
704.269	342.437
704.32	334.828
704.372	335.147
704.423	330.186
704.475	337.662
704.526	341.931
704.577	334.487
704.629	346.768
704.68	345.542
704.732	332.692
704.783	326.558
704.834	331.556
704.886	336.993
704.937	344.798
704.988	326.255
705.04	334.844
705.091	329.498
705.143	328.297
705.194	328.403
705.245	335.823
705.297	332.058
705.348	334.982
705.4	343.57
705.451	339.266
705.502	323.958
705.554	318.349
705.605	339.077
705.656	334.016
705.708	337.601
705.759	333.345
705.811	330.782
705.862	333.242
705.913	332.358
705.965	334.182
706.016	335.81
706.068	329.892
706.119	323.626
706.17	336.462
706.222	333.216
706.273	326.216
706.324	325.452
706.376	327.418
706.427	336.154
706.479	330.248
706.53	329.498
706.581	332.218
706.633	328.715
706.684	329.239
706.735	326.817
706.787	331.449
706.838	323.984
706.889	321.493
706.941	327.131
706.992	325.524
707.044	337.042
707.095	332.553
707.146	329.108
707.198	327.941
707.249	323.398
707.3	322.943
707.352	322.28
707.403	314.834
707.454	326.706
707.506	329.298
707.557	321.018
707.609	319.404
707.66	323.666
707.711	323.871
707.763	324.035
707.814	318.446
707.865	332.344
707.917	323.392
707.968	325.816
708.019	312.388
708.071	312.509
708.122	316.244
708.173	326.607
708.225	319.378
708.276	311.507
708.328	303.935
708.379	318.743
708.43	318.428
708.482	316.837
708.533	322.46
708.584	311.954
708.636	316.896
708.687	312.182
708.738	311.786
708.79	301.462
708.841	315.9
708.892	308.109
708.944	319.913
708.995	318.46
709.046	314.163
709.098	317
709.149	318.154
709.2	322.839
709.252	317.496
709.303	321.357
709.354	318.963
709.406	307.062
709.457	318.987
709.508	324.94
709.56	313.195
709.611	322.463
709.662	319.813
709.714	303.268
709.765	310.935
709.816	305.04
709.868	306.726
709.919	314.154
709.97	323
710.022	310.826
710.073	323.667
710.124	320.466
710.176	323.334
710.227	325.587
710.278	305.796
710.33	308.822
710.381	311.916
710.432	318.34
710.484	307.417
710.535	322.934
710.586	319.562
710.638	304.127
710.689	300.158
710.74	316.927
710.792	303.484
710.843	314.316
710.894	301.593
710.946	307.544
710.997	312.719
711.048	313.716
711.1	300.347
711.151	297.376
711.202	314.258
711.254	302.373
711.305	314.487
711.356	310.921
711.407	307.376
711.459	314.297
711.51	304.137
711.561	315.577
711.613	307.838
711.664	309.359
711.715	303.487
711.767	315.313
711.818	303.431
711.869	306.587
711.921	297.622
711.972	306.933
712.023	301.398
712.075	302.29
712.126	294.989
712.177	302.125
712.228	299.9
712.28	311.211
712.331	290.729
712.382	304.681
712.434	314.414
712.485	299.217
712.536	307.102
712.588	304.885
712.639	301.636
712.69	307.177
712.741	297.819
712.793	304.971
712.844	306.896
712.895	298.219
712.947	298.894
712.998	305.244
713.049	303.295
713.101	298.533
713.152	300.794
713.203	286.196
713.254	290.092
713.306	294.572
713.357	303.562
713.408	312.418
713.46	299.897
713.511	290.897
713.562	294.484
713.613	297.236
713.665	298.063
713.716	291.128
713.767	298.9
713.819	294.247
713.87	298.399
713.921	296.811
713.972	301.151
714.024	296.315
714.075	297.085
714.126	288.074
714.178	297.597
714.18	297.79
714.231	297.667
714.283	290.173
714.334	304.544
714.385	291.058
714.437	292.734
714.488	295.437
714.539	294.439
714.591	296.208
714.642	302.836
714.694	299.71
714.745	288.064
714.796	292.643
714.848	300.467
714.899	293.721
714.951	277.555
715.002	290.77
715.053	284.891
715.105	289.293
715.156	284.472
715.207	289.026
715.259	302.103
715.31	290.233
715.362	280.825
715.413	295.156
715.464	280.433
715.516	285.236
715.567	286.152
715.618	293.688
715.67	292.275
715.721	285.518
715.773	281.523
715.824	285.723
715.875	290.253
715.927	283.874
715.978	279.993
716.029	285.021
716.081	280.541
716.132	296.975
716.184	283.059
716.235	279.212
716.286	279.125
716.338	287.261
716.389	278.23
716.44	289.635
716.492	287.741
716.543	286.288
716.594	284.69
716.646	287.907
716.697	291.292
716.749	286.99
716.8	278.494
716.851	273.696
716.903	279.388
716.954	278.51
717.005	281.569
717.057	284.701
717.108	277.684
717.159	286.362
717.211	284.621
717.262	287.369
717.314	291.31
717.365	286.268
717.416	270.49
717.468	277.195
717.519	288.434
717.57	285.498
717.622	287.413
717.673	281.536
717.724	289.429
717.776	288.224
717.827	278.107
717.878	271.165
717.93	274.553
717.981	278.919
718.032	282.956
718.084	287.083
718.135	270.285
718.187	270.598
718.238	286.985
718.289	288.374
718.341	286.482
718.392	284.976
718.443	288.584
718.495	284.711
718.546	284.226
718.597	271.832
718.649	279.04
718.7	281.434
718.751	271.328
718.803	274.776
718.854	274.781
718.905	279.066
718.957	273.264
719.008	278.186
719.059	279.45
719.111	278.662
719.162	278.575
719.213	277.879
719.265	272.498
719.316	276.513
719.367	279.075
719.419	273.478
719.47	273.843
719.521	271.924
719.573	281.102
719.624	277.152
719.675	275.863
719.727	262.483
719.778	275.016
719.829	276.77
719.881	271.724
719.932	268.717
719.983	270.838
720.035	272.514
720.086	269.364
720.137	275.156
720.189	278.603
720.24	267.484
720.291	269.26
720.343	271.045
720.394	273.422
720.445	260.44
720.496	263.966
720.548	270.915
720.599	264.373
720.65	261.932
720.702	270.197
720.753	268.567
720.804	269.477
720.856	270.782
720.907	268.693
720.958	264.577
721.01	270.995
721.061	268.641
721.112	264.391
721.164	269.037
721.215	269.254
721.266	267.641
721.318	265.079
721.369	271.231
721.42	264.528
721.471	275.336
721.523	265.261
721.574	266.985
721.625	270.166
721.677	263.583
721.728	266.006
721.779	267.566
721.831	266.638
721.882	260.404
721.933	263.323
721.984	264.271
722.036	259.949
722.087	262.333
722.138	259.891
722.19	262.296
722.241	262.01
722.292	252.391
722.344	259.766
722.395	258.157
722.446	257.748
722.497	259.79
722.549	264.087
722.6	269.979
722.651	260.02
722.703	259.063
722.754	260.135
722.805	261.536
722.857	270.361
722.908	264.634
722.959	259.671
723.01	265.732
723.062	261.413
723.113	267.227
723.164	270.79
723.216	257.645
723.267	263.587
723.318	261.853
723.369	262.958
723.421	262.644
723.472	253.622
723.523	251.448
723.575	255.409
723.626	260.901
723.677	260.835
723.728	250.848
723.78	256.016
723.831	262.857
723.882	263.98
723.934	266.613
723.985	262.578
724.036	263.168
724.087	253.496
724.139	258.96
724.19	256.193
724.241	254.196
724.292	257.103
724.344	251.932
724.395	254.839
724.446	252.054
724.498	249.377
724.549	262.342
724.6	255.522
724.651	254.669
724.703	256.117
724.754	251.983
724.805	249.009
724.856	251.017
724.908	262.288
724.959	259.494
725.01	261.655
725.062	254.749
725.113	252.672
725.164	261.045
725.215	247.834
725.267	254.347
725.318	250.248
725.369	258.25
725.42	252.031
725.472	258.999
725.523	251.946
725.574	252.625
725.625	246.033
725.677	245.481
725.728	252.812
725.779	249.766
725.83	262.044
725.882	250.335
725.933	252.694
725.984	247.22
726.036	246.659
726.087	237.378
726.138	258.489
726.189	242.83
726.241	252.183
726.292	249.639
726.343	254.11
726.394	246.062
726.445	261.225
726.497	247.699
726.548	248.142
726.599	257.813
726.651	256.719
726.702	243.876
726.753	255.686
726.804	253.046
726.855	254.105
726.907	245.012
726.958	254.073
727.009	256.643
727.06	258.219
727.112	257.569
727.163	247.997
727.214	251.859
727.265	254.598
727.317	246.917
727.368	246.253
727.419	247.887
727.47	244.164
727.522	252.596
727.573	252.147
727.624	251.711
727.675	246.976
727.727	252.934
727.778	257.638
727.829	257.834
727.88	246.729
727.932	251.83
727.983	252.142
728.034	249.782
728.085	247.549
728.136	249.898
728.188	252.038
728.239	245.686
728.29	256.064
728.341	240.667
728.393	244.555
728.444	241.725
728.495	247.997
728.546	231.47
728.597	243.196
728.649	243.241
728.7	241.479
728.751	246.235
728.802	250.612
728.854	251.982
728.905	243.351
728.956	251.466
729.007	259.076
729.058	245.188
729.11	254.494
729.161	242.714
729.212	244.163
729.263	244.214
729.315	248.218
729.366	242.522
729.417	249.002
729.468	237.266
729.519	246.655
729.571	247.574
729.622	232.585
729.673	237.27
729.724	239.504
729.775	231.051
729.827	233.359
729.878	238.251
729.929	236.666
729.98	234.799
730.031	240.657
730.083	244.245
730.134	244.658
730.185	246.993
730.236	240.901
730.288	232.987
730.339	236.444
730.39	240.383
730.441	244.059
730.492	248.777
730.544	231.892
730.595	238.845
730.646	230.977
730.697	235.732
730.748	245.08
730.8	230.492
730.851	244.097
730.902	252.007
730.953	234.86
731.004	238.129
731.056	252.55
731.107	250
731.158	238.976
731.209	256.096
731.26	238.958
731.312	240.303
731.363	226.514
731.414	230.985
731.465	253.427
731.516	242.559
731.567	244.102
731.619	245.682
731.622	245.662
731.673	239.44
731.725	228.429
731.776	235.422
731.827	234.706
731.878	235.47
731.93	240.453
731.981	247.2
732.032	243.267
732.084	244.9
732.135	238.539
732.186	239.917
732.237	249.345
732.289	246.629
732.34	244.898
732.391	243.089
732.443	249.316
732.494	248.035
732.545	238.801
732.597	243.732
732.648	239.239
732.699	237.474
732.75	233.915
732.802	242.957
732.853	241.271
732.904	236.97
732.956	247.227
733.007	256.683
733.058	240.942
733.109	242.369
733.161	254.861
733.212	233.113
733.263	239.484
733.315	243.937
733.366	249.562
733.417	251.935
733.468	260.459
733.52	242.131
733.571	245.209
733.622	242.502
733.673	253.454
733.725	259.48
733.776	246.821
733.827	251.891
733.879	249.577
733.93	249.061
733.981	250.445
734.032	248.863
734.084	248.198
734.135	255.91
734.186	244.06
734.237	250.126
734.289	244.289
734.34	251.916
734.391	258.499
734.443	270.432
734.494	260.86
734.545	262.088
734.596	256.819
734.648	257.723
734.699	250.558
734.75	255.826
734.801	248.272
734.853	261.381
734.904	257.822
734.955	247.102
735.006	247.292
735.058	262.694
735.109	267.897
735.16	266.188
735.211	262.554
735.263	265.627
735.314	275.92
735.365	270.46
735.417	271.954
735.468	270.988
735.519	276.042
735.57	273.177
735.622	274.368
735.673	273.127
735.724	280.702
735.775	274.826
735.827	269.008
735.878	282.62
735.929	287.244
735.98	283.196
736.032	286.835
736.083	292.394
736.134	292.316
736.185	291.339
736.237	286.763
736.288	293.125
736.339	307.528
736.39	288.763
736.442	298.277
736.493	311.075
736.544	305.94
736.595	299.259
736.646	308.955
736.698	309.494
736.749	311.003
736.8	318.654
736.851	324.35
736.903	318.56
736.954	313.532
737.005	324.091
737.056	331.671
737.108	325.383
737.159	330.246
737.21	337.546
737.261	340.405
737.313	336.363
737.364	336.292
737.415	338.628
737.466	334.464
737.518	342.104
737.569	351.935
737.62	341.023
737.671	346.4
737.722	348.653
737.774	353.288
737.825	345.218
737.876	347.52
737.927	356.801
737.979	360.745
738.03	361.036
738.081	357.362
738.132	358.312
738.183	350.024
738.235	353.449
738.286	364.884
738.337	365.868
738.388	349.942
738.44	353.906
738.491	358.228
738.542	362.8
738.593	357.102
738.644	363.126
738.696	361.429
738.747	360.084
738.798	363.054
738.849	364.568
738.901	354.736
738.952	345.978
739.003	342.598
739.054	344.213
739.105	342.405
739.157	343.995
739.208	338.373
739.259	345.516
739.31	332.469
739.361	331.421
739.413	331.421
739.464	325.948
739.515	320.055
739.566	320.436
739.617	312.121
739.669	325.545
739.72	321.063
739.771	314.293
739.822	310.765
739.874	308.706
739.925	314.887
739.976	304.701
740.027	300.283
740.078	300.692
740.13	305.658
740.181	308.087
740.232	299.072
740.283	287.01
740.334	292.943
740.385	295.372
740.437	296.086
740.488	289.594
740.539	285.684
740.59	282.239
740.641	275.455
740.693	275.698
740.744	283.074
740.795	275.431
740.846	271.922
740.897	278.448
740.949	271.395
741	275.43
741.051	271.139
741.102	265.245
741.153	271.644
741.205	271.706
741.256	265.96
741.307	259.503
741.358	258.919
741.409	258.66
741.461	261.676
741.512	257.244
741.563	258.913
741.614	263.152
741.665	253.8
741.716	257.142
741.768	258.947
741.819	254.035
741.87	244.52
741.921	241.928
741.972	253.639
742.024	250.51
742.075	238.789
742.126	245.348
742.177	248.617
742.228	243.728
742.279	234.615
742.331	243.514
742.382	237.109
742.433	233.737
742.484	236.583
742.535	234.432
742.586	244.116
742.638	244.161
742.689	239.895
742.74	230.065
742.791	234.274
742.842	228.545
742.893	236.838
742.945	233.547
742.996	238.795
743.047	231.145
743.098	232.237
743.149	230.648
743.201	227.643
743.252	231.861
743.303	235.83
743.354	226.238
743.405	220.033
743.456	219.068
743.507	227.562
743.559	228.518
743.61	219.041
743.661	216.777
743.712	225.541
743.763	225.598
743.814	224.641
743.866	218.912
743.917	224.618
743.968	216.726
744.019	216.874
744.07	213.609
744.121	215.877
744.172	217.663
744.224	214.285
744.275	211.182
744.326	217.209
744.377	206.011
744.428	209.46
744.479	215.892
744.531	215.031
744.582	218.944
744.633	222.444
744.684	218.772
744.735	217.018
744.786	210.95
744.837	210.653
744.889	212.565
744.94	206.789
744.991	213.714
745.042	213.908
745.093	204.89
745.144	211.708
745.195	214.877
745.247	214.154
745.298	213.575
745.349	210.328
745.4	205.59
745.451	205.905
745.502	209.705
745.553	207.713
745.605	203.355
745.656	202.737
745.707	198.502
745.758	199.28
745.809	206.135
745.86	208.135
745.911	207.815
745.962	204.848
746.014	202.281
746.065	208.726
746.116	209.255
746.167	206.397
746.218	205.933
746.269	200.195
746.32	200.081
746.372	208.466
746.423	208.178
746.474	208.068
746.525	202.508
746.576	195.947
746.627	201.937
746.678	200.104
746.729	203.501
746.78	205.583
746.832	196.401
746.883	190.636
746.934	201.096
746.985	203.605
747.036	204.45
747.087	206.492
747.138	196.34
747.189	195.819
747.241	196.727
747.292	186.868
747.343	188.881
747.394	196.924
747.445	196.684
747.496	200.033
747.547	197.129
747.598	192.302
747.649	199.118
747.701	199.179
747.752	199.482
747.803	201.563
747.854	194.884
747.905	191.3
747.956	195.405
748.007	190.898
748.058	194.354
748.109	195.807
748.161	197.954
748.212	194.71
748.263	186.519
748.314	189.878
748.365	190.393
748.416	189.708
748.467	196.178
748.518	195.029
748.569	189.261
748.62	190.124
748.672	196.356
748.723	202.363
748.774	196.833
748.825	189.507
748.876	191.26
748.927	188.23
748.978	186.002
749.029	194.967
749.08	192.172
749.131	189.021
749.173	190.006
749.224	185.313
749.275	187.567
749.326	193.512
749.378	200.608
749.429	186.074
749.48	190.629
749.531	190.739
749.582	194.607
749.634	198.07
749.685	185.37
749.736	189.699
749.787	177.209
749.838	184.55
749.89	195.33
749.941	189.311
749.992	184.446
750.043	191.917
750.094	182.707
750.146	182.603
750.197	188.042
750.248	189.175
750.299	191.895
750.35	189.238
750.401	179.383
750.453	187.59
750.504	191.906
750.555	193.891
750.606	191.856
750.657	193.91
750.709	190.323
750.76	188.832
750.811	190.72
750.862	188.348
750.913	181.997
750.964	188.472
751.016	189.811
751.067	179.704
751.118	184.048
751.169	186.166
751.22	177.986
751.272	176.796
751.323	171.243
751.374	174.053
751.425	186.001
751.476	182.363
751.528	186.376
751.579	179.886
751.63	184.701
751.681	181.909
751.732	176.525
751.783	181.028
751.835	185.719
751.886	190.701
751.937	178.861
751.988	171.351
752.039	183.526
752.09	176.729
752.142	180.646
752.193	177.066
752.244	175.379
752.295	182.159
752.346	181.06
752.397	189.903
752.449	178.901
752.5	179.351
752.551	179.98
752.602	173.629
752.653	173.198
752.704	174.498
752.756	169.925
752.807	181.363
752.858	179.012
752.909	179.263
752.96	173.407
753.011	167.868
753.063	177.827
753.114	185.916
753.165	178.369
753.216	175.145
753.267	182.04
753.318	171.148
753.37	180.077
753.421	173.284
753.472	180.632
753.523	179.032
753.574	173.005
753.625	167.273
753.676	172.095
753.728	172.289
753.779	176.828
753.83	179.426
753.881	178.533
753.932	171.279
753.983	165.16
754.034	179.379
754.086	177.454
754.137	178.675
754.188	173.593
754.239	175.72
754.29	173.403
754.341	181.265
754.393	166.703
754.444	173.736
754.495	174.852
754.546	176.465
754.597	174.405
754.648	174.617
754.699	171.595
754.75	172.421
754.802	165.37
754.853	167.317
754.904	167.479
754.955	169.749
755.006	167.746
755.057	177.829
755.108	167.393
755.16	176.055
755.211	168.483
755.262	167.053
755.313	166.201
755.364	179.448
755.415	165.558
755.466	175.306
755.518	173.658
755.569	167.49
755.62	162.968
755.671	168.81
755.722	166.57
755.773	176.593
755.824	169.893
755.875	180.751
755.927	164.093
755.978	173.279
756.029	170.721
756.08	166.036
756.131	164.628
756.182	167.479
756.233	166.26
756.284	162.22
756.336	165.572
756.387	165.58
756.438	164.15
756.489	166.742
756.54	158.166
756.591	166.92
756.642	162.529
756.693	168.517
756.745	165.231
756.796	165.228
756.847	163.969
756.898	162.212
756.949	159.681
757	167.634
757.051	163.816
757.102	161.868
757.153	170.876
757.205	158.118
757.256	158.427
757.307	162.949
757.358	167
757.409	164.789
757.46	162.628
757.511	171.497
757.562	165.825
757.613	155.753
757.664	154.466
757.716	163.892
757.767	154.582
757.818	160.693
757.869	161.679
757.92	164.866
757.971	163.384
758.022	168.702
758.073	154.838
758.124	158.932
758.175	162.537
758.227	160.157
758.278	165.67
758.329	166.561
758.38	158.059
758.431	154.322
758.482	159.362
758.533	168.532
758.584	162.105
758.635	159.869
758.686	161.169
758.738	160.221
758.789	162.194
758.84	166.167
758.891	162.722
758.942	159.312
758.993	161.724
759.044	161.413
759.095	148.211
759.146	156.15
759.197	159.353
759.248	154.221
759.3	161.357
759.351	152.605
759.402	154.873
759.453	152.259
759.504	157.806
759.555	149.646
759.606	155.249
759.657	157.678
759.708	157.846
759.759	153.76
759.81	152.591
759.861	157.525
759.913	150.885
759.964	151.905
760.015	153.076
760.066	148.617
760.117	157.485
760.168	155.106
760.219	161.492
760.27	160.877
760.321	158.304
760.372	151.463
760.423	146.998
760.474	153.091
760.525	158.075
760.576	159.357
760.628	153.384
760.679	150.306
760.73	149.246
760.781	144.888
760.832	155.991
760.883	151.846
760.934	151.869
760.985	150.009
761.036	150.968
761.087	149.084
761.138	154.418
761.189	155.686
761.24	153.596
761.291	152.354
761.342	147.217
761.393	150.616
761.445	152.766
761.496	151.71
761.547	154.493
761.598	149.584
761.649	151.735
761.7	149.897
761.751	152.838
761.802	150.562
761.853	149.268
761.904	144.34
761.955	154.16
762.006	154.226
762.057	152.091
762.108	149.176
762.159	157.757
762.21	156.077
762.261	147.378
762.313	144.393
762.364	146.721
762.415	145.854
762.466	151.753
762.517	151.245
762.568	156.779
762.619	154.604
762.67	151.89
762.721	147.821
762.772	146.73
762.823	146.898
762.874	147.746
762.925	147.327
762.976	143.011
763.027	146.43
763.078	146.406
763.129	142.541
763.18	149.632
763.231	144.131
763.282	149.215
763.333	150.816
763.384	151.666
763.435	144.171
763.486	140.48
763.537	142.61
763.589	143.993
763.64	146.547
763.691	142.445
763.742	137.537
763.793	146.659
763.844	153.806
763.895	140.153
763.946	142.751
763.997	149.397
764.048	147.462
764.099	145.054
764.15	148.887
764.201	150.811
764.252	148.03
764.303	151.345
764.354	150.653
764.405	146.707
764.456	145.053
764.507	139.182
764.558	139.099
764.609	142.176
764.66	147.821
764.711	144.84
764.762	138.962
764.813	140.157
764.864	139.942
764.915	139.399
764.966	144.895
765.017	144.392
765.068	145.169
765.119	142.252
765.17	140.103
765.221	143.289
765.272	142.882
765.323	139.501
765.374	138.984
765.425	141.597
765.476	143.799
765.527	145.531
765.578	142.4
765.629	138.447
765.68	140.426
765.731	139.909
765.782	138.828
765.833	140.82
765.884	136.979
765.935	139.577
765.986	145.477
766.037	146.225
766.088	143.421
766.139	134.988
766.19	136.695
766.241	144.662
766.292	142.683
766.343	134.557
766.394	135.351
766.445	139.594
766.496	135.02
766.547	136.824
766.598	141.427
766.649	137.638
766.677	135.456
766.729	145.61
766.78	136.234
766.831	146.524
766.882	140.256
766.933	137.3
766.984	136.078
767.035	150.122
767.086	130.026
767.137	131.885
767.188	125.499
767.24	135.556
767.291	140.214
767.342	136.999
767.393	143.541
767.444	134.187
767.495	135.123
767.546	134.925
767.597	142.361
767.648	135.047
767.7	136.447
767.751	133.336
767.802	137.198
767.853	134.637
767.904	139.571
767.955	133.429
768.006	140.108
768.057	132.956
768.108	144.228
768.159	139.332
768.21	132.847
768.262	137.208
768.313	132.33
768.364	129.568
768.415	121.506
768.466	136.479
768.517	135.201
768.568	134.202
768.619	139.108
768.67	131.417
768.721	136.939
768.772	129.117
768.823	129.886
768.875	127.926
768.926	128.969
768.977	128.539
769.028	131.642
769.079	119.246
769.13	127.071
769.181	117.865
769.232	129.987
769.283	126.165
769.334	128.05
769.385	133.727
769.436	127.239
769.488	128.714
769.539	132.033
769.59	131.352
769.641	123.885
769.692	129.826
769.743	133.029
769.794	123.476
769.845	133.336
769.896	126.7
769.947	128.253
769.998	120.147
770.049	135.543
770.1	126.469
770.151	121.992
770.203	125.198
770.254	133.889
770.305	128.618
770.356	129.985
770.407	121.337
770.458	128.076
770.509	134.501
770.56	131.685
770.611	125.361
770.662	126.079
770.713	120.514
770.764	124.238
770.815	127.278
770.866	126.303
770.917	129.491
770.968	124.889
771.02	123.141
771.071	123.18
771.122	127.481
771.173	125.484
771.224	125.121
771.275	121.753
771.326	123.683
771.377	118.268
771.428	118.416
771.479	112.26
771.53	116.656
771.581	118.696
771.632	124.402
771.683	127.222
771.734	127.227
771.785	119.112
771.836	125.736
771.887	126.789
771.938	123.239
771.99	120.689
772.041	120.252
772.092	117.078
772.143	118.379
772.194	119.644
772.245	127.423
772.296	118.564
772.347	124.089
772.398	121.347
772.449	118.444
772.5	120.199
772.551	122.939
772.602	122.55
772.653	119.082
772.704	115.758
772.755	114.898
772.806	118.665
772.857	116.264
772.908	121.09
772.959	122.137
773.01	123.711
773.061	122.578
773.112	114.861
773.163	112.663
773.214	108.976
773.265	120.931
773.316	117.463
773.367	119.652
773.419	117.358
773.47	113.276
773.521	115.25
773.572	116.35
773.623	115.048
773.674	113.509
773.725	113.666
773.776	117.619
773.827	116.34
773.878	109.606
773.929	114.42
773.98	117.823
774.031	117.121
774.082	115.09
774.133	113.531
774.184	115.385
774.235	118.01
774.286	113.05
774.337	113.474
774.388	115.522
774.439	114.88
774.49	108.791
774.541	111.669
774.592	109.244
774.643	110.555
774.694	113.473
774.745	110.089
774.796	107.749
774.847	105.601
774.898	109.385
774.949	115.571
775	118.419
775.051	111.469
775.102	106.529
775.153	110.91
775.204	110.812
775.255	116.823
775.306	114.849
775.357	107.758
775.408	107.285
775.459	110.643
775.51	113.904
775.561	118.997
775.612	110.563
775.663	111.138
775.714	109.948
775.765	110.988
775.816	112.389
775.867	110.543
775.918	107.829
775.969	106.674
776.02	107.993
776.071	113.515
776.122	110.249
776.173	108.909
776.224	105.91
776.275	110.7
776.326	108.213
776.377	110.429
776.428	109.164
776.479	106.78
776.53	107.954
776.581	110.898
776.632	102.766
776.683	101.018
776.734	102.82
776.785	104.02
776.836	102.812
776.887	104.21
776.938	108.209
776.989	108.526
777.04	112.378
777.091	108.03
777.142	102.879
777.193	106.172
777.244	107.489
777.295	109.606
777.346	109.146
777.397	107.209
777.448	108.008
777.499	108.921
777.55	105.419
777.601	102.853
777.652	103.356
777.703	108.179
777.754	107.603
777.805	103.926
777.856	109.538
777.907	106.478
777.958	102.435
778.009	112.27
778.06	109.292
778.111	107.745
778.161	105.962
778.212	105.956
778.263	104.876
778.314	103.936
778.365	101.365
778.416	104.465
778.467	104.71
778.518	99.5563
778.569	97.8427
778.62	101.357
778.671	107.581
778.722	104.97
778.773	103.759
778.824	107.312
778.875	104.479
778.926	103.274
778.977	103.21
779.028	102.377
779.079	106.494
779.13	108.385
779.181	101.123
779.232	104.436
779.283	103.385
779.334	102.766
779.385	99.3424
779.436	97.6975
779.487	98.1859
779.537	97.6206
779.588	97.6518
779.639	100.852
779.69	98.6897
779.741	98.2807
779.792	100.591
779.843	99.7127
779.894	101.837
779.945	102.069
779.996	97.7165
780.047	98.6216
780.098	93.1021
780.149	99.4976
780.2	102.399
780.251	96.3245
780.302	100.656
780.353	104.102
780.404	100.401
780.455	94.9224
780.505	93.1121
780.556	95.5948
780.607	104.158
780.658	100.816
780.709	93.5124
780.76	90.8097
780.811	92.4201
780.862	95.764
780.913	99.5982
780.964	96.9733
781.015	100.1
781.066	98.1842
781.117	88.7433
781.168	89.904
781.219	96.1807
781.27	97.4726
781.32	94.5462
781.371	94.7935
781.422	100.512
781.473	99.6287
781.524	95.2058
781.575	93.5549
781.626	103.018
781.677	103.113
781.728	95.8869
781.779	93.5673
781.83	98.4565
781.881	100.904
781.932	96.9884
781.983	94.552
782.033	95.8354
782.084	94.8262
782.135	94.4609
782.186	89.387
782.237	93.5444
782.288	95.9527
782.339	98.1087
782.39	96.8423
782.441	91.2439
782.492	91.8712
782.543	91.0956
782.594	92.6731
782.644	95.5062
782.695	96.0959
782.746	92.3532
782.797	89.7793
782.848	94.074
782.899	95.7281
782.95	91.3221
783.001	91.4004
783.052	94.8666
783.103	96.8368
783.154	94.6212
783.204	91.3494
783.255	91.0708
783.306	95.6333
783.357	91.7519
783.408	94.0329
783.459	98.3714
783.51	92.0923
783.561	89.012
783.612	97.1175
783.663	94.1835
783.714	94.6607
783.764	92.3309
783.815	89.6184
783.866	89.1108
783.917	91.1754
783.968	81.1928
784.019	87.8263
784.07	93.5806
784.109	92.8198
784.16	89.3392
784.211	91.6638
784.262	97.846
784.313	86.2298
784.364	90.0173
784.415	93.6368
784.466	92.1801
784.517	86.1705
784.568	84.2874
784.619	91.4462
784.67	99.4395
784.721	91.3446
784.772	87.0608
784.823	95.9264
784.874	91.3008
784.925	92.7224
784.976	85.4047
785.027	85.6954
785.078	95.1443
785.129	90.3388
785.18	89.813
785.231	92.5775
785.282	93.5617
785.333	92.8437
785.384	93.9987
785.435	85.5503
785.486	94.7235
785.537	94.7762
785.588	88.4562
785.639	87.3648
785.69	96.7696
785.741	89.9746
785.792	86.9404
785.843	88.4651
785.894	84.8114
785.945	88.5219
785.996	85.5893
786.047	88.8836
786.098	89.3391
786.149	90.0073
786.2	83.0189
786.251	88.6507
786.302	91.0257
786.353	89.5149
786.404	86.5549
786.455	88.2432
786.506	86.1551
786.557	79.7758
786.608	87.2282
786.659	88.1037
786.71	80.9453
786.761	84.6056
786.812	89.0331
786.863	87.8065
786.914	86.4208
786.965	85.9603
787.016	92.2826
787.067	91.7388
787.118	91.0224
787.169	86.5175
787.22	75.131
787.271	87.0788
787.322	83.7074
787.373	79.4876
787.424	81.7542
787.475	83.0891
787.526	84.1586
787.576	82.0047
787.627	84.9787
787.678	85.9998
787.729	86.5947
787.78	84.3952
787.831	83.7065
787.882	82.9431
787.933	86.8345
787.984	87.2018
788.035	79.8298
788.086	84.8338
788.137	87.65
788.188	80.4126
788.239	76.1365
788.29	85.9926
788.341	83.3092
788.392	83.077
788.443	78.8017
788.494	80.8846
788.545	83.0444
788.596	75.0584
788.647	79.9431
788.698	91.0993
788.749	83.5241
788.8	84.3292
788.851	88.4292
788.901	87.5959
788.952	82.3021
789.003	84.8637
789.054	79.1613
789.105	84.0242
789.156	88.8317
789.207	80.8515
789.258	81.688
789.309	81.0672
789.36	84.1479
789.411	82.0486
789.462	79.817
789.513	80.479
789.564	80.5454
789.615	71.1767
789.666	74.4667
789.717	79.7743
789.768	83.1084
789.819	86.771
789.87	82.5839
789.92	83.6862
789.971	78.8088
790.022	80.6782
790.073	85.9402
790.124	86.9901
790.175	81.5359
790.226	82.2233
790.277	80.264
790.328	83.6381
790.379	79.4276
790.43	79.6552
790.481	83.5489
790.532	82.4909
790.583	77.942
790.634	78.2727
790.685	79.2114
790.735	79.9583
790.786	75.8817
790.837	75.4816
790.888	78.9402
790.939	76.6384
790.99	78.7495
791.041	81.8363
791.092	76.3813
791.143	77.3513
791.194	81.214
791.245	82.3494
791.296	76.4417
791.347	73.9508
791.397	76.0231
791.448	78.9365
791.499	84.5167
791.55	82.7663
791.601	76.1216
791.652	76.313
791.703	80.0142
791.754	75.6561
791.805	81.35
791.856	75.8947
791.907	70.2879
791.958	74.7345
792.008	75.7177
792.059	78.6863
792.11	78.0999
792.161	77.6767
792.212	74.5918
792.263	76.0919
792.314	76.4346
792.365	80.1647
792.416	76.0761
792.467	73.8707
792.518	74.8659
792.569	82.5558
792.619	79.3272
792.67	71.0568
792.721	73.6498
792.772	74.9916
792.823	76.4919
792.874	75.1425
792.925	73.2377
792.976	78.535
793.027	75.069
793.078	68.7549
793.128	75.3758
793.179	74.5296
793.23	77.7765
793.281	72.4132
793.332	79.4741
793.383	80.8969
793.434	78.2733
793.485	76.1536
793.536	74.404
793.587	71.821
793.638	78.6194
793.688	76.7034
793.739	78.3074
793.79	77.7411
793.841	74.8066
793.892	73.5031
793.943	75.056
793.994	76.7024
794.045	76.3538
794.096	77.219
794.146	73.9572
794.197	71.1129
794.248	72.1833
794.299	72.5331
794.35	74.3293
794.401	75.1256
794.452	76.504
794.503	70.2304
794.554	75.6072
794.604	74.3557
794.655	72.1822
794.706	73.6502
794.757	72.5886
794.808	74.314
794.859	71.6769
794.91	74.9672
794.961	73.5439
795.011	73.0505
795.062	71.2427
795.113	72.1735
795.164	75.8392
795.215	76.2433
795.266	75.8808
795.317	74.2645
795.368	71.1593
795.418	76.4644
795.469	72.8793
795.52	75.596
795.571	74.3338
795.622	75.1139
795.673	70.759
795.724	71.5821
795.775	74.5241
795.825	72.5007
795.876	69.0217
795.927	72.5509
795.978	72.7847
796.029	77.5414
796.08	73.9533
796.131	70.6574
796.181	72.3867
796.232	73.7796
796.283	71.4767
796.334	73.1187
796.385	75.4458
796.436	76.05
796.487	70.073
796.537	70.1578
796.588	68.3933
796.639	70.7175
796.69	74.663
796.741	74.9856
796.792	74.2283
796.843	72.934
796.893	66.5623
796.944	71.3598
796.995	71.1468
797.046	71.2526
797.097	72.9272
797.148	69.1225
797.199	68.6955
797.249	74.3728
797.3	67.7154
797.351	67.8665
797.402	73.9243
797.453	72.591
797.504	72.0816
797.555	71.5699
797.605	70.7053
797.656	68.8621
797.707	68.1023
797.758	68.564
797.809	72.9277
797.86	69.7106
797.91	71.5286
797.961	74.4188
798.012	72.7315
798.063	70.9349
798.114	72.5088
798.165	72.6645
798.216	69.0781
798.266	67.0562
798.317	68.412
798.368	70.5114
798.419	68.3514
798.47	71.231
798.521	69.0811
798.571	67.4534
798.622	67.3679
798.673	71.4474
798.724	70.8749
798.775	67.585
798.826	67.8392
798.876	68.1236
798.927	67.345
798.978	68.4592
799.029	66.7607
799.08	68.5293
799.13	69.903
799.181	67.3522
799.232	69.2558
799.283	71.2804
799.334	67.2727
799.385	69.4051
799.435	68.8297
799.486	69.6163
799.537	69.3126
799.588	70.9136
799.639	71.4961
799.69	67.3243
799.74	67.4026
799.791	68.2065
799.842	67.6544
799.893	69.3656
799.944	70.4834
799.994	69.5192
800.045	65.5721
800.096	66.3336
800.147	69.8679
800.198	65.9772
800.248	68.5782
800.299	66.0863
800.35	72.6817
800.401	70.7597
800.452	67.4566
800.503	66.1161
800.553	62.7553
800.604	66.8458
800.655	67.1761
800.706	65.9744
800.757	64.4062
800.807	66.3739
800.858	67.1941
800.909	64.1785
800.96	63.3546
801.011	60.8912
801.061	68.8144
801.112	63.5076
801.163	63.1192
801.214	63.0629
801.265	69.079
801.315	65.1948
801.366	65.0469
801.417	65.1827
801.457	66.7476
801.508	61.7612
801.558	61.5411
801.609	62.6775
801.66	66.0702
801.711	61.0242
801.762	64.1272
801.813	61.3866
801.864	62.1465
801.915	60.5065
801.966	67.7219
802.017	61.402
802.068	69.6752
802.118	65.0229
802.169	61.2422
802.22	65.5526
802.271	62.3443
802.322	61.6513
802.373	62.6557
802.424	61.9983
802.475	64.1062
802.526	65.7666
802.577	64.5113
802.627	64.3289
802.678	63.5054
802.729	62.0421
802.78	66.7523
802.831	64.4756
802.882	64.2946
802.933	57.8765
802.984	60.5702
803.035	66.2432
803.086	60.832
803.136	62.0956
803.187	61.6125
803.238	62.6233
803.289	63.9571
803.34	58.8382
803.391	64.5449
803.442	66.5531
803.493	55.5257
803.544	63.1553
803.594	62.8208
803.645	61.8281
803.696	55.611
803.747	60.3626
803.798	61.5931
803.849	58.9795
803.9	66.7131
803.951	65.9607
804.002	59.2416
804.052	63.9736
804.103	62.9848
804.154	61.0785
804.205	69.9904
804.256	65.5245
804.307	61.1719
804.358	60.395
804.409	65.717
804.459	65.2848
804.51	60.2927
804.561	64.2528
804.612	53.9727
804.663	56.9118
804.714	60.3049
804.765	60.3285
804.816	62.0053
804.866	62.8006
804.917	62.1908
804.968	63.9346
805.019	65.9884
805.07	62.5032
805.121	61.279
805.172	58.2094
805.223	62.2669
805.273	56.4405
805.324	60.9286
805.375	60.4538
805.426	55.8613
805.477	63.2256
805.528	63.3649
805.579	59.8798
805.629	59.9955
805.68	55.6656
805.731	57.7835
805.782	61.0863
805.833	60.762
805.884	55.4596
805.935	59.3053
805.985	58.9903
806.036	62.9712
806.087	65.8624
806.138	50.7755
806.189	60.1418
806.24	58.0605
806.291	61.8786
806.341	56.2941
806.392	54.366
806.443	57.4629
806.494	53.2028
806.545	57.7123
806.596	61.1061
806.647	57.0958
806.697	50.516
806.748	62.0576
806.799	62.711
806.85	55.2387
806.901	61.7551
806.952	58.8879
807.003	63.3292
807.053	55.3382
807.104	61.4441
807.155	55.6227
807.206	63.6631
807.257	58.6538
807.308	58.8529
807.358	59.2085
807.409	62.8335
807.46	59.0098
807.511	58.7088
807.562	66.0304
807.613	59.6913
807.663	59.3135
807.714	57.8836
807.765	57.4349
807.816	58.8442
807.867	60.4529
807.918	57.7666
807.969	60.5654
808.019	63.509
808.07	54.44
808.121	56.3922
808.172	63.0642
808.223	57.0894
808.273	54.8683
808.324	56.9642
808.375	61.5607
808.426	52.4917
808.477	57.7772
808.528	55.4941
808.578	61.6409
808.629	59.5352
808.68	56.1801
808.731	55.5587
808.782	55.1033
808.833	54.0317
808.883	53.0466
808.934	58.5254
808.985	62.546
809.036	57.8603
809.087	52.6461
809.138	61.3273
809.188	56.6155
809.239	60.0495
809.29	50.003
809.341	50.3191
809.392	53.0294
809.442	50.1759
809.493	52.0401
809.544	53.1041
809.595	60.0561
809.646	55.4009
809.696	51.0969
809.747	56.7201
809.798	60.2417
809.849	56.556
809.9	54.3394
809.951	54.6966
810.001	56.575
810.052	55.8626
810.103	52.3132
810.154	53.6021
810.205	62.2485
810.255	54.3833
810.306	51.1516
810.357	52.1176
810.408	57.2827
810.459	55.3086
810.509	56.6792
810.56	56.9042
810.611	56.4019
810.662	51.0029
810.713	56.2295
810.763	60.1016
810.814	52.3062
810.865	51.3644
810.916	55.2046
810.967	58.9541
811.017	58.9416
811.068	53.7098
811.119	52.8334
811.17	57.5143
811.221	52.5079
811.271	51.7817
811.322	55.761
811.373	55.76
811.424	57.2702
811.474	56.3591
811.525	52.9671
811.576	57.6295
811.627	54.0725
811.678	55.9911
811.728	52.3114
811.779	54.6908
811.83	57.3299
811.881	53.5176
811.932	55.8099
811.982	57.5718
812.033	54.2194
812.084	54.436
812.135	52.0748
812.185	54.2279
812.236	58.0985
812.287	54.9036
812.338	51.4006
812.389	55.5887
812.439	57.7774
812.49	54.4398
812.541	53.6976
812.592	55.0377
812.642	56.3968
812.693	50.9979
812.744	51.2556
812.795	57.7875
812.846	54.3704
812.896	51.4753
812.947	53.2742
812.998	52.4531
813.049	49.4429
813.099	51.0492
813.15	49.334
813.201	57.4995
813.252	54.6157
813.302	56.7305
813.353	57.0805
813.404	57.1068
813.455	53.273
813.506	53.4077
813.556	55.8028
813.607	55.7429
813.658	51.649
813.709	45.8131
813.759	55.0132
813.81	51.6703
813.861	53.1556
813.912	52.1978
813.962	50.6978
814.013	51.896
814.064	48.5849
814.115	45.8355
814.165	53.5929
814.216	61.167
814.267	54.4329
814.318	50.6735
814.368	53.0978
814.419	54.7634
814.47	50.3825
814.521	48.6124
814.571	51.8825
814.622	51.9258
814.673	53.6288
814.724	49.3532
814.774	50.7879
814.825	55.2364
814.876	49.9902
814.927	53.564
814.977	55.133
815.028	54.3231
815.079	49.3907
815.13	49.7627
815.18	54.3979
815.231	50.468
815.282	49.8853
815.333	50.5203
815.383	53.1061
815.434	56.0133
815.485	53.4953
815.536	50.2065
815.586	50.8926
815.637	51.8804
815.688	50.239
815.739	51.9433
815.789	49.7975
815.84	50.0522
815.891	48.7786
815.941	50.9592
815.992	53.0819
816.043	49.2592
816.094	50.1093
816.144	49.3914
816.195	49.9735
816.246	53.0887
816.297	47.893
816.347	47.9926
816.398	50.0233
816.449	51.5243
816.499	52.9897
816.55	51.3019
816.601	54.4308
816.652	52.6497
816.702	45.9812
816.753	47.5357
816.804	49.0108
816.855	47.4287
816.905	43.0768
816.956	46.0779
817.007	50.5694
817.057	55.687
817.108	49.7155
817.159	50.9771
817.21	52.842
817.26	51.3357
817.311	50.2996
817.362	48.9381
817.412	54.6302
817.463	49.2729
817.514	44.5422
817.565	48.194
817.615	53.8646
817.666	51.7691
817.717	53.6064
817.767	48.8997
817.818	52.261
817.869	50.8194
817.919	47.3655
817.97	47.9536
818.021	51.3743
818.072	55.1599
818.122	51.2598
818.173	50.7662
818.224	55.0525
818.274	51.7938
818.325	48.8534
818.376	50.5214
818.427	49.9447
818.477	47.9876
818.528	51.037
818.579	50.4615
818.629	50.8386
818.68	48.1999
818.731	44.7807
818.781	47.7087
818.806	52.1295
818.857	51.2855
818.908	52.8249
818.959	45.5154
819.01	47.2922
819.06	49.9422
819.111	47.9297
819.162	47.0138
819.213	48.3521
819.264	49.056
819.315	44.3759
819.365	42.325
819.416	48.0638
819.467	49.4261
819.518	43.6595
819.569	46.3788
819.619	51.6722
819.67	49.9472
819.721	44.8548
819.772	49.566
819.823	49.751
819.873	48.3686
819.924	46.9519
819.975	45.6838
820.026	47.9341
820.077	53.2326
820.127	47.5878
820.178	43.3185
820.229	49.6508
820.28	51.4923
820.331	44.2604
820.381	45.0571
820.432	49.0728
820.483	45.8638
820.534	41.6411
820.585	46.3103
820.635	44.7301
820.686	49.0848
820.737	45.9265
820.788	45.751
820.839	49.3355
820.889	48.0221
820.94	41.136
820.991	46.1543
821.042	49.4719
821.092	42.9257
821.143	46.1476
821.194	51.6469
821.245	48.6841
821.296	45.5699
821.346	41.7752
821.397	46.3533
821.448	47.9021
821.499	48.1852
821.549	49.0485
821.6	48.2512
821.651	49.6775
821.702	50.555
821.753	46.8083
821.803	47.4847
821.854	53.6353
821.905	48.1256
821.956	45.9324
822.006	51.5196
822.057	45.7959
822.108	44.7995
822.159	47.5012
822.21	49.5103
822.26	47.4116
822.311	45.6594
822.362	45.7894
822.413	51.1507
822.463	46.9143
822.514	44.085
822.565	44.419
822.616	50.2789
822.667	49.2355
822.717	53.3492
822.768	47.7287
822.819	46.319
822.87	47.935
822.92	47.6006
822.971	46.5126
823.022	46.5321
823.073	46.0073
823.123	45.6788
823.174	40.4657
823.225	44.4218
823.276	43.1512
823.326	42.1735
823.377	40.5243
823.428	49.2076
823.479	49.9742
823.529	47.8895
823.58	48.1722
823.631	45.4318
823.682	43.1176
823.732	43.9978
823.783	42.7967
823.834	47.4143
823.885	47.5724
823.935	43.464
823.986	46.9982
824.037	46.6216
824.088	44.683
824.138	42.8156
824.189	46.804
824.24	47.6166
824.291	50.0985
824.341	45.66
824.392	43.7349
824.443	42.917
824.494	43.3435
824.544	45.9565
824.595	45.6849
824.646	46.9085
824.697	46.1189
824.747	42.5978
824.798	44.9455
824.849	45.736
824.9	46.9072
824.95	44.4325
825.001	44.4941
825.052	46.7138
825.103	47.9298
825.153	47.1847
825.204	45.7496
825.255	46.6735
825.305	45.9744
825.356	47.0641
825.407	46.301
825.458	42.7667
825.508	46.867
825.559	44.978
825.61	46.7906
825.661	47.9146
825.711	44.3813
825.762	43.4762
825.813	46.5384
825.864	48.751
825.914	46.7875
825.965	44.7532
826.016	48.114
826.066	49.8405
826.117	43.4973
826.168	43.147
826.219	45.9186
826.269	45.9376
826.32	45.3109
826.371	45.7947
826.421	44.5534
826.472	47.5454
826.523	41.8441
826.574	44.2609
826.624	41.895
826.675	45.164
826.726	43.8491
826.776	44.16
826.827	40.6795
826.878	45.7755
826.929	43.3882
826.979	36.7766
827.03	41.1269
827.081	46.9394
827.131	44.946
827.182	43.8529
827.233	44.4165
827.284	45.1983
827.334	45.4955
827.385	40.9234
827.436	42.0287
827.486	43.963
827.537	43.72
827.588	39.1243
827.638	44.6106
827.689	43.6923
827.74	43.2824
827.791	43.9276
827.841	43.228
827.892	43.2989
827.943	42.3332
827.993	39.6409
828.044	40.8684
828.095	44.8458
828.146	43.3434
828.196	38.6426
828.247	39.8142
828.298	43.9834
828.348	43.1477
828.399	38.997
828.45	43.9732
828.5	45.4037
828.551	43.3742
828.602	37.9211
828.652	44.0365
828.703	45.1023
828.754	42.1852
828.805	42.6393
828.855	41.7615
828.906	37.8279
828.957	41.9128
829.007	42.3058
829.058	40.9684
829.109	45.1652
829.159	43.7587
829.21	39.7369
829.261	42.1245
829.311	43.7868
829.362	41.201
829.413	41.4758
829.463	41.546
829.514	43.0675
829.565	38.6894
829.615	41.4621
829.666	45.6714
829.717	43.3486
829.767	43.9695
829.818	44.8539
829.869	43.9555
829.919	46.4876
829.97	43.7617
830.021	42.4038
830.071	45.8738
830.122	42.0272
830.173	41.657
830.224	42.6594
830.274	44.9807
830.325	43.9734
830.376	43.2859
830.426	42.4407
830.477	43.7008
830.528	43.4204
830.578	39.343
830.629	41.3033
830.68	42.2476
830.73	38.3996
830.781	38.4167
830.831	41.3423
830.882	42.2091
830.933	43.2869
830.983	41.7699
831.034	42.3483
831.085	41.7357
831.135	41.9831
831.186	41.453
831.237	40.1001
831.287	42.8666
831.338	40.9362
831.389	40.2693
831.439	42.4877
831.49	43.4701
831.541	42.0731
831.591	35.5876
831.642	39.0727
831.693	41.4203
831.743	45.2212
831.794	42.0628
831.845	39.1291
831.895	44.0015
831.946	43.272
831.997	42.536
832.047	41.8637
832.098	42.1074
832.148	42.4989
832.199	42.6186
832.25	42.5037
832.3	43.7421
832.351	42.3729
832.402	42.0863
832.452	41.5821
832.503	40.2003
832.554	40.0284
832.604	39.1983
832.655	42.6229
832.706	43.1127
832.756	42.4242
832.807	36.6418
832.857	40.1898
832.908	40.4877
832.959	38.8149
833.009	40.4066
833.06	44.4054
833.111	45.0123
833.161	42.0532
833.212	43.8876
833.263	46.9857
833.313	43.2443
833.364	41.4452
833.414	40.1811
833.465	44.1344
833.516	40.0261
833.566	40.2895
833.617	42.2908
833.668	44.647
833.718	44.1247
833.769	41.7839
833.819	42.2387
833.87	42.5321
833.921	42.8576
833.971	38.4991
834.022	39.8828
834.073	42.108
834.123	40.39
834.174	41.8569
834.224	35.773
834.275	41.2506
834.326	39.6002
834.376	33.9827
834.427	43.5318
834.477	44.0642
834.528	46.4689
834.579	45.8509
834.629	39.2284
834.68	44.3406
834.73	42.0912
834.781	41.3927
834.832	41.1689
834.882	42.3264
834.933	38.6786
834.984	42.7108
835.034	40.2446
835.085	44.4255
835.135	39.0508
835.186	38.8993
835.237	41.8036
835.287	45.0202
835.338	38.2628
835.388	43.7853
835.439	39.893
835.49	45.0883
835.54	40.1267
835.591	36.9843
835.641	38.0655
835.692	40.8076
835.743	39.9894
835.793	37.2231
835.844	48.7199
835.894	40.2328
835.945	39.0657
835.996	34.1472
836.046	40.8139
836.097	40.8517
836.099	41.1113
836.15	41.2426
836.201	44.9424
836.251	44.9175
836.302	42.0139
836.353	46.9261
836.404	41.0621
836.454	43.0088
836.505	42.916
836.556	38.0124
836.606	39.8858
836.657	38.8821
836.708	39.9176
836.758	35.9064
836.809	39.0876
836.86	45.833
836.911	41.5218
836.961	43.4608
837.012	36.8249
837.063	35.8355
837.113	43.4661
837.164	46.574
837.215	41.0537
837.265	42.069
837.316	37.7093
837.367	45.4929
837.418	43.1892
837.468	42.8586
837.519	38.9141
837.57	35.208
837.62	38.0157
837.671	37.5312
837.722	34.4308
837.772	36.4463
837.823	38.9366
837.874	38.4302
837.924	41.3748
837.975	42.9572
838.026	37.0324
838.077	35.9117
838.127	35.2189
838.178	42.0091
838.229	40.2954
838.279	42.2839
838.33	40.9911
838.381	38.3981
838.431	40.6597
838.482	38.1768
838.533	37.38
838.583	37.9218
838.634	42.6022
838.685	37.0836
838.735	35.9925
838.786	41.0883
838.837	33.9917
838.888	40.2552
838.938	37.6858
838.989	37.1828
839.04	36.3994
839.09	39.3903
839.141	37.9577
839.192	42.3695
839.242	39.6735
839.293	37.1126
839.344	44.1133
839.394	37.8786
839.445	33.9612
839.496	40.0728
839.546	36.2564
839.597	35.8514
839.648	36.3299
839.698	41.2984
839.749	39.4569
839.8	37.4544
839.85	39.4574
839.901	39.8774
839.952	35.042
840.002	38.8188
840.053	44.7319
840.104	42.7291
840.154	40.8175
840.205	36.7878
840.256	37.7984
840.306	35.547
840.357	38.892
840.408	39.154
840.458	42.9963
840.509	42.1537
840.56	36.0201
840.61	35.4842
840.661	43.3803
840.711	39.6775
840.762	43.8652
840.813	39.2421
840.863	41.5822
840.914	34.7458
840.965	39.871
841.015	41.1351
841.066	43.0482
841.117	37.279
841.167	38.0106
841.218	33.0687
841.269	41.1871
841.319	36.7706
841.37	42.0997
841.421	38.8283
841.471	41.8714
841.522	39.035
841.573	37.92
841.623	39.6103
841.674	38.5738
841.724	37.2427
841.775	36.8839
841.826	31.9974
841.876	41.1512
841.927	37.668
841.978	41.2763
842.028	38.7593
842.079	40.7806
842.13	37.2237
842.18	39.4286
842.231	40.359
842.281	39.1987
842.332	39.9355
842.383	37.3972
842.433	39.0804
842.484	36.1336
842.535	31.2868
842.585	39.0586
842.636	36.7552
842.687	37.5207
842.737	33.1578
842.788	33.6732
842.838	37.7281
842.889	34.8775
842.94	38.385
842.99	39.7514
843.041	40.1641
843.092	36.2842
843.142	37.6149
843.193	39.2787
843.243	39.5111
843.294	36.3248
843.345	36.5914
843.395	35.9198
843.446	41.0242
843.497	39.9439
843.547	37.3371
843.598	41.7736
843.648	41.7414
843.699	42.2139
843.75	40.212
843.8	38.7267
843.851	38.5605
843.901	34.4036
843.952	34.9269
844.003	36.1164
844.053	42.1487
844.104	36.4903
844.155	36.6451
844.205	37.0904
844.256	35.5712
844.306	34.7695
844.357	37.0221
844.408	37.5661
844.458	40.1813
844.509	38.1812
844.559	35.7335
844.61	35.5783
844.661	37.4193
844.711	38.1734
844.762	40.5314
844.812	36.5165
844.863	38.8095
844.914	38.5663
844.964	38.3442
845.015	38.4409
845.065	37.2989
845.116	37.2451
845.167	35.5334
845.217	31.901
845.268	34.8655
845.318	33.7029
845.369	35.1289
845.42	38.9352
845.47	37.5431
845.521	38.3153
845.571	37.3921
845.622	38.2341
845.673	39.5472
845.723	40.651
845.774	37.2967
845.824	34.4551
845.875	39.5018
845.926	38.6559
845.976	35.138
846.027	33.1521
846.077	35.9264
846.128	37.8484
846.178	37.4903
846.229	34.6487
846.28	35.7044
846.33	36.5667
846.381	36.7073
846.431	32.4651
846.482	38.3542
846.533	37.3069
846.583	34.0309
846.634	38.974
846.684	36.0242
846.735	35.3906
846.785	37.4813
846.836	37.0739
846.887	34.7718
846.937	31.3369
846.988	35.2195
847.038	36.9725
847.089	35.5112
847.139	34.6366
847.19	35.146
847.241	37.0433
847.291	34.0131
847.342	35.4685
847.392	38.5354
847.443	40.2967
847.493	34.6279
847.544	30.2818
847.595	34.4726
847.645	40.2411
847.696	35.6628
847.746	34.0386
847.797	33.2291
847.847	38.0277
847.898	35.9152
847.948	35.1243
847.999	36.6505
848.05	38.3887
848.1	33.4541
848.151	34.616
848.201	33.3372
848.252	37.9343
848.302	37.906
848.353	38.6266
848.404	36.6252
848.454	37.4049
848.505	35.1637
848.555	34.5427
848.606	37.0681
848.656	38.4643
848.707	34.8012
848.757	36.8581
848.808	38.2577
848.859	40.6056
848.909	34.9972
848.96	37.7319
849.01	35.8429
849.061	34.8381
849.111	34.1721
849.162	36.6713
849.212	37.8696
849.263	36.2668
849.313	35.014
849.364	35.1345
849.414	30.5932
849.465	32.0019
849.516	34.3683
849.566	36.3631
849.617	35.585
849.667	37.0136
849.718	33.0206
849.768	38.6457
849.819	35.9027
849.869	31.7207
849.92	38.3466
849.97	37.8291
850.021	35.8583
850.071	36.9518
850.122	31.9595
850.173	38.6326
850.223	32.2679
850.274	31.9308
850.324	33.5876
850.375	36.1461
850.425	37.1777
850.476	34.2657
850.526	37.1695
850.577	32.2856
850.627	30.9961
850.678	34.7587
850.728	35.4519
850.779	34.6339
850.829	34.8664
850.88	36.5532
850.93	37.1528
850.981	38.9849
851.031	39.3129
851.082	33.2131
851.133	35.4419
851.183	36.0911
851.234	35.9413
851.284	32.7337
851.335	32.1068
851.385	31.4602
851.436	33.7118
851.486	35.4137
851.537	34.5706
851.587	33.4976
851.638	34.4249
851.688	35.7859
851.739	36.0676
851.789	38.3838
851.84	36.7977
851.89	34.5625
851.941	32.9707
851.991	35.1296
852.042	32.8083
852.092	33.249
852.143	33.7376
852.193	36.8303
852.244	38.1912
852.294	35.7325
852.345	33.661
852.395	35.0521
852.446	35.8642
852.496	37.1661
852.547	37.7437
852.597	37.0223
852.648	31.6309
852.698	28.7402
852.749	34.9284
852.799	38.8287
852.85	36.915
852.9	37.8601
852.951	35.849
853.001	33.4533
853.052	34.3488
853.102	30.8706
853.153	35.9757
853.203	37.8264
853.254	32.7838
853.304	32.5122
853.355	32.3612
853.405	35.9196
853.443	39.3311
853.493	29.8373
853.544	34.5821
853.594	32.586
853.645	37.0268
853.696	37.8531
853.746	34.0359
853.797	35.3882
853.847	37.5762
853.898	34.2835
853.949	36.3982
853.999	36.2496
854.05	32.2518
854.1	33.6679
854.151	35.3548
854.202	35.5774
854.252	34.3913
854.303	33.6051
854.353	33.3512
854.404	38.2214
854.455	37.3883
854.505	34.869
854.556	33.672
854.606	37.9571
854.657	33.2729
854.708	34.5213
854.758	32.3025
854.809	37.9875
854.859	33.8457
854.91	35.6888
854.961	37.5237
855.011	33.8418
855.062	33.0102
855.112	27.8823
855.163	32.4478
855.214	36.6815
855.264	33.9969
855.315	35.0121
855.365	36.7266
855.416	38.7413
855.466	30.8909
855.517	33.6196
855.568	38.8924
855.618	36.7099
855.669	28.1581
855.719	27.0663
855.77	31.2624
855.821	32.6024
855.871	36.3928
855.922	34.2605
855.972	34.7302
856.023	36.2252
856.073	34.6372
856.124	33.6065
856.175	34.567
856.225	33.8943
856.276	35.1889
856.326	32.1809
856.377	33.2453
856.427	30.9886
856.478	31.1312
856.529	33.7339
856.579	32.3211
856.63	35.475
856.68	32.3422
856.731	29.5926
856.781	32.3977
856.832	37.109
856.883	33.4984
856.933	31.0908
856.984	36.3398
857.034	37.4388
857.085	33.6964
857.135	33.2583
857.186	35.4881
857.237	37.177
857.287	34.1551
857.338	33.99
857.388	35.5464
857.439	36.0613
857.489	30.1354
857.54	34.6968
857.59	37.8708
857.641	33.9196
857.692	30.3459
857.742	32.9096
857.793	32.6548
857.843	34.1695
857.894	34.972
857.944	35.4508
857.995	37.4495
858.045	35.8677
858.096	33.982
858.147	34.6759
858.197	36.8599
858.248	36.1167
858.298	32.0544
858.349	33.5673
858.399	35.4134
858.45	33.5105
858.5	32.3361
858.551	31.7051
858.601	32.9852
858.652	32.4227
858.703	32.3233
858.753	34.4052
858.804	36.7386
858.854	34.1376
858.905	22.4577
858.955	36.1752
859.006	32.5114
859.056	34.2358
859.107	30.9517
859.157	33.8403
859.208	31.5187
859.258	31.9857
859.309	27.445
859.36	34.5758
859.41	33.7327
859.461	31.6143
859.511	26.1859
859.562	31.2572
859.612	32.563
859.663	33.5332
859.713	30.2465
859.764	37.9335
859.814	36.608
859.865	28.372
859.915	30.6999
859.966	35.1289
860.016	38.2818
860.067	30.8798
860.117	30.3427
860.168	37.527
860.219	38.708
860.269	24.8525
860.32	29.9592
860.37	31.2605
860.421	37.7089
860.471	28.2104
860.522	29.7307
860.572	39.1854
860.623	36.948
860.673	27.6665
860.724	34.6354
860.774	31.449
860.825	35.2289
860.875	34.3951
860.926	27.8449
860.976	38.3039
861.027	35.1235
861.077	30.0101
861.128	27.6804
861.178	32.4248
861.229	34.5223
861.279	32.2868
861.33	33.2775
861.38	36.9032
861.431	37.3589
861.481	34.2313
861.532	32.0079
861.582	29.1886
861.633	28.74
861.683	29.8444
861.734	36.0195
861.784	36.9413
861.835	32.0562
861.885	36.1431
861.936	29.7411
861.986	35.7212
862.037	39.3887
862.087	33.2187
862.138	38.4977
862.188	33.6982
862.239	34.7009
862.289	28.9112
862.34	30.6949
862.39	34.1168
862.441	31.3135
862.491	30.0572
862.542	29.2977
862.592	35.2942
862.643	35.0588
862.693	27.9487
862.744	27.7026
862.794	34.5132
862.845	32.7151
862.895	27.7354
862.946	33.9327
862.996	35.0432
863.047	33.4029
863.097	31.6886
863.148	30.108
863.198	35.9857
863.249	33.09
863.299	32.0384
863.35	35.5247
863.4	38.5626
863.451	28.8299
863.501	31.3603
863.552	34.6656
863.602	35.5232
863.653	33.6877
863.703	33.0994
863.754	31.1408
863.804	34.749
863.854	32.6304
863.905	27.096
863.955	29.4903
864.006	38.188
864.056	27.8246
864.107	30.8292
864.157	32.8095
864.208	34.8033
864.258	30.7858
864.309	31.3184
864.359	28.6418
864.41	34.6881
864.46	33.3845
864.511	30.5105
864.561	35.5455
864.612	31.9103
864.662	31.0108
864.712	29.8364
864.763	29.0219
864.813	31.575
864.864	29.3694
864.914	29.354
864.965	34.0017
865.015	31.9225
865.066	29.2842
865.116	26.877
865.167	31.5232
865.217	37.0041
865.268	29.0308
865.318	30.98
865.368	33.2431
865.419	33.6587
865.469	32.7213
865.52	31.5185
865.57	33.9995
865.621	34.3802
865.671	29.4438
865.722	29.5339
865.772	35.0621
865.823	34.015
865.873	30.5495
865.923	29.4523
865.974	35.1184
866.024	36.8953
866.075	30.3484
866.125	25.8908
866.176	31.6959
866.226	33.1488
866.276	32.3033
866.327	35.3787
866.377	36.2845
866.428	31.8707
866.478	28.2426
866.529	34.4623
866.579	33.8674
866.63	32.2488
866.68	32.2495
866.73	30.9025
866.781	31.7229
866.831	29.2675
866.882	30.3341
866.932	30.1605
866.983	33.7291
867.033	34.9147
867.083	33.5577
867.134	33.0122
867.184	31.6217
867.235	32.7628
867.285	31.5802
867.336	35.0745
867.386	37.6935
867.436	36.0501
867.487	32.9031
867.537	26.2293
867.588	30.2097
867.638	30.6751
867.689	31.7669
867.739	31.6139
867.789	36.0807
867.84	34.3395
867.89	32.5049
867.941	27.328
867.991	33.9304
868.042	29.0851
868.092	29.0646
868.142	32.3328
868.193	37.858
868.243	34.3641
868.294	31.6246
868.344	30.2177
868.394	36.8279
868.445	31.9747
868.495	30.1372
868.546	31.7448
868.596	37.8446
868.647	31.1678
868.697	31.4482
868.747	32.0804
868.798	33.4303
868.848	28.4273
868.899	28.6929
868.949	36.6226
868.999	37.1182
869.05	32.0574
869.1	31.5357
869.151	31.2216
869.201	35.48
869.251	34.6306
869.302	27.5234
869.352	30.3454
869.403	36.918
869.453	32.3584
869.503	28.7845
869.554	33.6262
869.604	32.147
869.655	31.4163
869.705	29.7611
869.755	32.9096
869.806	35.6813
869.856	31.7056
869.907	27.0672
869.957	34.6223
870.007	35.0864
870.058	34.9597
870.108	28.5539
870.159	35.2469
870.209	33.6853
870.259	27.3168
870.31	26.044
870.36	35.1008
870.41	33.7083
870.461	35.7898
870.511	28.1027
870.562	34.8305
870.612	30.1055
870.662	32.4122
870.713	27.721
870.731	28.434
870.782	35.004
870.832	37.3309
870.883	28.5903
870.933	25.9938
870.984	34.884
871.034	33.9847
871.085	34.2478
871.135	31.5723
871.186	31.9458
871.236	36.4836
871.287	32.4475
871.337	32.4987
871.388	33.8471
871.438	30.9657
871.489	30.7288
871.539	29.6013
871.59	35.1979
871.64	33.9369
871.691	28.9079
871.741	31.5838
871.792	34.4822
871.842	32.2009
871.893	27.9294
871.943	29.5184
871.994	37.3456
872.044	34.9195
872.095	34.8789
872.145	30.6988
872.196	33.5793
872.246	33.4475
872.297	31.2173
872.347	31.8139
872.397	34.6798
872.448	35.1948
872.498	27.9567
872.549	31.5517
872.599	33.7129
872.65	32.1197
872.7	30.5948
872.751	37.1696
872.801	33.6532
872.852	31.471
872.902	29.5371
872.953	34.4029
873.003	35.3288
873.054	34.8729
873.104	26.4662
873.155	32.9857
873.205	34.8509
873.256	28.9999
873.306	21.2928
873.357	30.3693
873.407	30.5317
873.458	35.5279
873.508	28.446
873.558	31.8054
873.609	36.0706
873.659	29.2072
873.71	28.4197
873.76	33.3355
873.811	31.6012
873.861	29.6485
873.912	30.0335
873.962	30.1252
874.013	29.1525
874.063	30.018
874.114	27.574
874.164	31.1139
874.215	31.8506
874.265	35.0067
874.315	31.3068
874.366	31.8387
874.416	29.7461
874.467	27.5501
874.517	27.3043
874.568	33.2198
874.618	30.795
874.669	32.0538
874.719	29.0915
874.77	31.6046
874.82	31.1681
874.87	27.9236
874.921	28.7242
874.971	34.5463
875.022	32.5169
875.072	34.4161
875.123	30.0217
875.173	32.1146
875.224	36.5831
875.274	27.9929
875.324	27.3184
875.375	33.3726
875.425	31.401
875.476	33.0699
875.526	31.5388
875.577	31.1019
875.627	32.2525
875.678	31.8195
875.728	28.2968
875.779	32.7207
875.829	33.5759
875.879	26.8237
875.93	33.4473
875.98	29.7121
876.031	33.7792
876.081	27.7381
876.132	30.6777
876.182	32.3335
876.232	34.7616
876.283	30.1655
876.333	26.7085
876.384	27.9164
876.434	28.5705
876.485	28.2366
876.535	31.3144
876.585	34.3503
876.636	28.825
876.686	26.8357
876.737	29.6201
876.787	33.4864
876.838	33.7986
876.888	27.7629
876.938	30.5645
876.989	35.0728
877.039	33.7574
877.09	26.8373
877.14	27.6936
877.191	31.6617
877.241	37.8435
877.291	30.0511
877.342	32.8965
877.392	35.4015
877.443	30.7803
877.493	27.7001
877.544	27.8587
877.594	34.5736
877.644	37.3331
877.695	26.3366
877.745	31.3622
877.796	34.4972
877.846	29.5273
877.896	25.2365
877.947	33.4
877.997	31.3064
878.048	27.5186
878.098	26.5653
878.148	33.7546
878.199	30.825
878.249	27.6281
878.3	27.7605
878.35	34.0431
878.4	34.2984
878.451	32.8339
878.501	26.4001
878.552	29.0733
878.602	32.1516
878.653	26.6783
878.703	27.7367
878.753	30.9692
878.804	32.4526
878.854	30.9563
878.904	29.1429
878.955	32.5135
879.005	34.579
879.056	28.8841
879.106	23.8497
879.156	35.8107
879.207	39.2304
879.257	23.1
879.308	30.1896
879.358	35.6152
879.408	35.7013
879.459	25.605
879.509	29.4105
879.56	34.6537
879.61	32.6884
879.66	27.9589
879.711	23.6144
879.761	28.2563
879.812	33.5429
879.862	27.4005
879.912	22.993
879.963	37.7835
880.013	32.8868
880.063	30.4421
880.114	29.5027
880.164	31.6684
880.215	33.3033
880.265	27.2562
880.315	31.9036
880.366	38.9211
880.416	30.7901
880.467	28.791
880.517	27.1054
880.567	35.5156
880.618	31.8717
880.668	28.7219
880.718	26.3172
880.769	33.9272
880.819	30.8648
880.87	31.0576
880.92	30.6915
880.97	27.1949
881.021	35.4752
881.071	28.0503
881.121	28.5655
881.172	30.7554
881.222	29.5853
881.273	30.701
881.323	30.0596
881.373	31.4465
881.424	35.1111
881.474	29.647
881.524	26.9597
881.575	34.4333
881.625	34.267
881.675	29.2804
881.726	35.1071
881.776	30.1069
881.826	31.882
881.877	26.2218
881.927	33.7393
881.978	28.0232
882.028	32.977
882.078	28.5038
882.129	32.704
882.179	28.5209
882.229	32.0578
882.28	25.425
882.33	29.3644
882.38	31.9955
882.431	28.3571
882.481	31.385
882.531	35.9054
882.582	33.1122
882.632	28.8853
882.682	24.2425
882.733	30.4014
882.783	32.8092
882.834	29.7558
882.884	28.3192
882.934	35.2725
882.985	31.4727
883.035	31.9291
883.085	26.7025
883.136	27.2026
883.186	30.8007
883.236	30.5423
883.287	26.4624
883.337	34.8229
883.387	34.2139
883.438	33.6585
883.488	25.9931
883.538	30.7826
883.589	32.2402
883.639	30.462
883.689	29.6475
883.74	34.1823
883.79	32.0988
883.84	30.4158
883.891	32.5593
883.941	31.1267
883.991	32.6679
884.042	29.1603
884.092	30.8686
884.142	34.8621
884.193	31.3162
884.243	28.168
884.293	29.3622
884.344	30.4014
884.394	32.4728
884.444	29.8221
884.495	29.9994
884.545	31.3539
884.595	29.3441
884.646	26.9264
884.696	26.7663
884.746	31.1739
884.797	32.8058
884.847	32.6604
884.897	31.373
884.947	32.9903
884.998	29.4884
885.048	27.3409
885.098	29.939
885.149	31.4973
885.199	31.2809
885.249	28.0576
885.3	28.8857
885.35	30.1191
885.4	32.6205
885.451	30.3112
885.501	31.1009
885.551	30.6731
885.602	30.5206
885.652	27.2156
885.702	24.0224
885.752	27.175
885.803	29.1959
885.853	26.6445
885.903	30.6751
885.954	30.523
886.004	33.4339
886.054	31.9527
886.105	30.9305
886.155	31.5656
886.205	29.6994
886.255	27.577
886.306	29.6278
886.356	33.6793
886.406	34.2702
886.457	30.1751
886.507	28.8089
886.557	30.1876
886.608	30.0439
886.658	28.7458
886.708	33.3841
886.758	30.8176
886.809	34.5965
886.859	29.4516
886.909	31.2527
886.96	30.5085
887.01	30.1472
887.06	29.2276
887.11	31.2499
887.161	30.2731
887.211	35.5567
887.261	32.3365
887.312	29.0988
887.362	29.8619
887.412	27.7729
887.462	27.7198
887.513	30.4427
887.563	31.173
887.613	36.2508
887.664	30.6949
887.714	30.22
887.764	30.7548
887.814	29.4028
887.865	29.3345
887.915	30.1538
887.965	31.5279
887.987	33.2672
888.038	29.7298
888.088	29.2908
888.138	31.4033
888.189	29.6151
888.239	29.5826
888.289	27.3158
888.34	33.2452
888.39	31.1209
888.441	29.9924
888.491	27.1475
888.542	30.5644
888.592	30.6184
888.642	29.8253
888.693	29.3838
888.743	33.0645
888.793	32.2288
888.844	29.254
888.894	31.3253
888.945	30.6311
888.995	30.533
889.045	30.5784
889.096	28.9611
889.146	30.1947
889.197	32.9298
889.247	27.3642
889.297	31.9097
889.348	33.2847
889.398	31.0725
889.448	24.913
889.499	31.5075
889.549	33.6626
889.6	32.0848
889.65	25.3455
889.7	32.3264
889.751	27.5736
889.801	33.4288
889.851	31.3686
889.902	31.0534
889.952	31.121
890.003	30.0247
890.053	25.5494
890.103	32.9479
890.154	31.7846
890.204	33.5519
890.254	24.8804
890.305	29.1078
890.355	27.3511
890.406	26.0847
890.456	24.9112
890.506	26.7666
890.557	26.5521
890.607	28.0833
890.657	26.1527
890.708	26.6061
890.758	30.0673
890.808	29.6593
890.859	28.168
890.909	33.1385
890.96	26.8377
891.01	29.6856
891.06	21.859
891.111	27.9247
891.161	30.0706
891.211	29.066
891.262	27.9652
891.312	27.06
891.362	29.4349
891.413	33.403
891.463	24.4532
891.513	26.7827
891.564	29.1384
891.614	26.0229
891.665	26.0354
891.715	29.2137
891.765	31.2045
891.816	25.1682
891.866	27.7158
891.916	30.5997
891.967	27.1643
892.017	29.6673
892.067	30.2214
892.118	29.77
892.168	29.1106
892.218	28.4544
892.269	25.7393
892.319	31.825
892.369	31.0224
892.42	26.8339
892.47	26.0477
892.52	30.2041
892.571	32.2476
892.621	29.1292
892.671	27.0858
892.722	28.9189
892.772	32.4092
892.822	27.6106
892.873	26.4705
892.923	29.9006
892.973	29.1209
893.024	28.3586
893.074	27.2047
893.124	31.0673
893.175	32.1045
893.225	28.2775
893.275	29.7642
893.326	30.514
893.376	30.1682
893.426	24.2334
893.477	24.8454
893.527	30.0408
893.577	31.8737
893.628	27.6336
893.678	28.7391
893.728	31.2222
893.779	31.5831
893.829	25.7554
893.879	28.3879
893.93	28.6209
893.98	31.1794
894.03	28.1274
894.081	28
894.131	28.2857
894.181	29.5054
894.232	25.0225
894.282	29.9343
894.332	26.1067
894.383	29.0137
894.433	25.2882
894.483	25.7194
894.533	29.3725
894.584	26.3301
894.634	23.1937
894.684	30.2959
894.735	32.7611
894.785	31.23
894.835	26.0242
894.886	29.729
894.936	30.949
894.986	26.4066
895.037	27.1958
895.087	29.5878
895.137	28.1599
895.188	29.6898
895.238	23.2754
895.288	27.8291
895.338	30.6667
895.389	31.1329
895.439	28.4224
895.489	31.5176
895.54	28.791
895.59	31.2603
895.64	24.41
895.69	28.6667
895.741	27.1319
895.791	27.6646
895.841	29.582
895.892	31.2707
895.942	30.5628
895.992	25.9058
896.043	25.9504
896.093	29.4112
896.143	31.3887
896.193	26.2302
896.244	27.9941
896.294	31.579
896.344	31.299
896.395	30.8854
896.445	28.976
896.495	33.2806
896.545	30.3551
896.596	31.1794
896.646	26.1109
896.696	29.5749
896.747	27.5583
896.797	27.3679
896.847	27.7995
896.897	30.5012
896.948	28.187
896.998	26.4227
897.048	26.2716
897.099	31.897
897.149	30.7044
897.199	28.3814
897.249	26.2057
897.3	27.9442
897.35	29.7664
897.4	28.5658
897.451	26.9588
897.501	32.8563
897.551	31.9312
897.601	29.4371
897.652	28.6672
897.702	31.0685
897.752	28.0771
897.802	28.7636
897.853	28.4482
897.903	28.9069
897.953	25.6043
898.003	23.7256
898.054	31.7472
898.104	26.7666
898.154	32.0346
898.204	25.6723
898.255	24.4306
898.305	29.4502
898.355	31.6921
898.406	30.3353
898.456	31.0903
898.506	27.8952
898.556	26.9352
898.607	24.1489
898.657	27.458
898.707	27.2244
898.757	26.88
898.808	24.9477
898.858	29.3725
898.908	25.5576
898.958	32.4934
899.009	22.4221
899.059	28.2192
899.109	29.0401
899.159	32.6157
899.21	27.6023
899.26	26.3936
899.31	28.8533
899.36	26.6001
899.411	28.3779
899.461	28.872
899.511	30.3329
899.561	31.5482
899.612	23.4143
899.662	29.2846
899.712	27.4869
899.762	29.4848
899.813	29.2989
899.863	31.8831
899.913	26.6173
899.963	27.3333
