#Acq. time (s)=	2
#Accumulations=	3
#Range (nm)=	520...900
#Windows=	24
#Auto scanning=	On
#Autofocus=	Off
#AutoExposure=	Off
#Spike filter=	Multiple accum.
#Delay time (s)=	0
#Binning=	1
#Readout mode=	Signal
#DeNoise=	Off
#ICS correction=	Off
#Dark correction=	Off
#Inst. Process=	Off
#Detector temperature (°C)=	-59.98
#Instrument=	LabRAM HR Evol
#Detector=	Syncerity OE
#Objective=	x50_VIS
#Grating=	600 (500nm)
#ND Filter=	10%
#Laser=	514nm_Edge
#Hole=	199.981
#Range=	Auto
#StageXY=	Marzhauser
#StageZ=	Marzhauser
#X (µm)=	3020.4
#Y (µm)=	819.6
#Z (µm)=	60.3
#Full time(mm:ss)=	3:03
#Project=	
#Sample=	
#Site=	
#Title=	M4_140224
#Remark=	
#Date=	19.02.2024 14:21
#Acquired=	19.02.2024 14:21:13
520.013	41.9581
520.065	39.345
520.117	39.4957
520.17	37.4616
520.222	39.6308
520.274	41.8976
520.327	36.2455
520.379	37.0964
520.431	37.2471
520.483	40.6713
520.536	37.9922
520.588	37.9946
520.64	38.3496
520.693	39.6903
520.745	37.5524
520.797	39.7056
520.85	40.1576
520.902	37.7816
520.954	43.0493
521.007	43.5868
521.059	39.5663
521.111	35.0753
521.163	41.2053
521.216	43.0149
521.268	40.9639
521.32	37.131
521.373	37.4671
521.425	40.931
521.477	37.2112
521.529	32.8568
521.582	36.9125
521.634	39.9589
521.686	38.7783
521.739	37.2705
521.791	42.3733
521.843	42.2734
521.896	41.3838
521.948	37.3333
522	40.4429
522.052	42.4478
522.105	40.6765
522.157	37.8909
522.209	41.4099
522.262	39.5243
522.314	41.9348
522.366	38.9928
522.418	36.5043
522.471	39.8308
522.523	41.3988
522.575	39.9909
522.628	39.9429
522.68	41.635
522.732	39.357
522.784	42.5037
522.837	42.7554
522.889	44.9242
522.941	41.0985
522.994	33.697
523.046	39.3644
523.098	39.6127
523.15	43.0596
523.203	35.3416
523.255	40.3714
523.307	44.9597
523.36	41.2479
523.412	38.1229
523.464	40.9969
523.516	40.7552
523.569	40.6011
523.621	42.6667
523.673	40.6153
523.726	38.8187
523.778	37.9984
523.83	38.6782
523.882	38.849
523.935	43.6993
523.987	44.6685
524.039	40.086
524.091	42.3619
524.144	40.6704
524.196	42.2639
524.248	40.8493
524.301	40.345
524.353	43.6849
524.405	39.7501
524.457	37.5174
524.51	37.4602
524.562	39.5116
524.614	37.04
524.666	37.1042
524.719	37.6527
524.771	41.7638
524.823	39.271
524.875	38.657
524.928	41.875
524.98	43.4763
525.032	39.0047
525.085	38.9878
525.137	38.8689
525.189	38.4747
525.241	37.005
525.294	40.457
525.346	38.8664
525.398	41.0537
525.45	34.4604
525.503	40.6698
525.555	40.6084
525.607	40.43
525.659	40.3343
525.712	40.075
525.764	42.9215
525.816	43.1624
525.868	35.826
525.921	43.2726
525.973	40.3788
526.025	40.4537
526.077	36.7565
526.13	39.6394
526.182	43.2131
526.234	46.8508
526.286	38.3012
526.339	40.4724
526.391	43.1717
526.443	42.7451
526.495	38.17
526.548	36.6039
526.6	39.6397
526.652	40.8663
526.704	39.0319
526.757	40.9708
526.809	39.7137
526.861	38.4807
526.913	40.586
526.966	40.3875
527.018	43.136
527.07	42.2591
527.122	41.6791
527.175	46.3235
527.227	40.5455
527.279	40.9066
527.331	38.6671
527.384	40.7783
527.436	39.5307
527.488	41.0179
527.54	37.2987
527.593	37.7664
527.645	41.7009
527.697	38.6333
527.749	40.4048
527.802	39.6112
527.854	42.5563
527.906	39.1703
527.958	38.9147
528.011	39.3687
528.063	37.1538
528.115	40.1254
528.167	41.8822
528.219	35.861
528.272	38.1597
528.324	41.9887
528.376	40.857
528.428	41.8113
528.481	42.004
528.533	37.346
528.585	37.4133
528.637	39.5394
528.69	39.7032
528.742	36.0193
528.794	40.8599
528.846	43.273
528.898	41.0818
528.951	38.2561
529.003	38.8497
529.055	40.4709
529.107	37.3882
529.16	39.7191
529.212	39.3843
529.264	39.0414
529.316	40.9137
529.369	38.7704
529.421	41.4628
529.473	37.57
529.525	38.3918
529.577	36.7307
529.63	39.5768
529.682	39.7821
529.734	38.5375
529.786	35.1687
529.839	37.4538
529.891	40.3604
529.943	39.5258
529.995	39.3821
530.047	41.3153
530.1	40.0642
530.152	41.0685
530.204	40.7109
530.256	37.5884
530.308	40.6477
530.361	38.6774
530.413	36.5963
530.465	43.2458
530.517	42.4931
530.57	40.7607
530.622	35.1723
530.674	40.0895
530.726	41.2866
530.778	41.5201
530.831	39.113
530.883	41.2028
530.935	40.1361
530.987	41.7566
531.039	39.8143
531.092	39.4629
531.144	35.6602
531.196	40.1923
531.248	37.7654
531.3	40.2303
531.353	41.0539
531.405	39.6452
531.457	39.0716
531.509	37.4005
531.561	40.5749
531.614	44.1319
531.666	43.4312
531.718	36.8228
531.77	42.2753
531.822	46.2622
531.875	44.5708
531.927	40.2521
531.979	42.9972
532.031	47.2658
532.083	43.126
532.136	35.761
532.188	38.6997
532.24	42.9001
532.292	40.8008
532.344	41.4033
532.397	44.9129
532.449	44.9246
532.501	39.2018
532.553	45.7868
532.605	42.0068
532.658	43.8265
532.71	39.2346
532.762	43.5506
532.814	46.3945
532.866	43.5578
532.919	46.4374
532.971	41.9772
533.023	44.1645
533.075	42.5291
533.127	45.4373
533.179	43.3242
533.232	48.3264
533.284	44.4507
533.336	42.6398
533.388	46.7364
533.44	47.667
533.493	44.1972
533.545	49.0132
533.597	44.254
533.649	44.6007
533.701	45.733
533.753	46.062
533.806	46.0232
533.858	48.5055
533.91	48.0264
533.962	53.1398
534.014	53.4879
534.067	50.0127
534.119	49.987
534.171	57.5811
534.223	57.4089
534.275	62.2257
534.327	58.721
534.38	63.2388
534.432	64.5537
534.484	66.8957
534.536	67.3757
534.588	66.219
534.641	71.7712
534.693	70.3668
534.745	70.4309
534.797	66.9991
534.849	75.6463
534.901	78.1683
534.953	78.9163
535.006	75.4072
535.058	80.9391
535.11	83.3713
535.162	78.068
535.214	78.4705
535.267	79.8365
535.319	80.3975
535.371	76.6225
535.423	71.5719
535.475	66.9782
535.527	68.0436
535.58	73.4615
535.632	67.7948
535.684	65.2304
535.736	66.0281
535.788	62.6158
535.84	62.7971
535.892	61.1924
535.945	59.7275
535.997	59.1438
536.049	59.2768
536.101	60.2108
536.153	57.5737
536.205	52.0936
536.258	58.0244
536.31	56.3141
536.362	54.1547
536.414	55.7233
536.466	48.8824
536.518	49.8798
536.57	56.4926
536.623	50.9875
536.675	49.5563
536.727	55.5035
536.779	50.546
536.831	48.8323
536.883	54.6202
536.936	53.9386
536.988	51.9092
537.04	49.208
537.092	49.9352
537.144	48.3023
537.196	51.8531
537.248	44.306
537.301	50.1709
537.353	48.099
537.405	47.4087
537.457	46.5162
537.509	47.526
537.561	50.6945
537.613	48.6325
537.666	49.7921
537.718	46.2098
537.77	47.1584
537.778	46.8367
537.831	46.3144
537.883	46.8574
537.935	49.0006
537.987	49.2754
538.04	45.301
538.092	38.3159
538.144	43.9438
538.196	52.6416
538.249	52.1855
538.301	47.4322
538.353	50.2279
538.405	44.0807
538.457	48.3625
538.51	48.0316
538.562	45.7958
538.614	45.7462
538.666	42.8944
538.719	49.2268
538.771	53.06
538.823	48.902
538.875	50.0268
538.927	45.1036
538.98	44.4264
539.032	49.8581
539.084	44.4728
539.136	40.501
539.189	47.142
539.241	46.9137
539.293	45.171
539.345	43.2748
539.397	43.4745
539.45	48.1619
539.502	43.2285
539.554	45.0345
539.606	48.5608
539.659	49.3539
539.711	43.3276
539.763	40.3076
539.815	47.285
539.867	50.5402
539.92	43.4346
539.972	48.8799
540.024	49.0804
540.076	44.7682
540.128	50.4793
540.181	47.6226
540.233	47.8124
540.285	50.9409
540.337	44.713
540.39	48.4498
540.442	52.7989
540.494	50.3852
540.546	43.3771
540.598	47.7818
540.651	45.7572
540.703	51.3742
540.755	43.7451
540.807	46.4934
540.859	46.5036
540.912	50.2235
540.964	48.0254
541.016	49.6058
541.068	51.771
541.12	53.3117
541.173	48.5708
541.225	50.2203
541.277	52.7145
541.329	50.2035
541.381	49.2462
541.434	51.608
541.486	55.791
541.538	51.1507
541.59	48.5578
541.642	48.5964
541.695	49.0995
541.747	48.4993
541.799	52.0457
541.851	53.4739
541.903	55.7527
541.956	53.9854
542.008	49.972
542.06	55.6751
542.112	60.0413
542.164	54.7266
542.217	49.3221
542.269	56.6316
542.321	48.2964
542.373	51.6482
542.425	57.104
542.478	55.2669
542.53	50.529
542.582	56.2534
542.634	50.4831
542.686	62.4263
542.738	60.7509
542.791	56.0476
542.843	52.8931
542.895	56.7464
542.947	52.7983
542.999	57.0549
543.052	51.5353
543.104	58.0146
543.156	53.2853
543.208	54.8439
543.26	57.5338
543.313	50.7401
543.365	52.8302
543.417	54.4243
543.469	47.6284
543.521	59.8257
543.573	63.2948
543.626	59.327
543.678	56.1775
543.73	56.6781
543.782	61.1555
543.834	55.9389
543.886	55.5115
543.939	56.4323
543.991	58.7627
544.043	64.0177
544.095	57.1372
544.147	55.4091
544.2	63.332
544.252	55.1446
544.304	62.2699
544.356	59.4808
544.408	58.9427
544.46	55.4418
544.513	56.059
544.565	57.5071
544.617	52.0239
544.669	56.6442
544.721	61.2619
544.773	64.0751
544.826	53.0598
544.878	58.8974
544.93	59.7782
544.982	61.0874
545.034	58.5468
545.086	56.5089
545.139	63.2018
545.191	59.9577
545.243	58.0986
545.295	55.8055
545.347	60.8178
545.399	58.9417
545.452	60.6635
545.504	56.6304
545.556	64.6711
545.608	63.1589
545.66	59.8796
545.712	61.026
545.765	64.5683
545.817	59.4163
545.869	61.3202
545.921	57.9068
545.973	57.1045
546.025	58.6692
546.077	62.3147
546.13	58.3227
546.182	69.2303
546.234	58.2096
546.286	59.2811
546.338	55.7142
546.39	62.9779
546.443	63.4514
546.495	62.026
546.547	60.5336
546.599	62.6008
546.651	60.4756
546.703	64.906
546.755	60.468
546.808	68.9927
546.86	63.5785
546.912	63.3683
546.964	54.7715
547.016	58.9896
547.068	65.1039
547.12	62.8825
547.173	57.4056
547.225	65.9707
547.277	65.5513
547.329	63.3923
547.381	65.6622
547.433	69.0428
547.485	66.3079
547.538	68.4133
547.59	57.3592
547.642	60.9707
547.694	65.0109
547.746	59.6725
547.798	65.6261
547.85	66.2213
547.903	63.8021
547.955	64.353
548.007	61.2753
548.059	66.1988
548.111	64.5018
548.163	65.6572
548.215	67.3169
548.268	68.9047
548.32	66.6083
548.372	65.9532
548.424	70.4098
548.476	66.6676
548.528	65.6679
548.58	62.8549
548.633	67.6119
548.685	71.1359
548.737	66.5434
548.789	64.7363
548.841	62.8901
548.893	67.6156
548.945	65.2601
548.997	64.875
549.049	67.4433
549.102	67.0011
549.154	65.9318
549.206	62.7461
549.258	67.854
549.31	71.769
549.362	73.6587
549.414	64.9514
549.467	67.4407
549.519	69.3856
549.571	75.0374
549.623	65.5409
549.675	69.8245
549.727	71.8187
549.779	72.0533
549.831	69.8384
549.883	72.8882
549.936	75.9858
549.988	75.4446
550.04	71.1557
550.092	67.8863
550.144	67.1534
550.196	72.4961
550.248	67.7061
550.3	75.4615
550.353	72.0285
550.405	76.1193
550.457	71.4528
550.509	73.4103
550.561	75.6544
550.613	78.5255
550.665	75.2483
550.717	80.2402
550.769	80.8142
550.822	79.1117
550.874	75.7332
550.926	78.5324
550.978	75.7817
551.03	82.3275
551.082	82.0139
551.134	80.6389
551.186	80.0118
551.238	86.697
551.291	79.1506
551.343	80.5806
551.395	90.0467
551.447	94.0242
551.499	90.9672
551.551	92.5296
551.603	89.351
551.655	96.4354
551.707	93.9424
551.759	93.2263
551.812	101.378
551.864	93.806
551.916	109.148
551.968	119.902
552.02	119.829
552.072	120.531
552.124	128.066
552.176	143.745
552.228	162.527
552.28	185.64
552.332	239.932
552.385	368.201
552.437	755.937
552.489	1550.57
552.541	2902.18
552.593	5160.45
552.645	7795.44
552.697	7664.75
552.749	4782.16
552.801	2176.42
552.853	874.128
552.905	410.592
552.958	260.434
553.01	199.195
553.062	168.631
553.114	149.697
553.166	140.157
553.218	129.539
553.27	123.691
553.322	111.237
553.374	109.34
553.426	103.794
553.478	105.315
553.531	98.8198
553.583	101.19
553.635	97.5804
553.687	98.0882
553.739	88.6324
553.791	95.4407
553.843	100.069
553.895	99.0529
553.947	92.8904
553.999	97.4866
554.051	85.9266
554.103	85.5971
554.155	92.2825
554.208	97.2885
554.26	92.5098
554.312	89.6251
554.364	91.0654
554.416	94.5157
554.468	90.6925
554.52	93.0784
554.572	92.8372
554.624	92.2283
554.676	89.6464
554.728	92.2782
554.78	86.8602
554.832	91.38
554.884	96.0231
554.937	92.2999
554.989	86.979
555.041	88.1847
555.093	90.6153
555.145	91.6503
555.197	92.5492
555.249	89.2385
555.301	89.4812
555.353	89.1057
555.405	90.9944
555.457	92.5012
555.509	89.0235
555.529	87.0872
555.582	91.8939
555.634	90.9927
555.686	96.9074
555.738	97.9079
555.79	97.0635
555.842	81.1139
555.895	87.8516
555.947	94.7591
555.999	91.9602
556.051	92.7489
556.103	98.8562
556.155	99.8634
556.207	95.3286
556.26	93.0004
556.312	92.2123
556.364	96.639
556.416	96.0265
556.468	89.721
556.52	93.9197
556.573	100.556
556.625	88.8018
556.677	100.627
556.729	101.442
556.781	94.5295
556.833	98.6767
556.885	101.727
556.938	99.7502
556.99	104.56
557.042	94.8326
557.094	104.262
557.146	102.098
557.198	99.4881
557.25	95.316
557.302	97.4458
557.355	96.9623
557.407	102.039
557.459	102.872
557.511	99.6978
557.563	96.4079
557.615	107.019
557.667	93.4511
557.72	106.953
557.772	99.0289
557.824	111.008
557.876	96.562
557.928	103.737
557.98	100.831
558.032	99.7425
558.085	99.373
558.137	104.147
558.189	104.65
558.241	108.143
558.293	108.444
558.345	107.998
558.397	108.652
558.449	113.467
558.502	106.701
558.554	104.747
558.606	107.292
558.658	105.032
558.71	107.764
558.762	113.248
558.814	113.802
558.866	119.038
558.919	110.284
558.971	115.838
559.023	104.707
559.075	104.14
559.127	95.1442
559.179	106.628
559.231	111.257
559.283	110.989
559.336	110.283
559.388	110.378
559.44	109.501
559.492	108.298
559.544	106.472
559.596	112.08
559.648	114.324
559.7	112.226
559.753	109.088
559.805	111.762
559.857	112.84
559.909	111.435
559.961	110.768
560.013	99.2452
560.065	113.549
560.117	115.98
560.169	105.924
560.222	112.154
560.274	114.069
560.326	114.677
560.378	117.358
560.43	116.267
560.482	118.074
560.534	119.195
560.586	119.791
560.638	117.868
560.69	119.262
560.743	117.341
560.795	121.295
560.847	122.715
560.899	118.175
560.951	114.955
561.003	114.993
561.055	121.08
561.107	122.707
561.159	121.544
561.212	123.853
561.264	123.365
561.316	122.491
561.368	124.927
561.42	122.455
561.472	130.276
561.524	133.205
561.576	125.557
561.628	127.478
561.68	123.062
561.733	127.873
561.785	122.801
561.837	128.287
561.889	129.486
561.941	136.923
561.993	130.446
562.045	125.751
562.097	127.062
562.149	125.895
562.201	126.537
562.253	133.677
562.306	130.187
562.358	124.619
562.41	129.432
562.462	132.584
562.514	128.705
562.566	134.106
562.618	129.602
562.67	135.366
562.722	134.598
562.774	132.314
562.826	128.462
562.879	140.049
562.931	134.741
562.983	132.008
563.035	128.52
563.087	128.378
563.139	139.588
563.191	137.537
563.243	132.343
563.295	144.415
563.347	142.751
563.399	138.745
563.451	140.381
563.504	136.635
563.556	139.905
563.608	142.104
563.66	143.717
563.712	144.365
563.764	139.826
563.816	137.798
563.868	142.755
563.92	141.25
563.972	145.539
564.024	140.956
564.076	145.329
564.128	142.639
564.181	144.173
564.233	137.497
564.285	140.416
564.337	148.242
564.389	146.126
564.441	144.217
564.493	150.806
564.545	152.152
564.597	148.065
564.649	150.537
564.701	144.181
564.753	139.315
564.805	144.937
564.857	151.068
564.909	153.079
564.962	150.99
565.014	147.363
565.066	150.141
565.118	157.829
565.17	154.51
565.222	156.914
565.274	150.185
565.326	152.373
565.378	151.983
565.43	158.048
565.482	159.4
565.534	157.534
565.586	156.79
565.638	156.861
565.69	159.93
565.742	162.363
565.795	156.056
565.847	158.291
565.899	154.98
565.951	160.347
566.003	157.988
566.055	157.718
566.107	158.46
566.159	162.544
566.211	158.459
566.263	158.96
566.315	157.439
566.367	160.476
566.419	167.61
566.471	162.211
566.523	155.095
566.575	159.078
566.627	164.865
566.679	164.576
566.732	160.658
566.784	168.762
566.836	168.839
566.888	164.361
566.94	161.709
566.992	166.432
567.044	166.377
567.096	170.421
567.148	172.585
567.2	171.27
567.252	166.514
567.304	164.702
567.356	164.986
567.408	175.661
567.46	173.742
567.512	172.097
567.564	168.772
567.616	169.66
567.668	176.936
567.72	178.555
567.772	167.758
567.824	170.448
567.876	176.395
567.928	172.401
567.98	171.564
568.033	179.46
568.085	183.581
568.137	176.437
568.189	170.7
568.241	177.892
568.293	183.645
568.345	177.47
568.397	183.127
568.449	180.358
568.501	176.543
568.553	179.245
568.605	184.32
568.657	181.851
568.709	179.386
568.761	178.866
568.813	182.486
568.865	184.704
568.917	185.918
568.969	183.45
569.021	189.605
569.073	192.763
569.125	190.641
569.177	188.023
569.229	183.22
569.281	183.596
569.333	184.565
569.385	191.826
569.437	194.438
569.489	194.622
569.541	197.9
569.593	189.336
569.645	189.911
569.697	198.389
569.749	201.612
569.801	196.881
569.853	198.167
569.905	202.945
569.957	204.385
570.009	200.296
570.061	200.389
570.113	201.34
570.165	207.202
570.217	208.789
570.269	206.778
570.321	204.94
570.374	211.312
570.426	212.827
570.478	209.979
570.53	206.282
570.582	216.214
570.634	219.539
570.686	215.933
570.738	217.575
570.79	217.312
570.842	214.459
570.894	219.748
570.946	225.269
570.998	223.652
571.05	223.714
571.102	224.728
571.154	226.825
571.206	233.351
571.258	232.704
571.31	231.341
571.362	235.395
571.414	235.281
571.466	239.604
571.518	238.799
571.57	235.573
571.622	240.256
571.674	251.025
571.726	252.095
571.778	253.538
571.83	246.446
571.882	264.005
571.934	268.313
571.986	261.923
572.038	261.269
572.09	269.111
572.142	264.908
572.194	267.001
572.246	262.561
572.298	262.123
572.349	273.931
572.401	278.768
572.453	275.286
572.505	284.363
572.557	291.431
572.609	292.709
572.661	292.118
572.713	290.173
572.765	302.598
572.817	294.54
572.869	298.472
572.921	309.368
572.973	315.121
573.025	312.402
573.077	311.47
573.129	325.685
573.181	323.953
573.212	328.645
573.264	322.201
573.316	332.498
573.368	339.858
573.421	339.548
573.473	352.494
573.525	344.759
573.577	356.18
573.629	373.379
573.681	361.504
573.733	364.017
573.785	371.952
573.837	377.551
573.889	375.091
573.941	375.96
573.993	397.543
574.045	396.265
574.097	409.175
574.15	416.849
574.202	411.894
574.254	424.751
574.306	425.38
574.358	431.051
574.41	448.904
574.462	451.669
574.514	449.386
574.566	455.527
574.618	459.939
574.67	476.517
574.722	487.854
574.774	486.118
574.826	507.3
574.878	508.579
574.931	525.286
574.983	532.697
575.035	546.235
575.087	546.437
575.139	545.569
575.191	557.54
575.243	545.734
575.295	570.13
575.347	566.333
575.399	578.119
575.451	582.172
575.503	581.805
575.555	582.576
575.607	573.847
575.659	589.846
575.711	611.687
575.763	601.598
575.815	598.721
575.868	589.398
575.92	602.072
575.972	598.967
576.024	603.397
576.076	605.441
576.128	586.082
576.18	586.281
576.232	575.956
576.284	587.255
576.336	576.257
576.388	586.414
576.44	586.551
576.492	583.53
576.544	566.367
576.596	567.757
576.648	563.118
576.7	565.264
576.752	545.526
576.804	537.863
576.856	538.845
576.909	533.561
576.961	518.218
577.013	504.7
577.065	514.523
577.117	509.273
577.169	492.631
577.221	502.116
577.273	491.958
577.325	486.392
577.377	488.6
577.429	470.202
577.481	475.401
577.533	455.293
577.585	448.454
577.637	441.662
577.689	450.858
577.741	455.492
577.793	442.084
577.845	435.74
577.897	444.732
577.949	427.057
578.001	435.532
578.053	431.811
578.105	418.631
578.157	423.117
578.209	411.428
578.261	414.062
578.313	409.36
578.365	415.28
578.417	409.108
578.469	412.792
578.522	408.711
578.574	405.319
578.626	405.34
578.678	398.813
578.73	396.279
578.782	390.621
578.834	385.046
578.886	391.963
578.938	391.158
578.99	394.217
579.042	385.174
579.094	373.686
579.146	378.458
579.198	385.682
579.25	387.54
579.302	392.794
579.354	391.426
579.406	385.195
579.458	376.657
579.51	381.903
579.562	380.497
579.614	383.473
579.666	387.712
579.718	384.509
579.77	382.839
579.822	389.012
579.874	383.294
579.926	385.698
579.978	385.116
580.03	390.139
580.082	377.658
580.134	384.175
580.186	392.466
580.238	380.544
580.29	380.842
580.342	385.621
580.394	381.024
580.446	394.095
580.498	385.967
580.55	387.628
580.602	380.929
580.654	382.742
580.706	381.145
580.758	387.177
580.81	389.572
580.862	382.084
580.914	390.529
580.966	387.843
581.018	379.752
581.07	394.361
581.122	381.755
581.174	390.919
581.226	393.493
581.278	389.447
581.33	389.055
581.382	385.394
581.434	382.967
581.486	392.222
581.538	405.094
581.59	399.75
581.642	394.248
581.694	399.017
581.746	403.781
581.798	404.444
581.85	410.276
581.902	409.572
581.954	402.636
582.006	396.84
582.058	400.529
582.11	411.585
582.162	410.802
582.214	404.062
582.266	406.364
582.318	415.42
582.37	410.707
582.422	419.854
582.474	413.28
582.526	412.518
582.578	408.078
582.63	420.192
582.682	417.328
582.734	407.612
582.786	413.52
582.838	425.741
582.89	429.226
582.942	431.346
582.994	418.553
583.046	417.3
583.098	416.32
583.15	425.44
583.202	435.051
583.254	435.418
583.306	425.518
583.358	429.217
583.41	426.943
583.462	433.601
583.514	437.343
583.566	437.473
583.618	426.658
583.67	430.472
583.721	440.603
583.773	434.853
583.825	434.184
583.877	444.342
583.929	446.856
583.981	450.665
584.033	438.244
584.085	441.702
584.137	447.103
584.189	438.767
584.241	442.037
584.293	462.161
584.345	456.86
584.397	454.055
584.449	461.102
584.501	455.676
584.553	457.179
584.605	457.626
584.657	460.591
584.709	462.973
584.761	470.892
584.813	472.679
584.865	472.488
584.917	465.611
584.969	470.646
585.021	473.132
585.073	473.993
585.125	481.589
585.177	484.011
585.229	478.445
585.281	489.108
585.332	489.035
585.384	491.837
585.436	491.235
585.488	496.144
585.54	494.513
585.592	498.805
585.644	489.277
585.696	491.854
585.748	494.817
585.8	496.036
585.852	498.659
585.904	494.3
585.956	487.334
586.008	497.138
586.06	501.278
586.112	502.76
586.164	511.439
586.216	503.546
586.268	487.333
586.32	500.699
586.371	508.874
586.423	513.195
586.475	518.534
586.527	515.32
586.579	510.025
586.631	510.889
586.683	507.281
586.735	511.345
586.787	505.547
586.839	519.993
586.891	517.09
586.943	519.464
586.995	522.715
587.047	527.472
587.099	538.392
587.151	529.519
587.203	515.973
587.255	535.81
587.306	531.714
587.358	527.87
587.41	535.513
587.462	541.35
587.514	529.984
587.566	529.084
587.618	534.008
587.67	532.683
587.722	531.873
587.774	526.553
587.826	530.911
587.878	533.939
587.93	529.305
587.982	534.764
588.034	537.497
588.085	533.496
588.137	535.912
588.189	533.733
588.241	542.674
588.293	549.094
588.345	546.814
588.397	525.391
588.449	535.154
588.501	537.499
588.553	535.462
588.605	539.258
588.657	538.457
588.709	537.103
588.76	551.625
588.812	545.049
588.864	548.222
588.916	553.458
588.968	551.565
589.02	544.96
589.072	544.058
589.124	531.1
589.176	553.099
589.228	559.155
589.28	545.277
589.332	548.387
589.383	545.622
589.435	552.777
589.487	561.278
589.539	548.48
589.591	545.209
589.643	541.848
589.695	566.14
589.747	558.855
589.799	554.24
589.851	552.019
589.903	555.304
589.955	557.027
590.006	556.94
590.058	556.387
590.11	558.929
590.162	552.587
590.214	540.539
590.266	549.194
590.318	554.866
590.37	551.453
590.422	548.649
590.474	570.387
590.525	559.277
590.577	548.966
590.629	541.445
590.681	552.497
590.733	552.684
590.785	542.039
590.837	545.353
590.889	539.101
590.932	549.932
590.984	543.048
591.036	553.787
591.088	548.991
591.14	559.987
591.192	545.862
591.244	550.398
591.296	544.94
591.348	549.985
591.4	548.869
591.452	549.92
591.504	542.523
591.556	531.224
591.608	540.582
591.66	531.755
591.712	543.582
591.764	529.756
591.816	542.779
591.868	544.75
591.92	540.854
591.972	533.83
592.024	538.283
592.076	534.883
592.128	533.039
592.18	528.622
592.232	538.84
592.284	544.22
592.336	538.953
592.388	546.909
592.44	549.484
592.492	541.816
592.544	545.54
592.596	515.621
592.648	532.145
592.7	526.384
592.752	535.061
592.804	532.378
592.856	547.743
592.908	553.234
592.96	537.714
593.012	522.713
593.064	526.731
593.116	539.394
593.168	529.719
593.22	534.076
593.272	536.602
593.324	544.203
593.376	544.319
593.428	538.906
593.479	532.735
593.531	540.529
593.583	544.149
593.635	547.79
593.687	531.183
593.739	547.364
593.791	544.436
593.843	533.933
593.895	542.069
593.947	547.765
593.999	521.47
594.051	542.66
594.103	549.76
594.155	537.059
594.207	551.857
594.259	553.798
594.311	545.184
594.363	546.859
594.415	556.277
594.467	538.536
594.519	558.485
594.571	553.258
594.623	557.13
594.675	554.411
594.727	560.629
594.779	554.66
594.831	569.417
594.883	543.179
594.935	564.723
594.986	552.276
595.038	554.415
595.09	552.961
595.142	551.449
595.194	552.729
595.246	561.538
595.298	551.316
595.35	566.698
595.402	564.49
595.454	569.414
595.506	574.932
595.558	554.643
595.61	575.386
595.662	576.301
595.714	588.72
595.766	577.281
595.818	576.935
595.87	589.594
595.922	590.276
595.974	586.475
596.026	575.8
596.077	586.37
596.129	565.696
596.181	580.881
596.233	578.808
596.285	595.121
596.337	571.606
596.389	601.367
596.441	605.291
596.493	590.304
596.545	592.917
596.597	600.561
596.649	609.207
596.701	608.087
596.753	601.052
596.805	595.689
596.857	619.171
596.909	595.431
596.96	601.178
597.012	623.85
597.064	614.544
597.116	618.124
597.168	630.143
597.22	608.848
597.272	620.413
597.324	617.333
597.376	619.388
597.428	625.009
597.48	612.844
597.532	620.836
597.584	631.151
597.636	626.311
597.688	624.879
597.739	614.507
597.791	631.176
597.843	627.945
597.895	640.339
597.947	616.939
597.999	617.375
598.051	622.199
598.103	641.154
598.155	625.061
598.207	638.303
598.259	634.955
598.311	628.832
598.363	629.501
598.414	626.378
598.466	623.311
598.518	629.117
598.57	606.671
598.622	622.498
598.674	616.595
598.726	618.86
598.778	620.033
598.83	620.991
598.882	633.527
598.934	636.263
598.986	613.864
599.037	618.374
599.089	621.554
599.141	634.626
599.193	622.112
599.245	617.368
599.297	623.073
599.349	631.387
599.401	630.005
599.453	623.33
599.505	624.264
599.557	634.052
599.609	620.991
599.66	621.553
599.712	623.388
599.764	616.656
599.816	614.127
599.868	628.03
599.92	619.916
599.972	617.71
600.024	620.83
600.076	617.223
600.128	623.884
600.18	635.426
600.231	617.547
600.283	630.172
600.335	624.038
600.387	634.43
600.439	632.752
600.491	613.058
600.543	616.87
600.595	624.854
600.647	614.798
600.699	629.202
600.75	619.849
600.802	616.723
600.854	627.497
600.906	632.716
600.958	623.292
601.01	627.384
601.062	613.812
601.114	619.407
601.166	623.403
601.217	620.303
601.269	625.827
601.321	632.059
601.373	624.929
601.425	626.342
601.477	634.633
601.529	637.558
601.581	632.037
601.633	639.104
601.685	632.52
601.736	632.787
601.788	625.479
601.84	623.077
601.892	620.129
601.944	633.53
601.996	644.276
602.048	633.217
602.1	625.229
602.151	627.556
602.203	631.019
602.255	632.487
602.307	634.351
602.359	629.76
602.411	627.238
602.463	636.897
602.515	635.884
602.567	641.521
602.618	638.727
602.67	637.143
602.722	633.723
602.774	634.043
602.826	636.635
602.878	626.33
602.93	627.102
602.982	641.193
603.033	626.459
603.085	628.399
603.137	637.667
603.189	648.515
603.241	647.618
603.293	644.49
603.345	641.969
603.396	639.52
603.448	635.173
603.5	629.797
603.552	637.07
603.604	640.746
603.656	642.746
603.708	644.422
603.76	648.06
603.811	657.682
603.863	654.769
603.915	664.736
603.967	647.237
604.019	653.618
604.071	661.249
604.123	643.537
604.174	655.259
604.226	656.879
604.278	643.214
604.33	641.633
604.382	650.088
604.434	657.057
604.486	657.036
604.538	648.155
604.589	655.428
604.641	660.638
604.693	658.566
604.745	661.311
604.797	652.501
604.849	656.104
604.901	663.81
604.952	661.513
605.004	676.033
605.056	673.346
605.108	666.213
605.16	662.852
605.212	648.029
605.263	643.895
605.315	642.817
605.367	649.03
605.419	661.069
605.471	651.839
605.523	656.56
605.575	647.494
605.626	657.898
605.678	655.667
605.73	655.733
605.782	646.467
605.834	647.257
605.886	647.806
605.938	658.777
605.989	650.766
606.041	656.474
606.093	663.011
606.145	652.582
606.197	635.907
606.249	644.587
606.3	654.218
606.352	649.231
606.404	641.085
606.456	657.972
606.508	662.184
606.56	645.919
606.611	637.155
606.663	646.757
606.715	662.548
606.767	651.227
606.819	643.062
606.871	648.095
606.922	646.831
606.974	651.874
607.026	649.206
607.078	649.318
607.13	648.052
607.182	629.298
607.233	636.768
607.285	657.629
607.337	655.442
607.389	651.347
607.441	635.524
607.493	642.339
607.544	654.648
607.596	659.257
607.648	655.097
607.7	654.543
607.752	659.634
607.803	647.309
607.855	640.708
607.907	646.749
607.959	663.805
608.011	659.459
608.063	654.698
608.114	649.531
608.166	650.455
608.218	660.938
608.27	657.769
608.322	666.917
608.374	666.865
608.425	664.757
608.477	664.814
608.529	668.89
608.56	673.393
608.612	682.088
608.664	659.215
608.716	670.756
608.768	667.514
608.82	664.218
608.872	646.973
608.924	680.843
608.976	679.294
609.027	673.566
609.079	656.326
609.131	689.104
609.183	683.132
609.235	678.96
609.287	670.458
609.339	673.749
609.391	682.292
609.443	686.967
609.495	678.546
609.547	681.923
609.598	693.389
609.65	699.187
609.702	672.328
609.754	659.853
609.806	683.701
609.858	683.808
609.91	670.905
609.962	689.427
610.014	688.595
610.065	688.079
610.117	681.969
610.169	677.861
610.221	698.828
610.273	696.77
610.325	682.055
610.377	692.553
610.429	691.685
610.481	680.908
610.533	693.663
610.584	680.965
610.636	699.062
610.688	683.347
610.74	687.122
610.792	679.248
610.844	697.699
610.896	683.562
610.948	674.705
611	703.032
611.052	692.526
611.103	689.032
611.155	691.275
611.207	700.588
611.259	703.367
611.311	674.733
611.363	687.764
611.415	701.749
611.467	690.279
611.518	682.254
611.57	693.036
611.622	682.592
611.674	687.518
611.726	707.633
611.778	697.805
611.83	696.125
611.882	702.217
611.934	701.517
611.985	700.766
612.037	708.487
612.089	686.41
612.141	702.805
612.193	703.828
612.245	701.359
612.297	694.862
612.349	722.499
612.4	709.34
612.452	712.37
612.504	718.298
612.556	713.254
612.608	705.355
612.66	710.938
612.712	712.264
612.764	717.606
612.815	702.826
612.867	702.823
612.919	708.796
612.971	702.499
613.023	706.411
613.075	714.84
613.127	720.628
613.179	727.178
613.23	716.622
613.282	717.175
613.334	711.876
613.386	697.051
613.438	728.836
613.49	728.7
613.542	724.848
613.594	730.328
613.645	728.695
613.697	715.81
613.749	723.236
613.801	713.174
613.853	733.038
613.905	714.547
613.957	720.816
614.008	706.748
614.06	732.186
614.112	737.896
614.164	736.265
614.216	708.262
614.268	753.902
614.32	740.929
614.371	743.462
614.423	737.781
614.475	756.704
614.527	745.677
614.579	735.147
614.631	754.172
614.683	751.118
614.734	734.742
614.786	745.543
614.838	738.637
614.89	732.104
614.942	751.932
614.994	732.397
615.045	755.126
615.097	754.103
615.149	746.101
615.201	748.944
615.253	756.988
615.305	779.102
615.357	759.891
615.408	755.766
615.46	764.521
615.512	761.51
615.564	761.426
615.616	779.242
615.668	767.945
615.719	754.507
615.771	786.189
615.823	761.979
615.875	754.91
615.927	760.042
615.979	770.364
616.031	771.832
616.082	779.94
616.134	775.977
616.186	759.774
616.238	772.705
616.29	751.052
616.342	786.303
616.393	786.561
616.445	776.546
616.497	740.123
616.549	778.539
616.601	769.277
616.653	768.992
616.704	766.942
616.756	783.337
616.808	770.657
616.86	779.722
616.912	776.842
616.964	791.06
617.015	766.167
617.067	777.18
617.119	771.848
617.171	783.027
617.223	792.866
617.274	796.549
617.326	786.04
617.378	767.793
617.43	806.062
617.482	788.853
617.534	798.888
617.585	792.293
617.637	790.827
617.689	795.925
617.741	794.735
617.793	784.64
617.845	806.514
617.896	799.446
617.948	800.627
618	805.241
618.052	810.033
618.104	820.493
618.155	801.807
618.207	821.378
618.259	815.267
618.311	801.604
618.363	804.964
618.415	792.979
618.466	811.501
618.518	814.158
618.57	809.107
618.622	806.529
618.674	795.821
618.725	824.918
618.777	814.271
618.829	828.118
618.881	817.31
618.933	824.576
618.984	802.607
619.036	818.927
619.088	812.008
619.14	820.773
619.192	833.168
619.244	822.779
619.295	806.223
619.347	818.57
619.399	820.142
619.451	811.738
619.503	831.775
619.554	824.086
619.606	823.763
619.658	837.737
619.71	820.228
619.762	826.995
619.813	842.96
619.865	833.505
619.917	840.809
619.969	843.376
620.021	831.226
620.072	832.353
620.124	835.966
620.176	825.722
620.228	836.004
620.279	845.719
620.331	842.168
620.383	824.109
620.435	830.243
620.487	846.148
620.538	827.786
620.59	827.664
620.642	843.888
620.694	839.832
620.746	827.491
620.797	845.735
620.849	844.28
620.901	835.288
620.953	857.588
621.005	844.964
621.056	852.563
621.108	822.847
621.16	837.293
621.212	834.764
621.263	846.548
621.315	836.926
621.367	837.896
621.419	834.07
621.471	837.764
621.522	854.055
621.574	834.68
621.626	847.615
621.678	852.397
621.729	843.703
621.781	848.247
621.833	842.546
621.885	852.218
621.937	845.53
621.988	850.988
622.04	845.851
622.092	846.861
622.144	848.204
622.195	843.797
622.247	844.379
622.299	843.539
622.351	843.916
622.403	855.939
622.454	849.911
622.506	859.419
622.558	847.026
622.61	831.946
622.661	837.633
622.713	846.605
622.765	853.654
622.817	854.383
622.869	851.416
622.92	855.689
622.972	841.149
623.024	832.988
623.076	841.527
623.127	849.999
623.179	838.182
623.231	848.479
623.283	841.563
623.334	846.158
623.386	840.554
623.438	848.437
623.49	863.487
623.541	851.522
623.593	851.783
623.645	832.968
623.697	838.982
623.748	847.661
623.8	851.4
623.852	856.861
623.904	849.541
623.956	856.033
624.007	837.546
624.059	842.046
624.111	851.744
624.162	862.278
624.214	854.788
624.266	848.901
624.318	854.279
624.37	856.877
624.421	849.286
624.473	858.421
624.525	855.176
624.576	842.25
624.628	868.639
624.68	860.467
624.732	854.447
624.784	861.34
624.835	848.321
624.887	847.945
624.939	870.487
624.99	868.686
625.042	856.041
625.094	858.527
625.146	841.346
625.197	852.432
625.249	858.285
625.301	855.152
625.353	855.343
625.404	842.588
625.456	853.219
625.508	867.818
625.56	868.974
625.611	881.097
625.663	861.874
625.715	863.785
625.767	860.64
625.818	865.541
625.87	858.896
625.922	860.078
625.974	861.477
626.025	877.325
626.077	877.288
626.129	870.477
626.18	870.958
626.197	871.553
626.249	865.383
626.3	881.964
626.352	870.346
626.404	877.697
626.456	882.074
626.508	879.208
626.56	870.087
626.611	880.249
626.663	870.252
626.715	865.196
626.767	881.095
626.819	875.306
626.87	869.143
626.922	870.894
626.974	888.602
627.026	895.559
627.078	888.639
627.13	889.113
627.181	854.876
627.233	866.562
627.285	879.913
627.337	865.633
627.389	882.993
627.44	873.497
627.492	879.979
627.544	890.081
627.596	887.908
627.648	876.784
627.7	870.658
627.751	883.292
627.803	874.418
627.855	878.202
627.907	893.025
627.959	900.178
628.01	902.982
628.062	873.424
628.114	870.519
628.166	878.205
628.218	887.065
628.27	897.912
628.321	892.091
628.373	880.945
628.425	885.565
628.477	894.748
628.529	889.363
628.58	896.222
628.632	898.827
628.684	895.734
628.736	868.3
628.788	890.21
628.839	896.587
628.891	893.705
628.943	884.658
628.995	895.856
629.047	909.367
629.098	892.595
629.15	873.473
629.202	884.537
629.254	896.509
629.306	883.335
629.357	896.926
629.409	904.654
629.461	892.901
629.513	901.248
629.565	893.917
629.616	900.138
629.668	897.737
629.72	880.196
629.772	885.753
629.824	907.324
629.875	899.099
629.927	895.983
629.979	891.22
630.031	895.597
630.083	917.352
630.134	908.411
630.186	922.344
630.238	919.575
630.29	905.959
630.342	914.879
630.393	920.485
630.445	911.283
630.497	917.242
630.549	886.23
630.6	905.628
630.652	907.905
630.704	924.434
630.756	907.273
630.808	910.265
630.859	932.58
630.911	935.234
630.963	919.549
631.015	908.177
631.067	926.216
631.118	926.62
631.17	920.306
631.222	923.231
631.274	928.957
631.325	929.678
631.377	917.328
631.429	896.447
631.481	914.02
631.533	925.06
631.584	932.125
631.636	929.063
631.688	907.791
631.74	914.184
631.791	936.337
631.843	931.166
631.895	932.318
631.947	926.753
631.999	922.44
632.05	920.765
632.102	931.504
632.154	929.406
632.206	933.444
632.257	910.516
632.309	944.279
632.361	945.355
632.413	943.801
632.464	947.301
632.516	958.226
632.568	963.735
632.62	959.354
632.672	949.866
632.723	952.312
632.775	954.112
632.827	958.559
632.879	961.136
632.93	963.258
632.982	960.607
633.034	959.301
633.086	947.671
633.137	967.568
633.189	950.931
633.241	948.275
633.293	946.551
633.344	947.551
633.396	957.846
633.448	972.205
633.5	947.611
633.551	941.228
633.603	973.633
633.655	960.053
633.707	969.261
633.758	977.758
633.81	974.207
633.862	952.83
633.914	949.896
633.965	966.805
634.017	977.425
634.069	990.144
634.121	981.53
634.172	986.767
634.224	978.829
634.276	974.704
634.328	983.581
634.379	977.539
634.431	988.078
634.483	968.313
634.535	975.648
634.586	983.745
634.638	996.726
634.69	988.777
634.742	989.452
634.793	1000.77
634.845	986.234
634.897	1007.53
634.949	1003.39
635	1006.58
635.052	985.468
635.104	990.62
635.156	1003.64
635.207	1009.39
635.259	1003.68
635.311	1011.77
635.363	1011.63
635.414	996.831
635.466	1002.87
635.518	1020.82
635.57	1027.94
635.621	1040.79
635.673	1027.42
635.725	1023.97
635.776	1032.32
635.828	1034.36
635.88	1040.87
635.932	1033.06
635.983	1029.9
636.035	1050.87
636.087	1029.25
636.139	1057.06
636.19	1069.51
636.242	1062.78
636.294	1051.59
636.345	1054.98
636.397	1076.23
636.449	1096.82
636.501	1091.42
636.552	1088.13
636.604	1091.3
636.656	1119.06
636.708	1112.46
636.759	1119
636.811	1135.06
636.863	1130.18
636.914	1138.2
636.966	1134.74
637.018	1162.85
637.07	1156.25
637.121	1161.06
637.173	1163.85
637.225	1178.35
637.276	1197.52
637.328	1203.63
637.38	1226.53
637.432	1218.6
637.483	1221.19
637.535	1240.48
637.587	1214.01
637.638	1263.89
637.69	1262.37
637.742	1276.96
637.794	1267.43
637.845	1269.44
637.897	1288.96
637.949	1303.96
638	1305.3
638.052	1293.59
638.104	1306.62
638.156	1287.98
638.207	1293.14
638.259	1289.85
638.311	1285.07
638.362	1276.11
638.414	1294.37
638.466	1310.43
638.517	1297.55
638.569	1304.85
638.621	1286.09
638.673	1267.62
638.724	1280.45
638.776	1277.3
638.828	1245.32
638.879	1244.61
638.931	1250.87
638.983	1241.28
639.034	1239.2
639.086	1249.16
639.138	1223.56
639.19	1225.14
639.241	1243.4
639.293	1193.83
639.345	1236.67
639.396	1207.1
639.448	1205.78
639.5	1209.88
639.551	1196.64
639.603	1187.07
639.655	1198.75
639.706	1183.46
639.758	1164.18
639.81	1178.45
639.862	1173.59
639.913	1162.5
639.965	1161.97
640.017	1171.42
640.068	1187.97
640.12	1175.9
640.172	1183.05
640.223	1155.11
640.275	1148.04
640.327	1149.13
640.378	1143.45
640.43	1145.84
640.482	1142.05
640.533	1117.8
640.585	1147.48
640.637	1121.64
640.688	1146.84
640.74	1148.8
640.792	1129.56
640.844	1123.08
640.895	1118.31
640.947	1128.68
640.999	1129.6
641.05	1107.49
641.102	1107.9
641.154	1125.69
641.205	1122.38
641.257	1130.76
641.309	1113.02
641.36	1117.96
641.412	1102.4
641.464	1116.48
641.515	1096.28
641.567	1120.24
641.619	1124.24
641.67	1116.87
641.722	1110.08
641.774	1122.14
641.825	1106.96
641.877	1122.32
641.929	1113.18
641.98	1087.68
642.032	1126.24
642.084	1107.04
642.135	1099.46
642.187	1107.1
642.239	1123.43
642.29	1092.3
642.342	1096.95
642.394	1115.53
642.445	1110.28
642.497	1103.67
642.549	1112.06
642.6	1116.42
642.652	1109.69
642.704	1080.41
642.755	1109.92
642.807	1120.77
642.859	1097.8
642.91	1100.9
642.962	1123.09
643.013	1115.08
643.065	1115.38
643.117	1136.8
643.168	1122.02
643.22	1122.88
643.272	1120.52
643.323	1103.42
643.375	1135.75
643.427	1119.99
643.478	1125.52
643.53	1103.34
643.582	1118.64
643.633	1135.76
643.685	1120.91
643.737	1106.1
643.788	1124.53
643.84	1128.24
643.891	1115.84
643.898	1118.64
643.949	1125.28
644.001	1130.67
644.053	1127.23
644.105	1129.2
644.156	1129.14
644.208	1137.45
644.26	1138.36
644.312	1147.24
644.363	1130.48
644.415	1145.12
644.467	1126.36
644.519	1118.56
644.57	1124
644.622	1117.62
644.674	1127.94
644.726	1152.43
644.777	1130.91
644.829	1140.39
644.881	1145.26
644.932	1126.84
644.984	1141.61
645.036	1129.99
645.088	1155.67
645.139	1163.04
645.191	1116.07
645.243	1123.08
645.295	1147.4
645.346	1145.45
645.398	1136.91
645.45	1161.81
645.502	1136.02
645.553	1122.07
645.605	1148.22
645.657	1141.45
645.708	1126.47
645.76	1147.35
645.812	1143.86
645.864	1154.87
645.915	1142.82
645.967	1153.38
646.019	1141.13
646.071	1136.53
646.122	1136.99
646.174	1157.39
646.226	1143.63
646.277	1143.06
646.329	1123.45
646.381	1145.51
646.433	1135.66
646.484	1151.13
646.536	1147.68
646.588	1144.87
646.639	1145.08
646.691	1158.03
646.743	1129.25
646.795	1160.36
646.846	1150.69
646.898	1152.06
646.95	1149.27
647.001	1154.93
647.053	1153.79
647.105	1164.12
647.157	1157.27
647.208	1155.48
647.26	1161.21
647.312	1148.55
647.363	1151.46
647.415	1148.54
647.467	1154.56
647.519	1178.65
647.57	1152.87
647.622	1142.49
647.674	1145.93
647.725	1176.81
647.777	1155.06
647.829	1166.23
647.881	1168.05
647.932	1172.3
647.984	1164.73
648.036	1153.97
648.087	1141.7
648.139	1171.96
648.191	1171.03
648.242	1166.62
648.294	1163.71
648.346	1175.97
648.398	1165.98
648.449	1172.3
648.501	1170.07
648.553	1172.37
648.604	1195.93
648.656	1174.88
648.708	1203.38
648.759	1194.49
648.811	1166.03
648.863	1180.89
648.914	1164.19
648.966	1182.43
649.018	1184.62
649.07	1182.97
649.121	1169.17
649.173	1186.89
649.225	1189.13
649.276	1184.89
649.328	1199.13
649.38	1172.89
649.431	1184.31
649.483	1192.51
649.535	1189.92
649.586	1181.71
649.638	1199.01
649.69	1180.43
649.742	1223.38
649.793	1202.87
649.845	1198.96
649.897	1176.88
649.948	1221.74
650	1205.38
650.052	1204.66
650.103	1179.93
650.155	1217.28
650.207	1203.59
650.258	1198.6
650.31	1220.93
650.362	1203.23
650.413	1225.87
650.465	1216.58
650.517	1221.91
650.568	1207.45
650.62	1197.98
650.672	1237.62
650.723	1203.99
650.775	1237.36
650.827	1230.8
650.878	1195.75
650.93	1222.71
650.982	1213.68
651.034	1228.29
651.085	1234.49
651.137	1230.59
651.189	1219.3
651.24	1222.75
651.292	1255.34
651.344	1221.15
651.395	1235.14
651.447	1229.61
651.499	1233.81
651.55	1244.28
651.602	1244.8
651.654	1228.78
651.705	1229.62
651.757	1253.05
651.809	1240.18
651.86	1255.59
651.912	1253.28
651.964	1232.68
652.015	1242.01
652.067	1223.07
652.118	1252.18
652.17	1236.32
652.222	1224.34
652.273	1236.03
652.325	1244.29
652.377	1255.58
652.428	1247.13
652.48	1250.07
652.532	1236.1
652.583	1244.01
652.635	1254.56
652.687	1256.37
652.738	1233.48
652.79	1239.74
652.842	1246.68
652.893	1250.96
652.945	1263.92
652.997	1240.85
653.048	1274.52
653.1	1247.08
653.152	1255.31
653.203	1274.47
653.255	1258.79
653.307	1258.38
653.358	1260.44
653.41	1275.74
653.461	1268.6
653.513	1275.58
653.565	1242.59
653.616	1258.11
653.668	1270.88
653.72	1276.18
653.771	1283.41
653.823	1286
653.875	1265.19
653.926	1270.76
653.978	1307.97
654.029	1283.93
654.081	1285.29
654.133	1250.6
654.184	1279.28
654.236	1274.8
654.288	1290.44
654.339	1265.66
654.391	1281.81
654.443	1298.24
654.494	1293.66
654.546	1297.32
654.597	1279.49
654.649	1286.08
654.701	1304.29
654.752	1284.17
654.804	1314.43
654.856	1329.7
654.907	1317.19
654.959	1313.66
655.01	1316.52
655.062	1318.45
655.114	1314.59
655.165	1307.45
655.217	1312.29
655.269	1310.68
655.32	1315.23
655.372	1325.07
655.424	1328.09
655.475	1328.71
655.527	1338.06
655.578	1329.47
655.63	1333.37
655.682	1342.16
655.733	1346.6
655.785	1333.39
655.836	1331.54
655.888	1320.2
655.94	1344.32
655.991	1355.72
656.043	1344.58
656.095	1351.53
656.146	1357.64
656.198	1349.75
656.249	1355.7
656.301	1346.98
656.353	1367.24
656.404	1354.42
656.456	1366.04
656.508	1382.96
656.559	1357.05
656.611	1359.78
656.662	1370.41
656.714	1387.74
656.766	1387.35
656.817	1381.17
656.869	1383.17
656.92	1393.12
656.972	1383.37
657.024	1372.82
657.075	1378.33
657.127	1383.31
657.178	1381.84
657.23	1385.59
657.282	1392.91
657.333	1390.49
657.385	1381.43
657.436	1389.77
657.488	1400.95
657.54	1386.78
657.591	1406.82
657.643	1391.15
657.694	1406.24
657.746	1411.65
657.798	1405.08
657.849	1401.79
657.901	1396.8
657.952	1424.18
658.004	1417.29
658.056	1413.73
658.107	1393.74
658.159	1416.19
658.21	1428.1
658.262	1418.8
658.314	1408.8
658.365	1423.46
658.417	1434.35
658.468	1433.61
658.52	1439.91
658.571	1434.91
658.623	1425.47
658.675	1410.51
658.726	1421.53
658.778	1434.99
658.829	1412.81
658.881	1400.16
658.933	1444.24
658.984	1421.12
659.036	1435.16
659.087	1442.36
659.139	1448.94
659.19	1465.49
659.242	1445.38
659.294	1443.47
659.345	1416.38
659.397	1447.79
659.448	1444.06
659.5	1432.51
659.552	1454.81
659.603	1435.73
659.655	1420.29
659.706	1453.28
659.758	1422.94
659.809	1436.97
659.861	1423.14
659.913	1456.72
659.964	1454.5
660.016	1431.53
660.067	1428.82
660.119	1422.75
660.17	1436.68
660.222	1440.96
660.274	1429.91
660.325	1411.61
660.377	1443.61
660.428	1434.76
660.48	1445.57
660.531	1442.14
660.583	1429.11
660.635	1443.19
660.686	1439.76
660.738	1427.33
660.789	1450.96
660.841	1448.75
660.892	1423.09
660.944	1444.13
660.995	1429.01
661.047	1417.64
661.099	1428.84
661.15	1426.57
661.202	1449.43
661.253	1422.91
661.305	1438.06
661.356	1449.82
661.408	1426.36
661.46	1431.16
661.511	1440.17
661.532	1434.02
661.583	1448.22
661.635	1426.16
661.687	1456.43
661.738	1439.17
661.79	1442.47
661.842	1451.32
661.893	1449.46
661.945	1416.96
661.997	1412.29
662.048	1430.12
662.1	1427.41
662.151	1442.6
662.203	1439.25
662.255	1448.1
662.306	1436.6
662.358	1452.73
662.41	1428.29
662.461	1436.91
662.513	1410.76
662.565	1437.24
662.616	1435.74
662.668	1441.35
662.72	1430.28
662.771	1433.08
662.823	1427.37
662.875	1444.44
662.926	1423.67
662.978	1427.79
663.03	1429.02
663.081	1427.41
663.133	1442.31
663.184	1436.27
663.236	1449.4
663.288	1450.28
663.339	1430.38
663.391	1447.72
663.443	1454.52
663.494	1430.49
663.546	1436.14
663.598	1434.47
663.649	1431.38
663.701	1438.89
663.752	1446.15
663.804	1419.69
663.856	1407.14
663.907	1455.21
663.959	1440.48
664.011	1427.11
664.062	1431.73
664.114	1428.71
664.166	1433.38
664.217	1448.69
664.269	1419.26
664.32	1437.89
664.372	1440
664.424	1434.93
664.475	1433.07
664.527	1450.58
664.579	1449.88
664.63	1449.72
664.682	1425.11
664.733	1445.91
664.785	1422.8
664.837	1451.23
664.888	1436.72
664.94	1443.92
664.992	1441.73
665.043	1442.65
665.095	1435.32
665.146	1450.54
665.198	1441.98
665.25	1446.45
665.301	1417.96
665.353	1418.43
665.405	1437.28
665.456	1436.35
665.508	1434.05
665.559	1437.27
665.611	1433.58
665.663	1452.22
665.714	1405.93
665.766	1423.38
665.817	1417.93
665.869	1441.55
665.921	1416.28
665.972	1429.94
666.024	1433.71
666.076	1452.64
666.127	1445.29
666.179	1420.83
666.23	1434.7
666.282	1422.61
666.334	1428.15
666.385	1424.04
666.437	1402.71
666.488	1425.64
666.54	1423.07
666.592	1426.45
666.643	1409.57
666.695	1413.85
666.746	1453.9
666.798	1433.33
666.85	1423.78
666.901	1439.37
666.953	1416.74
667.004	1443.29
667.056	1431.98
667.108	1421.16
667.159	1405.76
667.211	1410.06
667.262	1394.55
667.314	1424.34
667.366	1411.99
667.417	1421.39
667.469	1410.48
667.52	1409.54
667.572	1429.79
667.624	1419.06
667.675	1426.25
667.727	1419.74
667.778	1407.5
667.83	1399.42
667.882	1412.17
667.933	1406.45
667.985	1413.84
668.036	1404.86
668.088	1406.51
668.14	1421.42
668.191	1422.52
668.243	1394.8
668.294	1407.92
668.346	1433.13
668.397	1411.93
668.449	1409.24
668.501	1402.58
668.552	1419.89
668.604	1387.08
668.655	1410.75
668.707	1412.89
668.759	1400.16
668.81	1432.41
668.862	1413.77
668.913	1397.62
668.965	1439.19
669.016	1383.9
669.068	1430.55
669.12	1412.36
669.171	1416.37
669.223	1415.48
669.274	1413.11
669.326	1393.34
669.377	1386.01
669.429	1436.07
669.481	1368.8
669.532	1407.08
669.584	1412.48
669.635	1416.97
669.687	1411.89
669.738	1411.66
669.79	1406.36
669.842	1400.79
669.893	1418.09
669.945	1438.45
669.996	1435.43
670.048	1402.6
670.099	1416.21
670.151	1423.95
670.203	1411.97
670.254	1407.98
670.306	1389.21
670.357	1407.5
670.409	1402.78
670.46	1389.97
670.512	1410.07
670.564	1393.71
670.615	1391.01
670.667	1401.04
670.718	1403.39
670.77	1392.85
670.821	1376.73
670.873	1405.15
670.924	1415.45
670.976	1408.94
671.028	1400.44
671.079	1398.91
671.131	1405.91
671.182	1406.13
671.234	1400.42
671.285	1396.28
671.337	1402.69
671.388	1390.34
671.44	1397.35
671.492	1400.26
671.543	1403.2
671.595	1388.57
671.646	1393.27
671.698	1391.94
671.749	1406.46
671.801	1413.12
671.852	1385.49
671.904	1406.6
671.956	1392.16
672.007	1402.78
672.059	1399.01
672.11	1393.22
672.162	1409.59
672.213	1404.19
672.265	1394.99
672.316	1407.38
672.368	1405.39
672.419	1410.52
672.471	1420.4
672.522	1402.62
672.574	1397.87
672.626	1410.38
672.677	1405.04
672.729	1397.68
672.78	1396.34
672.832	1419.48
672.883	1435.92
672.935	1405.62
672.986	1411.34
673.038	1397.11
673.089	1421.58
673.141	1422.52
673.192	1428.89
673.244	1398.36
673.296	1431.92
673.347	1420.45
673.399	1421.32
673.45	1438.05
673.502	1412.59
673.553	1426.81
673.605	1442.6
673.656	1420.74
673.708	1408.89
673.759	1446.95
673.811	1434.29
673.862	1422.95
673.914	1451.15
673.965	1419.13
674.017	1434.27
674.068	1416.6
674.12	1426.4
674.171	1455.89
674.223	1439.09
674.275	1447.35
674.326	1450.6
674.378	1444.59
674.429	1446.28
674.481	1432.13
674.532	1437.94
674.584	1431.68
674.635	1451.45
674.687	1458.31
674.738	1451.28
674.79	1453.25
674.841	1453.95
674.893	1446.57
674.944	1459.18
674.996	1455.95
675.047	1449.19
675.099	1449.34
675.15	1459.21
675.202	1453.77
675.253	1459.54
675.305	1453.29
675.356	1434.6
675.408	1438.65
675.459	1442.55
675.511	1451.02
675.562	1454.93
675.614	1471.2
675.665	1458.4
675.717	1453.8
675.768	1451.59
675.82	1473.6
675.871	1457.8
675.923	1456.06
675.974	1475.38
676.026	1462.54
676.077	1457.54
676.129	1461.78
676.18	1470.98
676.232	1466.76
676.283	1472.76
676.335	1467
676.386	1459
676.438	1460.81
676.489	1474.92
676.541	1446.25
676.592	1472.93
676.644	1441.48
676.695	1450.43
676.747	1459.98
676.798	1472.18
676.85	1457.81
676.901	1468.94
676.953	1459.4
677.004	1468.99
677.056	1447.19
677.107	1473.91
677.159	1483.45
677.21	1474.13
677.262	1469.32
677.313	1479.65
677.365	1473.34
677.416	1453.03
677.468	1474.66
677.519	1476.93
677.571	1469.18
677.622	1480.27
677.674	1437.73
677.725	1454.15
677.777	1472.83
677.828	1484.59
677.88	1471.7
677.931	1453.49
677.982	1443.4
678.034	1477.48
678.085	1487.32
678.137	1483.3
678.188	1455.62
678.24	1458.9
678.291	1458.73
678.343	1440.28
678.394	1466.57
678.446	1446.18
678.497	1428.23
678.549	1427.49
678.6	1458.37
678.652	1462.91
678.703	1470.65
678.755	1463.19
678.806	1447.85
678.857	1430.85
678.909	1451.04
678.96	1438.32
679.012	1449.8
679.063	1475.72
679.083	1471.73
679.135	1433.94
679.186	1452.34
679.238	1438.27
679.289	1474.93
679.341	1475.85
679.392	1454.07
679.444	1464.82
679.496	1461.8
679.547	1470.2
679.599	1455.35
679.65	1457.09
679.702	1478.13
679.753	1468.34
679.805	1464.29
679.857	1466.59
679.908	1434.02
679.96	1436.48
680.011	1451.88
680.063	1452.68
680.114	1470.36
680.166	1478.79
680.217	1454.07
680.269	1467.82
680.321	1463.06
680.372	1454.63
680.424	1486.7
680.475	1463.76
680.527	1457.66
680.578	1488.8
680.63	1471.67
680.682	1466.22
680.733	1451.28
680.785	1444.48
680.836	1456.31
680.888	1453.74
680.939	1468.84
680.991	1476.9
681.042	1456.19
681.094	1480.94
681.146	1483.35
681.197	1496.23
681.249	1450.06
681.3	1472.48
681.352	1473.17
681.403	1491.53
681.455	1487.54
681.506	1469.74
681.558	1488.73
681.609	1451.06
681.661	1484.18
681.712	1477.58
681.764	1469.31
681.816	1518.73
681.867	1483.22
681.919	1482.37
681.97	1500.71
682.022	1461.46
682.073	1493.01
682.125	1495.88
682.176	1506.18
682.228	1491.92
682.279	1497.08
682.331	1489.04
682.383	1497.33
682.434	1477.18
682.486	1471.48
682.537	1451.22
682.589	1480.74
682.64	1484.93
682.692	1509.81
682.743	1493.54
682.795	1471
682.846	1484.65
682.898	1508.68
682.949	1503.51
683.001	1493.42
683.052	1475.19
683.104	1502.01
683.156	1510.55
683.207	1497.86
683.259	1480.08
683.31	1487.74
683.362	1480.83
683.413	1496.38
683.465	1478.02
683.516	1475.35
683.568	1496.27
683.619	1478.2
683.671	1502.06
683.722	1512.45
683.774	1483.42
683.825	1492.74
683.877	1482.05
683.928	1483.23
683.98	1479.23
684.031	1484.55
684.083	1480.13
684.134	1493.77
684.186	1482.86
684.237	1488.13
684.289	1452.42
684.341	1475.74
684.392	1491.63
684.444	1473.32
684.495	1512.7
684.547	1482.02
684.598	1458.19
684.65	1479.26
684.701	1455.32
684.753	1465.5
684.804	1476.74
684.856	1504.9
684.907	1463.38
684.959	1492.58
685.01	1478.09
685.062	1472.15
685.113	1476.55
685.165	1490.09
685.216	1489.65
685.268	1466.47
685.319	1448.37
685.371	1477.17
685.422	1441.19
685.474	1449.46
685.525	1454.94
685.577	1453.35
685.628	1463.28
685.68	1453.07
685.731	1437.62
685.783	1454.5
685.834	1469.07
685.886	1468.43
685.937	1444.83
685.989	1468.56
686.04	1433.57
686.092	1456.86
686.143	1437.52
686.195	1447.04
686.246	1448.61
686.298	1436.42
686.349	1470.46
686.401	1431.66
686.452	1470.31
686.504	1473.79
686.555	1427.3
686.607	1427.02
686.658	1450.87
686.71	1440.02
686.761	1437.93
686.813	1462.43
686.864	1424.14
686.916	1440.78
686.967	1464.96
687.018	1448
687.07	1467.36
687.121	1459.06
687.173	1424.2
687.224	1460.98
687.276	1451.22
687.327	1443.56
687.379	1413.98
687.43	1458.99
687.482	1435.7
687.533	1426.27
687.585	1449.97
687.636	1461.72
687.688	1457.62
687.739	1430.23
687.791	1456.07
687.842	1451.25
687.894	1451.63
687.945	1434.81
687.997	1459.6
688.048	1437.19
688.1	1437.19
688.151	1427.3
688.203	1441.68
688.254	1446.9
688.305	1409.89
688.357	1423.91
688.408	1460.16
688.46	1445.11
688.511	1433.73
688.563	1477.83
688.614	1425.92
688.666	1434.83
688.717	1431.87
688.769	1443.19
688.82	1435.42
688.872	1414.96
688.923	1439.63
688.974	1444.09
689.026	1442.81
689.077	1454.21
689.129	1434.52
689.18	1434.81
689.232	1452.58
689.283	1422.69
689.335	1421.34
689.386	1421.74
689.438	1445.4
689.489	1440.05
689.541	1435.84
689.592	1420.07
689.643	1438.13
689.695	1423.23
689.746	1424.69
689.798	1430.9
689.849	1426.66
689.901	1419.13
689.952	1430.04
690.004	1416.23
690.055	1444.06
690.107	1436.3
690.158	1426.6
690.209	1430.33
690.261	1417.65
690.312	1417.13
690.364	1424.66
690.415	1422.22
690.467	1427.43
690.518	1407.67
690.57	1422.27
690.621	1409.16
690.672	1433.44
690.724	1415.84
690.775	1409.78
690.827	1404.46
690.878	1403.02
690.93	1410.67
690.981	1414.38
691.033	1401.78
691.084	1376.69
691.135	1389.36
691.187	1406.55
691.238	1384.6
691.29	1390.01
691.341	1391.63
691.393	1416.68
691.444	1404.48
691.495	1411.8
691.547	1398.64
691.598	1413.25
691.65	1391.19
691.701	1395.77
691.753	1388.44
691.804	1411.8
691.856	1418.2
691.907	1398.34
691.958	1392.84
692.01	1417.31
692.061	1395.33
692.113	1388.34
692.164	1407.75
692.216	1389.2
692.267	1396.97
692.318	1398.99
692.37	1386.34
692.421	1380.42
692.473	1378.58
692.524	1404.17
692.576	1386.24
692.627	1380.25
692.678	1391.68
692.73	1382.7
692.781	1376.46
692.833	1386.37
692.884	1389.06
692.935	1375.44
692.987	1375.8
693.038	1373.29
693.09	1387.76
693.141	1368.73
693.193	1373.78
693.244	1378.25
693.295	1375.45
693.347	1374.39
693.398	1383.38
693.45	1401.73
693.501	1372.47
693.552	1379.25
693.604	1375.7
693.655	1373.27
693.707	1365.09
693.758	1369
693.809	1377.69
693.861	1351.72
693.912	1361.73
693.964	1367.81
694.015	1370.77
694.066	1366.25
694.118	1360.03
694.169	1363.55
694.221	1351.94
694.272	1368.06
694.323	1366.27
694.375	1367.37
694.426	1369.82
694.478	1375.92
694.529	1361.86
694.581	1362.08
694.632	1358.73
694.683	1363.37
694.735	1372.46
694.786	1363.29
694.837	1361.14
694.889	1363.69
694.94	1373.82
694.992	1371.68
695.043	1352.72
695.094	1365.56
695.146	1380.45
695.197	1370.25
695.249	1357.68
695.3	1340
695.351	1353.61
695.403	1339.06
695.454	1361.05
695.506	1356.84
695.557	1355.13
695.608	1360.47
695.66	1349.41
695.711	1347.73
695.763	1360.65
695.814	1355.86
695.865	1335.5
695.917	1349.87
695.968	1357.63
696.019	1342.81
696.071	1336.09
696.122	1341.52
696.174	1326.89
696.225	1340.35
696.276	1332.52
696.328	1347.05
696.379	1321.01
696.43	1322.61
696.482	1350.92
696.533	1363.4
696.585	1348.7
696.636	1322.91
696.687	1310.95
696.707	1314.43
696.759	1338.09
696.81	1349.72
696.862	1338.16
696.913	1328.5
696.965	1332.63
697.016	1326.64
697.068	1350.34
697.119	1290.05
697.171	1319.95
697.222	1335.1
697.274	1302.38
697.325	1335.81
697.377	1332.64
697.428	1321.46
697.479	1312.27
697.531	1312.56
697.582	1300.03
697.634	1306.49
697.685	1328.82
697.737	1318.99
697.788	1318.61
697.84	1305.84
697.891	1326.16
697.943	1332.14
697.994	1300.12
698.046	1285.88
698.097	1333.17
698.149	1319.62
698.2	1296.76
698.252	1292.7
698.303	1299.42
698.354	1320.56
698.406	1297.88
698.457	1285.3
698.509	1288.89
698.56	1312.76
698.612	1306.2
698.663	1309.4
698.715	1311.28
698.766	1307.67
698.818	1291.21
698.869	1294.06
698.921	1296.23
698.972	1289.18
699.023	1304.49
699.075	1290.85
699.126	1298.24
699.178	1278.69
699.229	1261.95
699.281	1274.01
699.332	1281.8
699.384	1297.53
699.435	1300.39
699.487	1271.28
699.538	1278.88
699.589	1267.48
699.641	1264.28
699.692	1267.91
699.744	1269.03
699.795	1287.82
699.847	1282.57
699.898	1278.02
699.95	1272.01
700.001	1279.14
700.052	1280.09
700.104	1254.46
700.155	1251.62
700.207	1274.57
700.258	1280.02
700.31	1266.21
700.361	1283.76
700.413	1278.12
700.464	1274.66
700.515	1280.59
700.567	1262.67
700.618	1276.44
700.67	1261.47
700.721	1278.72
700.773	1279.32
700.824	1259.7
700.875	1256.49
700.927	1253.49
700.978	1266.08
701.03	1261.19
701.081	1277.88
701.133	1272.01
701.184	1265.88
701.235	1265.95
701.287	1269.3
701.338	1265.57
701.39	1266
701.441	1274.03
701.493	1280.76
701.544	1275.67
701.596	1288.84
701.647	1271.09
701.698	1264.88
701.75	1279.07
701.801	1282.69
701.853	1259.01
701.904	1257.22
701.956	1267.76
702.007	1267.02
702.058	1267.87
702.11	1278.81
702.161	1276.46
702.213	1278.8
702.264	1259.71
702.315	1253.73
702.367	1292.57
702.418	1270.88
702.47	1276.74
702.521	1271.25
702.573	1283.57
702.624	1261.59
702.675	1260.49
702.727	1271.3
702.778	1273.78
702.83	1272.4
702.881	1282.41
702.932	1274.72
702.984	1270.27
703.035	1256.71
703.087	1283.77
703.138	1286.03
703.19	1273.38
703.241	1269.06
703.292	1253.56
703.344	1267.74
703.395	1267.17
703.447	1271.37
703.498	1259.3
703.549	1255.58
703.601	1258.88
703.652	1259.16
703.704	1270.57
703.755	1257.56
703.806	1258.42
703.858	1254.93
703.909	1260.34
703.961	1262.17
704.012	1251.98
704.063	1251.45
704.115	1262.92
704.166	1261.16
704.218	1258.85
704.269	1246.63
704.32	1240.11
704.372	1253.21
704.423	1255.47
704.475	1269.39
704.526	1276.06
704.577	1261.55
704.629	1259.91
704.68	1251.76
704.732	1239.76
704.783	1255.18
704.834	1270.12
704.886	1261.79
704.937	1245.18
704.988	1255.18
705.04	1248.61
705.091	1241.42
705.143	1223.07
705.194	1230.89
705.245	1232.45
705.297	1224.12
705.348	1243.87
705.4	1232.32
705.451	1227.66
705.502	1216.02
705.554	1250.68
705.605	1244.45
705.656	1220.09
705.708	1237.32
705.759	1233.11
705.811	1215.41
705.862	1219.14
705.913	1222.74
705.965	1230.62
706.016	1219.25
706.068	1225.52
706.119	1216.46
706.17	1223.09
706.222	1212.23
706.273	1203.33
706.324	1215.92
706.376	1239.35
706.427	1237.8
706.479	1230.57
706.53	1222.7
706.581	1214.68
706.633	1215.57
706.684	1213.63
706.735	1205.2
706.787	1202.44
706.838	1209.61
706.889	1217.35
706.941	1217.83
706.992	1208.38
707.044	1217.57
707.095	1205.97
707.146	1222.43
707.198	1202.61
707.249	1205.02
707.3	1189.03
707.352	1184.28
707.403	1194.17
707.454	1206.32
707.506	1188.19
707.557	1206.24
707.609	1195.45
707.66	1200.04
707.711	1202.22
707.763	1184.49
707.814	1193.48
707.865	1189.93
707.917	1209.13
707.968	1184.47
708.019	1181.03
708.071	1184.2
708.122	1193.01
708.173	1181.64
708.225	1201.42
708.276	1193.7
708.328	1198.5
708.379	1187.83
708.43	1191.22
708.482	1188.11
708.533	1179.69
708.584	1167.64
708.636	1193.14
708.687	1185.97
708.738	1199.62
708.79	1180.61
708.841	1174.75
708.892	1181.84
708.944	1195.49
708.995	1175.01
709.046	1184.94
709.098	1155.95
709.149	1173.31
709.2	1179.88
709.252	1185.1
709.303	1164.62
709.354	1189.85
709.406	1201.98
709.457	1183.78
709.508	1168.12
709.56	1190.66
709.611	1170.11
709.662	1160.79
709.714	1179.61
709.765	1165.06
709.816	1173.31
709.868	1162.86
709.919	1177.23
709.97	1164.5
710.022	1175.31
710.073	1186.28
710.124	1161.94
710.176	1181.57
710.227	1181.73
710.278	1177.65
710.33	1164.51
710.381	1170.01
710.432	1183.19
710.484	1162.74
710.535	1163.07
710.586	1182.1
710.638	1174.89
710.689	1152.97
710.74	1167.58
710.792	1196.92
710.843	1183.07
710.894	1177.04
710.946	1173.32
710.997	1159.29
711.048	1171.37
711.1	1168.9
711.151	1172.6
711.202	1167.33
711.254	1159.49
711.305	1147.51
711.356	1157.25
711.407	1137.96
711.459	1165.32
711.51	1154.67
711.561	1172.2
711.613	1173.64
711.664	1155.79
711.715	1143.37
711.767	1164.94
711.818	1147.96
711.869	1156.71
711.921	1152.83
711.972	1148.28
712.023	1160.4
712.075	1126.83
712.126	1148.96
712.177	1147.68
712.228	1128.32
712.28	1137.05
712.331	1128.14
712.382	1131.31
712.434	1149.77
712.485	1125.36
712.536	1143.73
712.588	1158.35
712.639	1141.34
712.69	1112.87
712.741	1124.18
712.793	1137.56
712.844	1136.89
712.895	1133.61
712.947	1132.74
712.998	1128.84
713.049	1110.7
713.101	1123.85
713.152	1127.81
713.203	1137.48
713.254	1136.94
713.306	1115.35
713.357	1135.26
713.408	1127.18
713.46	1127.29
713.511	1135.09
713.562	1112.45
713.613	1109.05
713.665	1105.23
713.716	1106.39
713.767	1112.75
713.819	1125.5
713.87	1132.44
713.921	1134.79
713.972	1105.33
714.024	1112.79
714.075	1118.99
714.126	1099.46
714.178	1104.16
714.18	1104.26
714.231	1109.14
714.283	1112.25
714.334	1115
714.385	1095.77
714.437	1089.77
714.488	1103.62
714.539	1089.17
714.591	1112.39
714.642	1087.63
714.694	1095.36
714.745	1090.67
714.796	1092.87
714.848	1118.4
714.899	1094.38
714.951	1090.43
715.002	1097.5
715.053	1091.72
715.105	1090.19
715.156	1099.97
715.207	1088.42
715.259	1079.21
715.31	1099.06
715.362	1085.01
715.413	1093.52
715.464	1086.9
715.516	1084.97
715.567	1095.43
715.618	1092.43
715.67	1092.34
715.721	1090.04
715.773	1075.63
715.824	1093.15
715.875	1072.18
715.927	1081.26
715.978	1091.42
716.029	1100.98
716.081	1086.07
716.132	1071.08
716.184	1066.82
716.235	1084.28
716.286	1077.43
716.338	1092.35
716.389	1065.52
716.44	1079.03
716.492	1092.86
716.543	1080.28
716.594	1084.04
716.646	1090.23
716.697	1094.03
716.749	1082.18
716.8	1075.32
716.851	1087.41
716.903	1084.26
716.954	1080.8
717.005	1082.26
717.057	1100.31
717.108	1079.63
717.159	1094.88
717.211	1085.43
717.262	1071.52
717.314	1071.41
717.365	1079.32
717.416	1068.33
717.468	1083.12
717.519	1089.61
717.57	1086.35
717.622	1078.96
717.673	1074.45
717.724	1073.92
717.776	1071.59
717.827	1075.05
717.878	1076.98
717.93	1081
717.981	1091.82
718.032	1071.78
718.084	1080.2
718.135	1075.07
718.187	1059.34
718.238	1060.17
718.289	1079.08
718.341	1090.54
718.392	1061.35
718.443	1071.73
718.495	1075.83
718.546	1080.9
718.597	1065.92
718.649	1073.44
718.7	1066.55
718.751	1076.99
718.803	1064.52
718.854	1071.36
718.905	1065.31
718.957	1060.46
719.008	1067.89
719.059	1071.88
719.111	1064.95
719.162	1069.86
719.213	1079.76
719.265	1068.77
719.316	1064.53
719.367	1071.46
719.419	1055.01
719.47	1052.85
719.521	1046.86
719.573	1051.69
719.624	1065.48
719.675	1069.04
719.727	1057.57
719.778	1050.6
719.829	1054.49
719.881	1064.53
719.932	1064.98
719.983	1057.44
720.035	1061.27
720.086	1063.34
720.137	1051.37
720.189	1052.56
720.24	1062.03
720.291	1062.22
720.343	1057.86
720.394	1057.41
720.445	1055.64
720.496	1056.74
720.548	1058.78
720.599	1058.47
720.65	1046.92
720.702	1040.67
720.753	1055.19
720.804	1063.17
720.856	1077.11
720.907	1064.03
720.958	1062.2
721.01	1055.43
721.061	1037.32
721.112	1040.33
721.164	1069.98
721.215	1058.61
721.266	1053.67
721.318	1063.15
721.369	1060.73
721.42	1059
721.471	1062.43
721.523	1065.38
721.574	1045.53
721.625	1047.18
721.677	1051.03
721.728	1060.47
721.779	1057.81
721.831	1026.24
721.882	1062.9
721.933	1049.84
721.984	1052.9
722.036	1031.16
722.087	1049.06
722.138	1055.39
722.19	1031.77
722.241	1040.79
722.292	1071.93
722.344	1068.4
722.395	1054.05
722.446	1049.83
722.497	1058.46
722.549	1046.12
722.6	1048.96
722.651	1043.8
722.703	1048.56
722.754	1056.71
722.805	1063.92
722.857	1049.72
722.908	1049.95
722.959	1066.1
723.01	1067.69
723.062	1060.85
723.113	1056.61
723.164	1056.8
723.216	1040.06
723.267	1041.54
723.318	1060.12
723.369	1065.31
723.421	1070.95
723.472	1046.84
723.523	1051.64
723.575	1041.02
723.626	1054.69
723.677	1060.61
723.728	1060.91
723.78	1071.9
723.831	1067.8
723.882	1070.37
723.934	1061.53
723.985	1056.07
724.036	1086.86
724.087	1066.61
724.139	1069.87
724.19	1075.23
724.241	1068.9
724.292	1064.12
724.344	1074.51
724.395	1068.6
724.446	1070.51
724.498	1084.09
724.549	1081.5
724.6	1081.81
724.651	1064.55
724.703	1067.26
724.754	1065.33
724.805	1063.87
724.856	1059.95
724.908	1073.8
724.959	1083.67
725.01	1081.82
725.062	1068.21
725.113	1066.5
725.164	1087.04
725.215	1098.97
725.267	1077.64
725.318	1077.98
725.369	1081.43
725.42	1088.7
725.472	1074.95
725.523	1085.88
725.574	1085.82
725.625	1091.5
725.677	1083.41
725.728	1084.97
725.779	1088.8
725.83	1108.51
725.882	1103.76
725.933	1101.55
725.984	1093.47
726.036	1073.71
726.087	1075.95
726.138	1110.49
726.189	1099.7
726.241	1085.85
726.292	1098.24
726.343	1106.72
726.394	1109.39
726.445	1087.5
726.497	1088.77
726.548	1102.63
726.599	1075.03
726.651	1098.88
726.702	1088.23
726.753	1111.68
726.804	1120.27
726.855	1131.24
726.907	1092.47
726.958	1092.46
727.009	1113.27
727.06	1110.4
727.112	1104.38
727.163	1120.49
727.214	1130.1
727.265	1118.31
727.317	1109.57
727.368	1136.4
727.419	1107.73
727.47	1114.88
727.522	1124.11
727.573	1114.1
727.624	1122.54
727.675	1131.32
727.727	1097.62
727.778	1118.31
727.829	1136.85
727.88	1113.72
727.932	1111.79
727.983	1114.79
728.034	1105.53
728.085	1083.59
728.136	1116.78
728.188	1119.56
728.239	1121.4
728.29	1121
728.341	1126.1
728.393	1145.26
728.444	1129.76
728.495	1116.91
728.546	1104.49
728.597	1127.29
728.649	1134.79
728.7	1088.89
728.751	1123.24
728.802	1113.84
728.854	1105.86
728.905	1118.34
728.956	1111.28
729.007	1107.38
729.058	1136.33
729.11	1133.93
729.161	1125.94
729.212	1124.36
729.263	1113.59
729.315	1130.29
729.366	1128.4
729.417	1125.26
729.468	1134.6
729.519	1125.65
729.571	1134.39
729.622	1126.35
729.673	1133.65
729.724	1137
729.775	1135.96
729.827	1147.68
729.878	1118.64
729.929	1133.44
729.98	1127.84
730.031	1132.68
730.083	1138.48
730.134	1169.52
730.185	1124.08
730.236	1133.2
730.288	1146.91
730.339	1163.86
730.39	1144.86
730.441	1142.77
730.492	1151.98
730.544	1173.94
730.595	1147.24
730.646	1171.34
730.697	1140.15
730.748	1158.31
730.8	1146.58
730.851	1162.55
730.902	1157.87
730.953	1148.77
731.004	1167.55
731.056	1167.26
731.107	1167.51
731.158	1170.61
731.209	1147.29
731.26	1137.24
731.312	1149.36
731.363	1179.9
731.414	1187.17
731.465	1180.81
731.516	1196.82
731.567	1190.83
731.619	1198.75
731.622	1199.15
731.673	1186.23
731.725	1179.17
731.776	1196.74
731.827	1197.01
731.878	1211.83
731.93	1206.03
731.981	1200.96
732.032	1191.5
732.084	1186.49
732.135	1205.25
732.186	1208.89
732.237	1233.55
732.289	1224.7
732.34	1215.4
732.391	1226.47
732.443	1227.75
732.494	1246.22
732.545	1245.09
732.597	1229.62
732.648	1257.36
732.699	1242.77
732.75	1274.65
732.802	1255.28
732.853	1270.37
732.904	1270.64
732.956	1291.36
733.007	1286.36
733.058	1307.15
733.109	1286.71
733.161	1285.56
733.212	1291.62
733.263	1302.89
733.315	1325.2
733.366	1297.61
733.417	1317.75
733.468	1317.56
733.52	1318.51
733.571	1342.68
733.622	1346.2
733.673	1353.91
733.725	1381.56
733.776	1393.9
733.827	1411.76
733.879	1411.24
733.93	1410.66
733.981	1384.07
734.032	1424.58
734.084	1436.91
734.135	1436.78
734.186	1463.17
734.237	1467.25
734.289	1460.93
734.34	1510.98
734.391	1498.92
734.443	1512.04
734.494	1532.13
734.545	1534.28
734.596	1548.07
734.648	1598.33
734.699	1582.78
734.75	1590.91
734.801	1602.91
734.853	1630.56
734.904	1648.34
734.955	1654.75
735.006	1659.76
735.058	1686.87
735.109	1705.48
735.16	1745.91
735.211	1743.13
735.263	1755.5
735.314	1796.9
735.365	1824.66
735.417	1817.98
735.468	1868.3
735.519	1860.55
735.57	1873.31
735.622	1909.33
735.673	1930.29
735.724	1958.51
735.775	1977.12
735.827	1995.43
735.878	2045.62
735.929	2069.86
735.98	2086.29
736.032	2093.64
736.083	2179.99
736.134	2188.67
736.185	2199.97
736.237	2238.37
736.288	2283.06
736.339	2274.9
736.39	2287.58
736.442	2322.63
736.493	2394.49
736.544	2430
736.595	2459.76
736.646	2506.33
736.698	2530.28
736.749	2563.51
736.8	2635.72
736.851	2654.86
736.903	2688.11
736.954	2732.16
737.005	2753.51
737.056	2789.91
737.108	2837.11
737.159	2917.84
737.21	2923.44
737.261	2958.58
737.313	3005.04
737.364	3065.76
737.415	3107.8
737.466	3124.64
737.518	3168.94
737.569	3188.2
737.62	3217.94
737.671	3245.46
737.722	3296.3
737.774	3321.05
737.825	3369.69
737.876	3378.64
737.927	3394.19
737.979	3424.9
738.03	3439.58
738.081	3467.68
738.132	3494.12
738.183	3504.15
738.235	3482.02
738.286	3503.08
738.337	3478.11
738.388	3517.82
738.44	3520.63
738.491	3508.76
738.542	3503.57
738.593	3507.45
738.644	3496.07
738.696	3477.18
738.747	3445.09
738.798	3437.4
738.849	3399.87
738.901	3361.25
738.952	3346.85
739.003	3324.52
739.054	3277.36
739.105	3268.91
739.157	3253.68
739.208	3218.94
739.259	3184.82
739.31	3135.35
739.361	3119.78
739.413	3083.71
739.464	3044.28
739.515	3019.53
739.566	2988.18
739.617	2918.8
739.669	2880.21
739.72	2863.32
739.771	2812.96
739.822	2773.9
739.874	2742.03
739.925	2692.94
739.976	2642.17
740.027	2637.24
740.078	2603
740.13	2563.54
740.181	2523.08
740.232	2462.65
740.283	2437.52
740.334	2417.91
740.385	2402.31
740.437	2336.24
740.488	2300.11
740.539	2304.41
740.59	2265.49
740.641	2244.04
740.693	2229.58
740.744	2191.36
740.795	2153.06
740.846	2121.11
740.897	2092.43
740.949	2052.19
741	2051.15
741.051	2008.17
741.102	1994.28
741.153	1967.79
741.205	1953.57
741.256	1918.48
741.307	1888.83
741.358	1872.23
741.409	1868.84
741.461	1864.46
741.512	1847.38
741.563	1824.66
741.614	1801.82
741.665	1772.76
741.716	1762.08
741.768	1745.43
741.819	1718.77
741.87	1718.81
741.921	1676.25
741.972	1668.89
742.024	1675.1
742.075	1648.54
742.126	1635.96
742.177	1620.36
742.228	1624.84
742.279	1604.11
742.331	1575.52
742.382	1563.88
742.433	1568.6
742.484	1542.66
742.535	1538.82
742.586	1515.71
742.638	1519.15
742.689	1494.45
742.74	1463.41
742.791	1469.28
742.842	1459.59
742.893	1436.27
742.945	1447.4
742.996	1443.69
743.047	1424.37
743.098	1399.36
743.149	1416.67
743.201	1400.3
743.252	1377.61
743.303	1367.77
743.354	1360.96
743.405	1350.33
743.456	1356.48
743.507	1344.17
743.559	1349.67
743.61	1335.63
743.661	1320.46
743.712	1305.99
743.763	1304.4
743.814	1307.65
743.866	1288.74
743.917	1280.78
743.968	1276.67
744.019	1276.72
744.07	1272.97
744.121	1259.93
744.172	1255.1
744.224	1236.96
744.275	1219.74
744.326	1229.77
744.377	1235
744.428	1221.38
744.479	1211.58
744.531	1212.02
744.582	1217.84
744.633	1203.35
744.684	1174.92
744.735	1176.16
744.786	1190.03
744.837	1186.6
744.889	1185.51
744.94	1170.4
744.991	1174.85
745.042	1180.21
745.093	1151.08
745.144	1168.59
745.195	1145.61
745.247	1128.81
745.298	1145.46
745.349	1132.45
745.4	1121.7
745.451	1133.32
745.502	1116.41
745.553	1101.9
745.605	1107.29
745.656	1122.85
745.707	1103.06
745.758	1097.38
745.809	1109.25
745.86	1108.22
745.911	1107.15
745.962	1111.69
746.014	1099.09
746.065	1087.5
746.116	1084.57
746.167	1081.09
746.218	1066.4
746.269	1070.9
746.32	1068.43
746.372	1066.3
746.423	1052.17
746.474	1063.05
746.525	1060.76
746.576	1045.65
746.627	1067.57
746.678	1069.53
746.729	1053.89
746.78	1065.85
746.832	1049.53
746.883	1054.22
746.934	1049.69
746.985	1039.08
747.036	1029.76
747.087	1024.95
747.138	1021.44
747.189	1033.02
747.241	1029.37
747.292	1030.08
747.343	1046.83
747.394	1039.91
747.445	1025.96
747.496	1025.77
747.547	1028.83
747.598	1018.41
747.649	1029.52
747.701	1005.62
747.752	989.2
747.803	987.663
747.854	1005.91
747.905	1002.53
747.956	1003.05
748.007	996.685
748.058	999.316
748.109	998.214
748.161	994.418
748.212	997.656
748.263	994.39
748.314	1001.79
748.365	978.18
748.416	984.377
748.467	978.568
748.518	971.657
748.569	983.072
748.62	985.356
748.672	987.344
748.723	979.569
748.774	985.593
748.825	979.996
748.876	983.454
748.927	985.283
748.978	982.354
749.029	972.47
749.08	960.902
749.131	955.483
749.173	962.197
749.224	973.341
749.275	949.889
749.326	981.99
749.378	957.936
749.429	963.541
749.48	952.94
749.531	963.879
749.582	939.566
749.634	944.832
749.685	952.261
749.736	966.958
749.787	943.281
749.838	927.471
749.89	960.161
749.941	939.523
749.992	931.013
750.043	954.033
750.094	949.504
750.146	943.479
750.197	934.041
750.248	920.412
750.299	943.327
750.35	937.814
750.401	931.296
750.453	938.067
750.504	915.236
750.555	912.607
750.606	915.743
750.657	935.481
750.709	923.368
750.76	915.463
750.811	909.743
750.862	907.176
750.913	911.721
750.964	908.482
751.016	910.034
751.067	901.615
751.118	913.589
751.169	933.5
751.22	908.936
751.272	901.728
751.323	919.626
751.374	905.541
751.425	909.804
751.476	903.62
751.528	914.798
751.579	908.496
751.63	912.118
751.681	913.916
751.732	913.763
751.783	916.5
751.835	890.23
751.886	899.051
751.937	912.063
751.988	903.064
752.039	901.5
752.09	899.347
752.142	898.01
752.193	873.838
752.244	883.803
752.295	886.184
752.346	882.191
752.397	895.603
752.449	873.384
752.5	888.716
752.551	872.633
752.602	892.667
752.653	902.154
752.704	878.094
752.756	876.521
752.807	888.169
752.858	882.892
752.909	880.059
752.96	877.04
753.011	875.093
753.063	881.257
753.114	880.897
753.165	877.46
753.216	870.107
753.267	865.511
753.318	897.593
753.37	856.361
753.421	875.136
753.472	856.689
753.523	881.469
753.574	873.953
753.625	860.742
753.676	879.779
753.728	864.555
753.779	867.37
753.83	876.583
753.881	847.482
753.932	861.951
753.983	867.242
754.034	876.136
754.086	851.651
754.137	873.656
754.188	873.171
754.239	867.38
754.29	869.4
754.341	861.364
754.393	849.553
754.444	859.808
754.495	853.745
754.546	865.051
754.597	852.106
754.648	845.498
754.699	855.32
754.75	869.536
754.802	870.008
754.853	832.497
754.904	845.618
754.955	861.709
755.006	834.946
755.057	861.005
755.108	846.572
755.16	847.455
755.211	847.483
755.262	845.984
755.313	840.414
755.364	835.144
755.415	827.839
755.466	827.452
755.518	822.907
755.569	826.087
755.62	831.98
755.671	834.221
755.722	850.873
755.773	837.038
755.824	843.58
755.875	837.579
755.927	826.702
755.978	828.203
756.029	823.521
756.08	825.77
756.131	830.425
756.182	835.194
756.233	834.868
756.284	837.36
756.336	817.446
756.387	831.072
756.438	812.602
756.489	813.341
756.54	814.266
756.591	826.516
756.642	808.162
756.693	831.075
756.745	830.451
756.796	811.142
756.847	825.653
756.898	826.259
756.949	814.336
757	801.633
757.051	823.904
757.102	827.164
757.153	797.259
757.205	801.644
757.256	809.236
757.307	800.863
757.358	801.208
757.409	809.931
757.46	790.33
757.511	815.762
757.562	798.654
757.613	793.369
757.664	786.99
757.716	814.024
757.767	800.709
757.818	800.936
757.869	803.906
757.92	800.696
757.971	780.028
758.022	800.431
758.073	816.429
758.124	826.782
758.175	808.095
758.227	802.627
758.278	797.214
758.329	785.087
758.38	789.397
758.431	793.103
758.482	773.571
758.533	785.075
758.584	801.02
758.635	792.148
758.686	764.594
758.738	777.334
758.789	793.095
758.84	781.761
758.891	797.349
758.942	780.215
758.993	785.858
759.044	780.199
759.095	781.47
759.146	787.182
759.197	769.855
759.248	759.427
759.3	799.701
759.351	777.544
759.402	781.006
759.453	776.482
759.504	777.187
759.555	779.897
759.606	775.523
759.657	766.439
759.708	773.311
759.759	765.054
759.81	767.192
759.861	765.099
759.913	765.052
759.964	761.823
760.015	764.224
760.066	754.259
760.117	766.765
760.168	762.79
760.219	757.883
760.27	769.865
760.321	762.398
760.372	755.353
760.423	757.403
760.474	750.444
760.525	766.896
760.576	756.031
760.628	757.623
760.679	739.897
760.73	746.762
760.781	756.264
760.832	756.797
760.883	751.704
760.934	750.657
760.985	746.716
761.036	721.048
761.087	724.342
761.138	749.351
761.189	755.887
761.24	746.689
761.291	734.852
761.342	746.929
761.393	748.847
761.445	744.754
761.496	744.114
761.547	749.862
761.598	747.414
761.649	727.273
761.7	730.074
761.751	742.238
761.802	747.137
761.853	744.676
761.904	736.875
761.955	739.106
762.006	743.824
762.057	745.994
762.108	739.197
762.159	728.943
762.21	730.633
762.261	738.451
762.313	737.929
762.364	731.969
762.415	732.669
762.466	730.764
762.517	729.832
762.568	739.351
762.619	732.847
762.67	717.972
762.721	730.394
762.772	733.383
762.823	731.289
762.874	720.183
762.925	714.867
762.976	733.915
763.027	730.278
763.078	729.111
763.129	728.826
763.18	726.727
763.231	732.654
763.282	727.048
763.333	722.168
763.384	728.985
763.435	715.829
763.486	713.616
763.537	717.429
763.589	721.107
763.64	717.311
763.691	713.398
763.742	710.731
763.793	707.552
763.844	710.855
763.895	709.836
763.946	716.79
763.997	721.174
764.048	716.382
764.099	712.188
764.15	716.212
764.201	716.897
764.252	718.404
764.303	714.715
764.354	703.142
764.405	700.73
764.456	703.667
764.507	709.929
764.558	714.103
764.609	703.23
764.66	700.667
764.711	708.589
764.762	713.776
764.813	704.923
764.864	695.61
764.915	693.695
764.966	702.801
765.017	716.881
765.068	709.946
765.119	705.473
765.17	712.798
765.221	714.683
765.272	709.105
765.323	698.616
765.374	695.781
765.425	697.883
765.476	697.058
765.527	698.57
765.578	706.968
765.629	708.525
765.68	700.587
765.731	698.792
765.782	698.256
765.833	695.901
765.884	701.117
765.935	706.781
765.986	711.859
766.037	708.715
766.088	700.511
766.139	705.729
766.19	692.837
766.241	687.246
766.292	693.516
766.343	696.948
766.394	706.857
766.445	696.49
766.496	688.929
766.547	680.788
766.598	682.358
766.649	692.896
766.677	699.483
766.729	692.339
766.78	671.845
766.831	693.781
766.882	692.248
766.933	668.461
766.984	679.699
767.035	699.371
767.086	670.816
767.137	668.859
767.188	693.395
767.24	685.22
767.291	679.518
767.342	680.138
767.393	660.224
767.444	654.978
767.495	665.911
767.546	679.009
767.597	659.168
767.648	673.934
767.7	662.087
767.751	647.677
767.802	674.599
767.853	657.116
767.904	667.115
767.955	646.209
768.006	657.65
768.057	652.865
768.108	654.006
768.159	660.82
768.21	645.578
768.262	646.816
768.313	650.77
768.364	633.025
768.415	656.862
768.466	630.822
768.517	636.855
768.568	639.987
768.619	629.495
768.67	643.464
768.721	628.918
768.772	630.411
768.823	623.104
768.875	629.174
768.926	635.296
768.977	622.435
769.028	619.317
769.079	632.525
769.13	610.854
769.181	617.829
769.232	625.694
769.283	622.086
769.334	611.365
769.385	598.984
769.436	623.194
769.488	624.472
769.539	617.111
769.59	616.706
769.641	622.185
769.692	619.199
769.743	612.455
769.794	612.835
769.845	601.332
769.896	616.485
769.947	598.726
769.998	601.486
770.049	607.41
770.1	608.582
770.151	591.44
770.203	582.451
770.254	589.055
770.305	595.704
770.356	584.976
770.407	591.325
770.458	589.582
770.509	568.717
770.56	575.59
770.611	583.409
770.662	580.732
770.713	590.011
770.764	582.957
770.815	577.654
770.866	564.982
770.917	575.446
770.968	573.375
771.02	573.147
771.071	584.463
771.122	571.601
771.173	566.695
771.224	578.491
771.275	573.804
771.326	557.56
771.377	556.313
771.428	567.032
771.479	564.372
771.53	560.253
771.581	561.497
771.632	575.749
771.683	564.23
771.734	547.385
771.785	550.951
771.836	558.797
771.887	551.741
771.938	554.443
771.99	562.253
772.041	563.669
772.092	550.542
772.143	541.358
772.194	557.776
772.245	558.865
772.296	545.25
772.347	552.704
772.398	545.524
772.449	546.595
772.5	543.604
772.551	535.376
772.602	524.179
772.653	542.233
772.704	542.389
772.755	531.992
772.806	539.866
772.857	542.442
772.908	547.597
772.959	540.919
773.01	545.246
773.061	527.95
773.112	530.271
773.163	519.563
773.214	522.283
773.265	527.368
773.316	515.414
773.367	525.651
773.419	528.101
773.47	526.099
773.521	526.669
773.572	518.175
773.623	506.273
773.674	505.843
773.725	516.904
773.776	524.484
773.827	508.36
773.878	514.191
773.929	527.595
773.98	514.08
774.031	497.063
774.082	514.904
774.133	518.662
774.184	500.31
774.235	502.4
774.286	519.614
774.337	498.338
774.388	502.261
774.439	509.006
774.49	505.932
774.541	504.181
774.592	501.56
774.643	494.598
774.694	502.076
774.745	505.958
774.796	483.619
774.847	494.193
774.898	501.353
774.949	492.093
775	500.225
775.051	488.729
775.102	485.852
775.153	488.29
775.204	485.858
775.255	497.979
775.306	494.743
775.357	496.233
775.408	491.661
775.459	480.561
775.51	497.077
775.561	492.319
775.612	490.029
775.663	482.583
775.714	485.042
775.765	495.673
775.816	481.813
775.867	480.921
775.918	475.395
775.969	471.529
776.02	474.309
776.071	479.049
776.122	477.732
776.173	483.063
776.224	478.081
776.275	480.93
776.326	473.594
776.377	476.033
776.428	472.416
776.479	466.166
776.53	474.961
776.581	469.682
776.632	462.955
776.683	463.384
776.734	457.501
776.785	457.926
776.836	460.309
776.887	456.817
776.938	464.237
776.989	465.935
777.04	454.478
777.091	451.192
777.142	463.95
777.193	468.103
777.244	461.276
777.295	457.774
777.346	457.177
777.397	458.472
777.448	458.874
777.499	459.322
777.55	461.646
777.601	449.162
777.652	446.18
777.703	446.598
777.754	451.685
777.805	453.411
777.856	448.566
777.907	448.024
777.958	452.41
778.009	458.166
778.06	446.651
778.111	437.041
778.161	449.774
778.212	452.765
778.263	440.824
778.314	442.131
778.365	446.473
778.416	444.772
778.467	440.632
778.518	448.014
778.569	442.141
778.62	432.65
778.671	431.337
778.722	429.842
778.773	434.374
778.824	429.671
778.875	426.006
778.926	432.575
778.977	430.211
779.028	429.774
779.079	431.852
779.13	433.422
779.181	436.258
779.232	433.928
779.283	436.249
779.334	434.328
779.385	426.071
779.436	428.321
779.487	437.532
779.537	438.956
779.588	433.244
779.639	429.419
779.69	428.418
779.741	439.534
779.792	435.313
779.843	428.073
779.894	427.231
779.945	419.969
779.996	414.542
780.047	417.865
780.098	420.861
780.149	427.442
780.2	431.928
780.251	422.344
780.302	422.927
780.353	422.504
780.404	428.236
780.455	426.133
780.505	411.685
780.556	409.457
780.607	419.613
780.658	412.805
780.709	405.258
780.76	408.936
780.811	406.08
780.862	410.221
780.913	413.643
780.964	406.943
781.015	399.221
781.066	406.097
781.117	406.517
781.168	398.354
781.219	396.704
781.27	392.715
781.32	397.802
781.371	407.501
781.422	405.177
781.473	406.353
781.524	404.821
781.575	393.306
781.626	396.934
781.677	395.273
781.728	389.217
781.779	400.853
781.83	396.77
781.881	393.531
781.932	385.552
781.983	387.287
782.033	391.315
782.084	394.521
782.135	390.719
782.186	389.438
782.237	385.075
782.288	392.679
782.339	393.336
782.39	394.525
782.441	392.158
782.492	397.235
782.543	386.137
782.594	387.481
782.644	389.278
782.695	376.491
782.746	372.159
782.797	383.021
782.848	383.48
782.899	387.528
782.95	393.517
783.001	390.081
783.052	392.977
783.103	385.586
783.154	378.341
783.204	387.076
783.255	372.433
783.306	378.594
783.357	393.904
783.408	382.119
783.459	374.856
783.51	373.437
783.561	373.719
783.612	376.714
783.663	374.011
783.714	366.406
783.764	362.437
783.815	370.357
783.866	390.613
783.917	374.119
783.968	369.872
784.019	367.469
784.07	379.963
784.109	368.452
784.16	362.454
784.211	361.828
784.262	369.766
784.313	373.061
784.364	352.039
784.415	363.535
784.466	354.406
784.517	377.086
784.568	374.71
784.619	374.974
784.67	373.44
784.721	373.791
784.772	357.406
784.823	358.079
784.874	344.673
784.925	350.326
784.976	360.481
785.027	352.595
785.078	369.966
785.129	365.353
785.18	357.511
785.231	355.687
785.282	357.854
785.333	351.3
785.384	341.938
785.435	355.806
785.486	359.105
785.537	350.308
785.588	350.211
785.639	357.189
785.69	358.905
785.741	360.089
785.792	336.599
785.843	344.535
785.894	356.276
785.945	351.87
785.996	357.877
786.047	351.802
786.098	347.739
786.149	338.609
786.2	341.822
786.251	344.331
786.302	347.689
786.353	342.338
786.404	346.099
786.455	349.356
786.506	353.588
786.557	346.888
786.608	342.903
786.659	345.342
786.71	343.344
786.761	340.07
786.812	341.633
786.863	340.616
786.914	348.57
786.965	344.941
787.016	333.293
787.067	348.861
787.118	337.18
787.169	333.43
787.22	336.161
787.271	344.377
787.322	340.032
787.373	339.325
787.424	342.06
787.475	342.98
787.526	333.088
787.576	322.273
787.627	323.111
787.678	322.056
787.729	343.001
787.78	336.027
787.831	343.828
787.882	337.441
787.933	346.381
787.984	333.796
788.035	334.329
788.086	330.037
788.137	337.905
788.188	332.762
788.239	327.914
788.29	332.533
788.341	332.378
788.392	327.618
788.443	331.506
788.494	333.293
788.545	332.469
788.596	332.101
788.647	320.301
788.698	323.908
788.749	332.114
788.8	329.04
788.851	319.602
788.901	329.425
788.952	324.67
789.003	327.097
789.054	313.549
789.105	326.001
789.156	325.43
789.207	313.314
789.258	326.812
789.309	334.711
789.36	318.503
789.411	329.051
789.462	324.732
789.513	322.813
789.564	329.566
789.615	316.159
789.666	317.228
789.717	318.267
789.768	317.031
789.819	316.351
789.87	319.008
789.92	308.864
789.971	305.528
790.022	302.862
790.073	316.717
790.124	323.084
790.175	315.19
790.226	309.892
790.277	317.004
790.328	315.927
790.379	319.697
790.43	316.186
790.481	315.626
790.532	312.432
790.583	314.615
790.634	310.812
790.685	316.251
790.735	315.684
790.786	318.688
790.837	302.559
790.888	308.202
790.939	305.697
790.99	306.29
791.041	312.79
791.092	311.695
791.143	305.245
791.194	302.524
791.245	297.969
791.296	305.914
791.347	309.13
791.397	312.039
791.448	301.395
791.499	296.855
791.55	302.736
791.601	297.392
791.652	294.308
791.703	294.107
791.754	299.38
791.805	302.965
791.856	311.984
791.907	300.984
791.958	291.976
792.008	293.74
792.059	293.271
792.11	298.271
792.161	303.7
792.212	300.943
792.263	300.368
792.314	305.996
792.365	307.464
792.416	296.543
792.467	289.359
792.518	297.158
792.569	306.23
792.619	300.423
792.67	298.369
792.721	297.54
792.772	291.501
792.823	293.534
792.874	296.727
792.925	293.634
792.976	299.124
793.027	295.245
793.078	288.692
793.128	291.779
793.179	294.303
793.23	289.147
793.281	301.295
793.332	295.58
793.383	293.159
793.434	290.114
793.485	289.764
793.536	292.237
793.587	294.457
793.638	281.697
793.688	295.501
793.739	293.96
793.79	296.368
793.841	294.247
793.892	293.998
793.943	287.167
793.994	291.405
794.045	288.277
794.096	292.194
794.146	298.232
794.197	292.026
794.248	290.544
794.299	288.572
794.35	292.642
794.401	294.833
794.452	290.182
794.503	290.855
794.554	295.906
794.604	295.816
794.655	279.796
794.706	282.821
794.757	291.318
794.808	281.029
794.859	286.028
794.91	288.9
794.961	284.693
795.011	285.155
795.062	288.125
795.113	282.969
795.164	280.314
795.215	288.454
795.266	277.85
795.317	286.392
795.368	280.623
795.418	274.799
795.469	288.365
795.52	290.842
795.571	284.956
795.622	284.51
795.673	281.045
795.724	280.837
795.775	282.177
795.825	281.245
795.876	283.71
795.927	277.029
795.978	284.268
796.029	277.918
796.08	275.878
796.131	281.536
796.181	281.918
796.232	280.187
796.283	279.679
796.334	272.84
796.385	282.849
796.436	276.293
796.487	283.338
796.537	281.596
796.588	276.768
796.639	273.694
796.69	275.477
796.741	272.657
796.792	273.16
796.843	276.193
796.893	275.148
796.944	274.062
796.995	270.378
797.046	267.112
797.097	264.965
797.148	272.516
797.199	272.279
797.249	276.071
797.3	282.148
797.351	277.663
797.402	267.629
797.453	263.617
797.504	270.439
797.555	272.945
797.605	267.5
797.656	266.045
797.707	260.828
797.758	259.908
797.809	269.818
797.86	265.137
797.91	266.714
797.961	267.204
798.012	266.153
798.063	268.116
798.114	263.464
798.165	266.755
798.216	267.731
798.266	257.57
798.317	250.992
798.368	260.63
798.419	264.674
798.47	263.557
798.521	262.623
798.571	264.416
798.622	262.946
798.673	262.471
798.724	259.184
798.775	260.071
798.826	251.9
798.876	254.967
798.927	261.312
798.978	260.124
799.029	247.338
799.08	256.098
799.13	261.756
799.181	253.094
799.232	257.681
799.283	258.441
799.334	256.462
799.385	255.017
799.435	248.741
799.486	251.208
799.537	260.094
799.588	256.418
799.639	248.054
799.69	243.555
799.74	251.403
799.791	253.541
799.842	245.341
799.893	240.68
799.944	245.281
799.994	248.511
800.045	245.462
800.096	251.058
800.147	251.652
800.198	243.859
800.248	247.017
800.299	238.334
800.35	246.472
800.401	239.782
800.452	239.205
800.503	243.253
800.553	239.825
800.604	242.251
800.655	239.871
800.706	232.792
800.757	245.826
800.807	244.565
800.858	234.948
800.909	238.815
800.96	245.075
801.011	235.835
801.061	238.48
801.112	235.024
801.163	234.824
801.214	242.938
801.265	234.922
801.315	241.046
801.366	240.769
801.417	242.858
801.457	241
801.508	229.754
801.558	233.711
801.609	243.484
801.66	234.351
801.711	230.795
801.762	231.379
801.813	242.139
801.864	240.168
801.915	231.332
801.966	227.796
802.017	232.461
802.068	231.33
802.118	239.795
802.169	221.453
802.22	229.607
802.271	219.492
802.322	228.895
802.373	222.227
802.424	233.535
802.475	229.664
802.526	223.867
802.577	229.747
802.627	234.088
802.678	233.934
802.729	237.371
802.78	233.623
802.831	233.144
802.882	228.089
802.933	225.548
802.984	230.827
803.035	226.613
803.086	222.446
803.136	219.744
803.187	226.448
803.238	229.274
803.289	215.113
803.34	229.051
803.391	229.696
803.442	225.723
803.493	230.092
803.544	221.68
803.594	230.498
803.645	223.94
803.696	219.411
803.747	216.29
803.798	229.552
803.849	222.501
803.9	222.368
803.951	215.559
804.002	223.15
804.052	220.006
804.103	210.088
804.154	212.599
804.205	225.039
804.256	214.478
804.307	228.22
804.358	214.284
804.409	212.07
804.459	207.951
804.51	211.498
804.561	220.197
804.612	220.213
804.663	210.1
804.714	216.308
804.765	212.358
804.816	220.221
804.866	210.01
804.917	216.006
804.968	212.437
805.019	217.396
805.07	213.448
805.121	216.412
805.172	214.409
805.223	207.129
805.273	225.079
805.324	208.368
805.375	209.876
805.426	216.755
805.477	213.768
805.528	207.595
805.579	205.597
805.629	210.657
805.68	217.815
805.731	210.01
805.782	211.652
805.833	209.549
805.884	220.119
805.935	213.53
805.985	206.699
806.036	215.994
806.087	203.377
806.138	205.977
806.189	206.426
806.24	200.675
806.291	202.073
806.341	190.881
806.392	212.978
806.443	206.058
806.494	205.685
806.545	204.742
806.596	204.342
806.647	212.195
806.697	195.274
806.748	200.674
806.799	204.938
806.85	202.43
806.901	207.179
806.952	204.414
807.003	210.553
807.053	209.775
807.104	196.588
807.155	208.063
807.206	206.568
807.257	211.188
807.308	197.944
807.358	204.575
807.409	199.984
807.46	196.831
807.511	205.365
807.562	198.052
807.613	205.344
807.663	205.09
807.714	197.798
807.765	201.743
807.816	208.72
807.867	198.171
807.918	201.205
807.969	188.624
808.019	205.153
808.07	197.785
808.121	199.449
808.172	209.14
808.223	205.252
808.273	200.274
808.324	196.448
808.375	196.991
808.426	194.471
808.477	197.393
808.528	196.825
808.578	207.546
808.629	201.032
808.68	204.662
808.731	199.391
808.782	199.479
808.833	204.772
808.883	198.964
808.934	191.445
808.985	207.909
809.036	204.823
809.087	198.738
809.138	199.936
809.188	199.554
809.239	199.508
809.29	193.873
809.341	196.927
809.392	200.081
809.442	187.162
809.493	186.115
809.544	181.713
809.595	195.584
809.646	197.659
809.696	189.971
809.747	184.941
809.798	190.587
809.849	192.711
809.9	194.106
809.951	190.703
810.001	192.106
810.052	191.768
810.103	193.514
810.154	180.235
810.205	185.713
810.255	191.73
810.306	192.675
810.357	183.601
810.408	195.988
810.459	192.632
810.509	188.16
810.56	181.695
810.611	194.42
810.662	199.275
810.713	198.592
810.763	188.546
810.814	199.43
810.865	187.245
810.916	187.062
810.967	187.297
811.017	193.356
811.068	184.361
811.119	190.771
811.17	188.299
811.221	191.321
811.271	187.026
811.322	187.759
811.373	186.399
811.424	190.271
811.474	191.267
811.525	186.524
811.576	184.116
811.627	183.711
811.678	188.62
811.728	176.759
811.779	176.692
811.83	188.589
811.881	185.113
811.932	187.733
811.982	187.565
812.033	180.702
812.084	184.699
812.135	187.485
812.185	183.055
812.236	190.006
812.287	176.858
812.338	185.452
812.389	183.572
812.439	192.304
812.49	186.837
812.541	179.388
812.592	180.536
812.642	191.969
812.693	186.789
812.744	183.412
812.795	174.326
812.846	184.281
812.896	179.978
812.947	181.781
812.998	185.099
813.049	190.311
813.099	182.287
813.15	173.347
813.201	182.941
813.252	180.815
813.302	185.628
813.353	181.608
813.404	178.106
813.455	183.213
813.506	182.084
813.556	175.181
813.607	168.013
813.658	175.435
813.709	174.041
813.759	185.629
813.81	182.421
813.861	180.804
813.912	176.4
813.962	179.488
814.013	172.709
814.064	172.049
814.115	169.643
814.165	172.311
814.216	175.424
814.267	176.718
814.318	171.647
814.368	176.866
814.419	181.72
814.47	176.404
814.521	174.168
814.571	170.963
814.622	166.199
814.673	170.506
814.724	164.923
814.774	173.756
814.825	177.025
814.876	169.665
814.927	171.102
814.977	176.169
815.028	175.629
815.079	172.898
815.13	173.035
815.18	174.348
815.231	174.835
815.282	166.487
815.333	163.8
815.383	171.837
815.434	166.547
815.485	170.968
815.536	171.372
815.586	167.74
815.637	172.229
815.688	171.845
815.739	166.814
815.789	162.549
815.84	165.168
815.891	167.937
815.941	165.696
815.992	159.157
816.043	155.245
816.094	158.866
816.144	168.334
816.195	164.613
816.246	158.883
816.297	167.104
816.347	170.4
816.398	164.506
816.449	163.756
816.499	160.836
816.55	161.454
816.601	160.647
816.652	159.561
816.702	151.621
816.753	155.113
816.804	158.351
816.855	157.553
816.905	150.234
816.956	158.924
817.007	162.358
817.057	164.53
817.108	165.786
817.159	157.428
817.21	155.604
817.26	153.731
817.311	156.337
817.362	163.079
817.412	160.452
817.463	161.75
817.514	163.432
817.565	161.315
817.615	156.399
817.666	159.162
817.717	158.862
817.767	156.928
817.818	152.901
817.869	152.172
817.919	150.989
817.97	153.575
818.021	155.701
818.072	152.46
818.122	158.232
818.173	158.162
818.224	161.869
818.274	156.017
818.325	153.709
818.376	150.939
818.427	157.252
818.477	153.909
818.528	154.083
818.579	151.117
818.629	150.384
818.68	157.472
818.731	150.794
818.781	146.32
818.806	154.679
818.857	153.322
818.908	155.33
818.959	152.606
819.01	152.57
819.06	155.365
819.111	159.645
819.162	153.188
819.213	144.565
819.264	142.752
819.315	145.468
819.365	152.783
819.416	148.774
819.467	156.973
819.518	153.588
819.569	142.059
819.619	143.805
819.67	136.385
819.721	146.419
819.772	147.657
819.823	154.2
819.873	154.072
819.924	144.066
819.975	135.428
820.026	138.531
820.077	142.979
820.127	142.265
820.178	139.202
820.229	141.605
820.28	136.333
820.331	145.999
820.381	144.66
820.432	135.043
820.483	136.396
820.534	142.325
820.585	138.693
820.635	133.383
820.686	138.428
820.737	139.09
820.788	136.159
820.839	141.056
820.889	141.638
820.94	139.97
820.991	142.234
821.042	137.544
821.092	141.735
821.143	138.272
821.194	137.49
821.245	143.811
821.296	137.58
821.346	130.6
821.397	135.285
821.448	135.151
821.499	141.365
821.549	134.298
821.6	138.008
821.651	143.56
821.702	147.919
821.753	136.84
821.803	139.156
821.854	138.904
821.905	141.283
821.956	138.033
822.006	136.412
822.057	133.903
822.108	125.383
822.159	135.857
822.21	139.182
822.26	146.015
822.311	141.904
822.362	135.191
822.413	133.149
822.463	131.103
822.514	138.609
822.565	144.508
822.616	138.224
822.667	127.445
822.717	139.712
822.768	136.77
822.819	138.329
822.87	131.385
822.92	132.44
822.971	140.331
823.022	140.622
823.073	139.742
823.123	136.987
823.174	133.626
823.225	137.547
823.276	130.129
823.326	135.227
823.377	129.216
823.428	132.226
823.479	128.409
823.529	133.653
823.58	128.667
823.631	132.856
823.682	126.193
823.732	129.665
823.783	127.563
823.834	131.273
823.885	129.972
823.935	129.866
823.986	128.293
824.037	135.404
824.088	132.649
824.138	130.092
824.189	126.581
824.24	132.12
824.291	130.032
824.341	133.698
824.392	123.084
824.443	128.055
824.494	126.862
824.544	126.639
824.595	127.232
824.646	125.259
824.697	126.65
824.747	124.512
824.798	125.836
824.849	128.221
824.9	121.185
824.95	123.894
825.001	124.568
825.052	122.739
825.103	124.347
825.153	124.103
825.204	124.091
825.255	132.89
825.305	129.95
825.356	123.024
825.407	124.388
825.458	123.603
825.508	123.99
825.559	126.499
825.61	125.162
825.661	124.604
825.711	126.576
825.762	118.122
825.813	115.954
825.864	116.782
825.914	122.51
825.965	126.007
826.016	122.221
826.066	119.66
826.117	123.508
826.168	122.962
826.219	119.744
826.269	118.092
826.32	122.424
826.371	119.676
826.421	119.303
826.472	125.76
826.523	128.952
826.574	128.108
826.624	123.83
826.675	118.92
826.726	119.258
826.776	125.452
826.827	121.353
826.878	121.316
826.929	129.243
826.979	127.587
827.03	123.347
827.081	120.691
827.131	119.79
827.182	119.832
827.233	123.339
827.284	124.979
827.334	120.121
827.385	120.718
827.436	126.474
827.486	118.443
827.537	114.256
827.588	122.779
827.638	121.844
827.689	121.405
827.74	119.208
827.791	111.796
827.841	117.772
827.892	121.643
827.943	112.064
827.993	115.229
828.044	117.818
828.095	119.99
828.146	119.603
828.196	117.699
828.247	114.614
828.298	117.358
828.348	115.272
828.399	114.911
828.45	118.956
828.5	124.423
828.551	115.721
828.602	115.773
828.652	119.502
828.703	115.21
828.754	113.8
828.805	116.001
828.855	113.89
828.906	115.753
828.957	113.513
829.007	114.138
829.058	115.957
829.109	122.674
829.159	117.021
829.21	116.916
829.261	120.788
829.311	121.955
829.362	118.304
829.413	117.362
829.463	118.112
829.514	113.581
829.565	114.232
829.615	118.572
829.666	116.245
829.717	115.77
829.767	117.04
829.818	114.421
829.869	115.416
829.919	115.673
829.97	119.032
830.021	119.207
830.071	119.638
830.122	111.273
830.173	109.729
830.224	114.568
830.274	108.115
830.325	113.488
830.376	111.088
830.426	112.392
830.477	114.081
830.528	110.353
830.578	114.416
830.629	121.306
830.68	116.413
830.73	111.921
830.781	113.452
830.831	109.059
830.882	110.689
830.933	113.129
830.983	115.069
831.034	112.056
831.085	110.262
831.135	107.272
831.186	105.749
831.237	118.821
831.287	122.287
831.338	117.963
831.389	116.314
831.439	107.008
831.49	111.725
831.541	110.869
831.591	112.183
831.642	108.791
831.693	116.175
831.743	113.34
831.794	108.937
831.845	107.435
831.895	105.952
831.946	105.485
831.997	110.409
832.047	119.444
832.098	105.409
832.148	109.785
832.199	107.604
832.25	108.714
832.3	104.302
832.351	109.874
832.402	115.653
832.452	113.912
832.503	112.085
832.554	101.579
832.604	101.924
832.655	111.984
832.706	112.137
832.756	110.926
832.807	103.455
832.857	108.286
832.908	108.707
832.959	110.144
833.009	103.833
833.06	114.237
833.111	106.371
833.161	113.275
833.212	105.412
833.263	107.655
833.313	108.599
833.364	109.96
833.414	102.364
833.465	105.084
833.516	114.838
833.566	105.334
833.617	106.272
833.668	101.418
833.718	104.075
833.769	104.742
833.819	104.695
833.87	105.969
833.921	104.353
833.971	106.758
834.022	107.485
834.073	100.241
834.123	102.778
834.174	101.874
834.224	102.837
834.275	105.022
834.326	107.462
834.376	102.256
834.427	109.477
834.477	113.634
834.528	102.492
834.579	106.064
834.629	104.509
834.68	107.316
834.73	97.7788
834.781	103.723
834.832	98.7388
834.882	109.028
834.933	101.719
834.984	102.848
835.034	104.607
835.085	109.333
835.135	103.135
835.186	115.86
835.237	104.168
835.287	108.903
835.338	102.544
835.388	112.526
835.439	108.789
835.49	107.121
835.54	102.956
835.591	97.144
835.641	103.256
835.692	103.814
835.743	107.937
835.793	107.74
835.844	99.1078
835.894	104.854
835.945	109.99
835.996	97.2398
836.046	97.0831
836.097	106.612
836.099	106.843
836.15	101.047
836.201	97.093
836.251	108.902
836.302	101.137
836.353	100.134
836.404	98.9834
836.454	103.001
836.505	105.908
836.556	96.0509
836.606	103.987
836.657	102.872
836.708	101.075
836.758	99.0357
836.809	106.076
836.86	107.768
836.911	105.834
836.961	99.9637
837.012	100.758
837.063	99.1278
837.113	97.1741
837.164	103.864
837.215	90.7755
837.265	99.3865
837.316	103.901
837.367	101.709
837.418	93.3577
837.468	94.9462
837.519	105.856
837.57	96.5459
837.62	101.81
837.671	104.561
837.722	97.5308
837.772	93.8633
837.823	99.3392
837.874	103.838
837.924	96.0242
837.975	92.6549
838.026	92.709
838.077	95.594
838.127	92.5279
838.178	98.5666
838.229	100.271
838.279	93.7817
838.33	95.6465
838.381	101.245
838.431	99.4438
838.482	98.6427
838.533	98.8389
838.583	92.9724
838.634	96.6633
838.685	98.2424
838.735	101.868
838.786	98.8407
838.837	94.9814
838.888	96.2953
838.938	99.9066
838.989	94.7455
839.04	91.804
839.09	96.5729
839.141	103.959
839.192	102.442
839.242	96.465
839.293	107.826
839.344	95.312
839.394	95.2862
839.445	97.246
839.496	99.7538
839.546	103.089
839.597	99.164
839.648	99.1829
839.698	94.8509
839.749	96.4909
839.8	95.7966
839.85	98.4445
839.901	100.149
839.952	100.326
840.002	97.2059
840.053	92.6823
840.104	93.9622
840.154	94.4773
840.205	95.5901
840.256	99.073
840.306	97.9932
840.357	96.648
840.408	89.5754
840.458	98.4515
840.509	97.0746
840.56	90.8013
840.61	86.2808
840.661	91.1835
840.711	91.9102
840.762	90.182
840.813	89.8617
840.863	93.5421
840.914	92.9752
840.965	94.578
841.015	94.1951
841.066	90.9237
841.117	92.7597
841.167	93.065
841.218	87.1142
841.269	90.6925
841.319	92.5028
841.37	93.9978
841.421	98.233
841.471	92.2769
841.522	93.7371
841.573	93.4953
841.623	95.6385
841.674	88.9679
841.724	87.9277
841.775	92.1886
841.826	92.3357
841.876	96.8907
841.927	100.143
841.978	102.683
842.028	93.6727
842.079	94.7543
842.13	90.9768
842.18	93.304
842.231	95.6461
842.281	97.1488
842.332	96.1979
842.383	91.1518
842.433	95.7213
842.484	97.9354
842.535	101.873
842.585	92.5314
842.636	91.1716
842.687	99.5785
842.737	97.5123
842.788	95.9976
842.838	96.8571
842.889	92.5375
842.94	92.0853
842.99	93.4438
843.041	87.7592
843.092	91.0105
843.142	98.5288
843.193	99.4581
843.243	87.5025
843.294	94.659
843.345	92.5107
843.395	90.6893
843.446	84.5931
843.497	84.9291
843.547	86.8668
843.598	87.3263
843.648	88.2652
843.699	89.1007
843.75	91.7029
843.8	97.2532
843.851	88.1291
843.901	88.1932
843.952	95.1342
844.003	88.3724
844.053	88.9886
844.104	90.178
844.155	89.6428
844.205	88.0474
844.256	84.4152
844.306	82.7329
844.357	84.382
844.408	84.4792
844.458	85.2957
844.509	87.2468
844.559	90.3541
844.61	90.3963
844.661	89.1891
844.711	85.9303
844.762	89.7768
844.812	90.0269
844.863	88.4932
844.914	90.562
844.964	90.2013
845.015	87.9
845.065	83.766
845.116	85.0897
845.167	90.4473
845.217	86.8314
845.268	87.0497
845.318	87.9398
845.369	88.5593
845.42	85.4266
845.47	83.2617
845.521	85.1972
845.571	88.5076
845.622	84.2276
845.673	86.21
845.723	84.2692
845.774	91.8752
845.824	85.809
845.875	84.6048
845.926	88.1085
845.976	91.5448
846.027	79.5215
846.077	78.8415
846.128	86.2601
846.178	90.1663
846.229	84.3126
846.28	86.1025
846.33	87.4928
846.381	85.4191
846.431	86.5985
846.482	89.717
846.533	89.7353
846.583	90.7318
846.634	88.842
846.684	89.1268
846.735	86.0212
846.785	86.9413
846.836	92.3655
846.887	91.8085
846.937	88.288
846.988	88.3348
847.038	88.519
847.089	88.2389
847.139	89.4756
847.19	86.4829
847.241	88.4186
847.291	86.3568
847.342	86.0442
847.392	89.3574
847.443	83.2488
847.493	89.2671
847.544	91.3342
847.595	87.151
847.645	84.2371
847.696	86.4571
847.746	84.4419
847.797	83.8053
847.847	83.7406
847.898	90.156
847.948	88.7154
847.999	83.1199
848.05	86.3353
848.1	90.3551
848.151	88.2177
848.201	86.5176
848.252	80.0279
848.302	85.7096
848.353	85.9427
848.404	87.0002
848.454	87.9698
848.505	85.8512
848.555	87.2389
848.606	84.7612
848.656	83.441
848.707	86.9733
848.757	82.9883
848.808	80.7839
848.859	79.8122
848.909	85.523
848.96	89.5966
849.01	80.8746
849.061	80.5926
849.111	85.8953
849.162	85.9274
849.212	82.1877
849.263	82.7814
849.313	84.4502
849.364	86.1753
849.414	79.4478
849.465	81.2148
849.516	79.2122
849.566	79.8896
849.617	76.9895
849.667	81.3738
849.718	84.2423
849.768	85.449
849.819	78.3135
849.869	81.3175
849.92	80.0888
849.97	77.1876
850.021	76.0689
850.071	77.0714
850.122	86.8889
850.173	79.5608
850.223	77.604
850.274	82.1801
850.324	80.4368
850.375	80.8328
850.425	80.9309
850.476	79.0567
850.526	78.8999
850.577	79.1695
850.627	77.0666
850.678	82.6198
850.728	78.4146
850.779	83.3106
850.829	76.6427
850.88	82.8542
850.93	85.3256
850.981	80.5292
851.031	77.4101
851.082	79.2507
851.133	82.4775
851.183	82.0802
851.234	79.8744
851.284	82.7178
851.335	81.5414
851.385	86.5813
851.436	78.4515
851.486	80.4317
851.537	81.3212
851.587	77.828
851.638	80.883
851.688	83.4385
851.739	84.9594
851.789	83.973
851.84	79.0308
851.89	84.1773
851.941	84.1748
851.991	76.9076
852.042	76.613
852.092	81.7882
852.143	83.0204
852.193	79.1664
852.244	73.8894
852.294	80.0572
852.345	83.8128
852.395	83.409
852.446	79.0615
852.496	77.6669
852.547	80.2701
852.597	79.1082
852.648	75.6308
852.698	77.226
852.749	79.6291
852.799	74.8772
852.85	74.51
852.9	79.2943
852.951	84.0892
853.001	81.2388
853.052	81.4781
853.102	82.8251
853.153	84.9142
853.203	78.1775
853.254	78.1122
853.304	72.8648
853.355	81.0948
853.405	80.1949
853.443	72.4637
853.493	77.2039
853.544	84.7384
853.594	79.0113
853.645	77.3651
853.696	72.8012
853.746	73.8087
853.797	76.5428
853.847	69.8904
853.898	72.4883
853.949	77.6729
853.999	79.6042
854.05	75.7735
854.1	78.4497
854.151	82.0762
854.202	73.1912
854.252	73.8475
854.303	78.8085
854.353	83.0821
854.404	79.0093
854.455	70.4068
854.505	72.7135
854.556	75.9638
854.606	77.7838
854.657	75.1854
854.708	77.6699
854.758	79.8102
854.809	82.0861
854.859	69.0156
854.91	73.7414
854.961	79.7052
855.011	80.4744
855.062	73.089
855.112	80.3381
855.163	81.611
855.214	75.6502
855.264	69.0872
855.315	74.4819
855.365	76.3419
855.416	74.4821
855.466	75.7435
855.517	80.9548
855.568	72.7336
855.618	74.5416
855.669	70.7144
855.719	80.6023
855.77	76.9302
855.821	76.4478
855.871	75.0623
855.922	74.6484
855.972	77.7236
856.023	76.5
856.073	71.3097
856.124	77.6319
856.175	75.0223
856.225	73.5349
856.276	72.3748
856.326	80.9262
856.377	76.7738
856.427	71.251
856.478	68.3675
856.529	76.0367
856.579	67.8673
856.63	69.6891
856.68	72.3089
856.731	69.8385
856.781	76.0956
856.832	67.3224
856.883	67.5042
856.933	72.8021
856.984	67.6162
857.034	67.6194
857.085	75.4908
857.135	72.2783
857.186	71.7995
857.237	69.8547
857.287	70.5294
857.338	71.6483
857.388	74.7718
857.439	71.0059
857.489	73.4117
857.54	78.6783
857.59	77.2614
857.641	70.6329
857.692	74.8976
857.742	74.5072
857.793	75.757
857.843	78.2344
857.894	72.1471
857.944	72.7631
857.995	80.3595
858.045	72.3665
858.096	76.7393
858.147	77.6022
858.197	75.5701
858.248	70.1618
858.298	72.7011
858.349	79.1335
858.399	76.3843
858.45	68.0277
858.5	72.2661
858.551	73.2393
858.601	77.4356
858.652	73.4314
858.703	73.338
858.753	72.8547
858.804	71.5798
858.854	70.8045
858.905	68.9433
858.955	72.6911
859.006	71.3787
859.056	69.7812
859.107	71.0071
859.157	70.4628
859.208	71.4455
859.258	68.7033
859.309	72.7797
859.36	74.8206
859.41	69.9699
859.461	69.4516
859.511	69.4064
859.562	76.4023
859.612	70.256
859.663	66.8056
859.713	74.5932
859.764	73.5063
859.814	76.1802
859.865	69.1201
859.915	72.0181
859.966	69.4187
860.016	64.0177
860.067	68.1149
860.117	74.1002
860.168	68.8948
860.219	73.5679
860.269	67.6755
860.32	72.5372
860.37	72.0277
860.421	72.9768
860.471	66.9637
860.522	76.0063
860.572	69.096
860.623	68.3719
860.673	69.0183
860.724	66.0085
860.774	69.9215
860.825	69.2373
860.875	61.5165
860.926	73.8213
860.976	73.8665
861.027	70.3954
861.077	73.2736
861.128	73.6504
861.178	71.2175
861.229	65.3515
861.279	65.3391
861.33	67.5172
861.38	71.823
861.431	74.1172
861.481	66.5833
861.532	73.352
861.582	75.1254
861.633	71.5965
861.683	70.7644
861.734	76.7163
861.784	74.841
861.835	66.6914
861.885	69.4808
861.936	70.2736
861.986	64.9958
862.037	69.7182
862.087	67.3925
862.138	74.7016
862.188	73.8267
862.239	64.6217
862.289	71.712
862.34	70.1868
862.39	70.3461
862.441	67.1866
862.491	69.1483
862.542	68.0734
862.592	71.0041
862.643	67.1527
862.693	72.2992
862.744	64.5585
862.794	70.6029
862.845	68.1861
862.895	60.4124
862.946	65.7555
862.996	64.2633
863.047	65.0171
863.097	71.1292
863.148	67.6385
863.198	62.9992
863.249	67.76
863.299	69.2225
863.35	70.7919
863.4	67.8427
863.451	69.3107
863.501	70.0289
863.552	62.9528
863.602	64.9985
863.653	73.432
863.703	68.6536
863.754	70.0017
863.804	64.3514
863.854	64.8643
863.905	65.8015
863.955	70.2493
864.006	69.2763
864.056	66.0405
864.107	72.0898
864.157	62.2103
864.208	69.0933
864.258	66.2047
864.309	65.8906
864.359	66.037
864.41	74.6151
864.46	64.5661
864.511	70.5461
864.561	65.668
864.612	71.6292
864.662	62.1148
864.712	69.9045
864.763	64.94
864.813	68.2995
864.864	66.9984
864.914	72.0514
864.965	66.21
865.015	73.5737
865.066	63.3566
865.116	63.5378
865.167	64.2251
865.217	62.8952
865.268	61.8405
865.318	67.0553
865.368	70.2313
865.419	68.3175
865.469	62.086
865.52	70.5966
865.57	67.3614
865.621	65.9686
865.671	65.9238
865.722	69.9067
865.772	67.6472
865.823	63.9859
865.873	59.1468
865.923	65.6031
865.974	69.3554
866.024	67.7908
866.075	63.1843
866.125	69.443
866.176	67.1414
866.226	65.688
866.276	67.3128
866.327	66.4604
866.377	65.5187
866.428	66.289
866.478	62.7468
866.529	66.4022
866.579	68.2108
866.63	64.1545
866.68	62.5353
866.73	64.0554
866.781	66.5207
866.831	61.8459
866.882	62.329
866.932	66.3871
866.983	69.8393
867.033	64.7203
867.083	64.5073
867.134	65.761
867.184	64.4111
867.235	65.729
867.285	64.0068
867.336	62.3692
867.386	67.0556
867.436	65.2051
867.487	67.8097
867.537	63.2266
867.588	63.8155
867.638	60.3438
867.689	64.7192
867.739	69.2273
867.789	64.5564
867.84	67.274
867.89	64.4307
867.941	62.2192
867.991	64.8844
868.042	67.2585
868.092	67.7322
868.142	67.4681
868.193	67.3254
868.243	64.1031
868.294	67.2361
868.344	62.8231
868.394	64.3926
868.445	59.6687
868.495	57.8592
868.546	63.3718
868.596	60.4021
868.647	61.4553
868.697	64.9636
868.747	63.2753
868.798	62.2424
868.848	61.9112
868.899	66.4992
868.949	61.2701
868.999	57.5699
869.05	62.094
869.1	67.7141
869.151	57.5688
869.201	64.9327
869.251	69.1788
869.302	62.8254
869.352	58.0042
869.403	66.0591
869.453	63.7068
869.503	64.9853
869.554	61.5768
869.604	68.1815
869.655	64.7777
869.705	60.6863
869.755	68.7327
869.806	67.0214
869.856	62.9085
869.907	59.9372
869.957	57.3913
870.007	68.5673
870.058	59.8826
870.108	62.7295
870.159	64.3727
870.209	67.9698
870.259	63.8708
870.31	64.5317
870.36	63.1321
870.41	59.4373
870.461	59.8145
870.511	61.8369
870.562	56.6003
870.612	64.2767
870.662	63.6398
870.713	56.949
870.731	58.3631
870.782	62.0767
870.832	63.6618
870.883	61.3564
870.933	62.4831
870.984	63.6845
871.034	63.3134
871.085	59.9979
871.135	61.7614
871.186	61.6743
871.236	64.9794
871.287	58.6729
871.337	68.5215
871.388	66.2008
871.438	54.876
871.489	52.5097
871.539	64.7374
871.59	65.1781
871.64	62.0997
871.691	66.0052
871.741	61.3444
871.792	63.7317
871.842	68.2063
871.893	62.995
871.943	62.9556
871.994	69.6482
872.044	59.275
872.095	59.4593
872.145	60.2938
872.196	65.7014
872.246	65.7206
872.297	62.7869
872.347	63.6141
872.397	66.2186
872.448	62.7292
872.498	64.4124
872.549	63.951
872.599	67.3848
872.65	62.4932
872.7	63.2067
872.751	63.3337
872.801	65.7753
872.852	61.5762
872.902	64.7276
872.953	62.2258
873.003	67.7977
873.054	63.2602
873.104	64.3658
873.155	63.347
873.205	61.4708
873.256	61.2749
873.306	62.1237
873.357	56.9187
873.407	64.2401
873.458	65.3799
873.508	66.2281
873.558	59.66
873.609	61.9585
873.659	60.0354
873.71	61.8369
873.76	61.7213
873.811	59.0478
873.861	64.4521
873.912	61.8256
873.962	63.483
874.013	66.1929
874.063	59.7463
874.114	59.4864
874.164	58.531
874.215	64.3381
874.265	61.8493
874.315	62.4094
874.366	64.0976
874.416	60.3258
874.467	58.2048
874.517	58.8301
874.568	54.7308
874.618	61.3866
874.669	62.3371
874.719	60.05
874.77	59.8246
874.82	59.7357
874.87	54.348
874.921	63.7132
874.971	61.0245
875.022	62.8373
875.072	60.3942
875.123	64.6103
875.173	66.5488
875.224	55.4
875.274	54.235
875.324	57.6249
875.375	54.2754
875.425	62.9242
875.476	62.3009
875.526	61.3495
875.577	61.5501
875.627	63.146
875.678	64.2102
875.728	61.3118
875.779	64.1356
875.829	62.7573
875.879	64.6584
875.93	52.5402
875.98	61.1542
876.031	62.4986
876.081	54.7406
876.132	59.1947
876.182	61.9871
876.232	57.4175
876.283	60.8264
876.333	53.7064
876.384	58.1058
876.434	58.1382
876.485	60.7362
876.535	59.1739
876.585	66.624
876.636	60.4275
876.686	61.5827
876.737	57.7208
876.787	57.5308
876.838	59.4065
876.888	56.9684
876.938	51.901
876.989	62.2974
877.039	53.975
877.09	60.6311
877.14	55.4067
877.191	62.588
877.241	56.1969
877.291	57.4011
877.342	54.751
877.392	63.2453
877.443	55.0309
877.493	51.5319
877.544	57.2509
877.594	61.3294
877.644	54.6339
877.695	58.4174
877.745	56.3757
877.796	61.6245
877.846	57.6211
877.896	58.0525
877.947	60.3164
877.997	62.9821
878.048	56.3217
878.098	56.2857
878.148	53.7214
878.199	56.6194
878.249	54.445
878.3	60.9506
878.35	53.2398
878.4	51.4222
878.451	57.5061
878.501	52.5497
878.552	52.4172
878.602	58.4956
878.653	52.935
878.703	49.0416
878.753	60.2996
878.804	60.7952
878.854	59.145
878.904	52.2756
878.955	53.8318
879.005	65.1258
879.056	50.9985
879.106	51.8624
879.156	56.4603
879.207	61.9404
879.257	65.5474
879.308	54.9892
879.358	52.6159
879.408	63.8052
879.459	53.6199
879.509	52.8335
879.56	60.2084
879.61	57.1545
879.66	60.8224
879.711	55.6326
879.761	52.0231
879.812	56.7083
879.862	58.2392
879.912	50.8611
879.963	62.0046
880.013	55.4091
880.063	59.7021
880.114	54.2592
880.164	55.8945
880.215	59.3848
880.265	53.2536
880.315	49.3979
880.366	55.3278
880.416	55.2794
880.467	55.9068
880.517	51.9156
880.567	55.2106
880.618	56.8896
880.668	55.8071
880.718	54.4346
880.769	54.2399
880.819	57.8397
880.87	55.7878
880.92	52.9173
880.97	59.5695
881.021	60.0464
881.071	53.0136
881.121	48.7743
881.172	54.0476
881.222	56.1037
881.273	53.3835
881.323	55.6479
881.373	61.3793
881.424	57.2692
881.474	56.8255
881.524	53.4113
881.575	52.9184
881.625	54.9125
881.675	53.1216
881.726	49.5876
881.776	60.918
881.826	51.0681
881.877	50.4875
881.927	51.5578
881.978	57.3483
882.028	57.9321
882.078	55.0103
882.129	57.4573
882.179	52.8688
882.229	53.7966
882.28	57.729
882.33	53.3198
882.38	58.3414
882.431	57.0629
882.481	52.3659
882.531	52.0721
882.582	54.4733
882.632	54.2449
882.682	52.4767
882.733	51.8482
882.783	55.7761
882.834	55.3944
882.884	53.848
882.934	55.7034
882.985	55.6064
883.035	56.8299
883.085	57.9732
883.136	55.0272
883.186	53.6306
883.236	54.9073
883.287	54.337
883.337	49.75
883.387	53.7486
883.438	55.7236
883.488	50.919
883.538	46.6559
883.589	49.9951
883.639	53.6843
883.689	52.7108
883.74	55.7231
883.79	60.7124
883.84	56.0441
883.891	52.7949
883.941	52.9034
883.991	52.7469
884.042	55.3833
884.092	54.6594
884.142	53.9604
884.193	52.8468
884.243	54.3602
884.293	55.2909
884.344	56.2704
884.394	58.9451
884.444	58.5108
884.495	56.3879
884.545	58.5027
884.595	52.5445
884.646	56.3769
884.696	53.0629
884.746	50.9808
884.797	55.8302
884.847	56.0605
884.897	53.536
884.947	53.0353
884.998	54.4517
885.048	53.236
885.098	52.1379
885.149	50.9764
885.199	56.5884
885.249	58.1383
885.3	51.4412
885.35	51.684
885.4	51.4901
885.451	51.3227
885.501	51.3678
885.551	51.7669
885.602	54.7851
885.652	54.8192
885.702	53.9184
885.752	54.7206
885.803	53.7405
885.853	52.451
885.903	52.2767
885.954	53.1313
886.004	52.5569
886.054	53.606
886.105	49.8961
886.155	53.7179
886.205	55.5367
886.255	52.5217
886.306	53.859
886.356	50.1937
886.406	49.2686
886.457	51.6787
886.507	50.6644
886.557	51.8598
886.608	51.5321
886.658	51.1371
886.708	52.6808
886.758	53.3812
886.809	55.4297
886.859	52.9148
886.909	53.9998
886.96	54.1411
887.01	49.1182
887.06	48.4872
887.11	54.0741
887.161	53.6891
887.211	55.0613
887.261	55.8332
887.312	54.0881
887.362	53.2386
887.412	51.9075
887.462	49.8487
887.513	56.4757
887.563	56.388
887.613	56.5566
887.664	50.7745
887.714	50.9039
887.764	53.2596
887.814	53.8725
887.865	51.5724
887.915	53.7392
887.965	53.1719
887.987	50.9972
888.038	57.2478
888.088	47.7701
888.138	49.3272
888.189	51.0559
888.239	52.5628
888.289	46.053
888.34	51.9282
888.39	51.9146
888.441	53.9136
888.491	47.624
888.542	52.3614
888.592	47.5005
888.642	50.1614
888.693	42.3801
888.743	53.1633
888.793	51.6438
888.844	49.8488
888.894	44.0077
888.945	46.0112
888.995	56.2637
889.045	49.4056
889.096	46.473
889.146	49.335
889.197	51.0039
889.247	48.8259
889.297	50.4381
889.348	48.6974
889.398	46.021
889.448	50.2367
889.499	50.2011
889.549	51.5108
889.6	52.6513
889.65	50.5766
889.7	47.0237
889.751	48.4209
889.801	54.3455
889.851	51.8892
889.902	54.415
889.952	53.2643
890.003	53.5819
890.053	49.7533
890.103	50.3817
890.154	50.6028
890.204	56.228
890.254	48.9798
890.305	47.4682
890.355	52.2878
890.406	54.8092
890.456	50.9306
890.506	47.567
890.557	53.7459
890.607	56.333
890.657	53.9077
890.708	42.3466
890.758	43.7219
890.808	51.1073
890.859	46.872
890.909	50.4752
890.96	47.3402
891.01	49.1435
891.06	46.8595
891.111	50.0824
891.161	51.0934
891.211	50.8615
891.262	50.87
891.312	47.024
891.362	50.8072
891.413	47.5533
891.463	41.8127
891.513	51.6667
891.564	48.3787
891.614	46.5297
891.665	47.9403
891.715	56.2563
891.765	44.8604
891.816	50.7894
891.866	46.0269
891.916	45.9291
891.967	46.2571
892.017	45.8601
892.067	47.4446
892.118	48.9232
892.168	49.3127
892.218	50.677
892.269	45.2854
892.319	52.5791
892.369	52.1386
892.42	43.2176
892.47	41.1175
892.52	50.9154
892.571	48.1866
892.621	48.42
892.671	49.5455
892.722	47.612
892.772	45.1615
892.822	48.3703
892.873	49.0247
892.923	48.8841
892.973	48.7572
893.024	47.7735
893.074	46.9583
893.124	47.8154
893.175	50.2174
893.225	50.1973
893.275	48.902
893.326	45.9653
893.376	50.2086
893.426	46.7592
893.477	45.8006
893.527	45.6465
893.577	48.2628
893.628	50.6736
893.678	49.1006
893.728	47.3423
893.779	51.5731
893.829	46.5579
893.879	46.2082
893.93	47.9228
893.98	48.8373
894.03	50.663
894.081	46.7174
894.131	47.5024
894.181	47.2627
894.232	47.8076
894.282	46.6519
894.332	42.2792
894.383	48.0274
894.433	48.1864
894.483	49.5458
894.533	48.7954
894.584	43.1364
894.634	44.3874
894.684	44.9448
894.735	43.7998
894.785	49.8789
894.835	45.4909
894.886	45.8043
894.936	49.7703
894.986	47.6323
895.037	45.6813
895.087	50.551
895.137	45.7756
895.188	48.3102
895.238	48.7596
895.288	46.8765
895.338	41.9405
895.389	44.9283
895.439	44.3274
895.489	48.5311
895.54	45.1164
895.59	43.96
895.64	43.9125
895.69	45.605
895.741	47.0143
895.791	47.6633
895.841	49.248
895.892	44.1211
895.942	42.6051
895.992	46.4569
896.043	48.5341
896.093	45.3694
896.143	44.846
896.193	46.7774
896.244	48.2372
896.294	50.6129
896.344	44.1494
896.395	46.909
896.445	50.1737
896.495	50.4875
896.545	47.4248
896.596	43.8806
896.646	47.9309
896.696	49.4726
896.747	41.1084
896.797	37.517
896.847	47.9591
896.897	44.5664
896.948	45.6155
896.998	45.9352
897.048	46.5262
897.099	48.351
897.149	47.4994
897.199	45.4246
897.249	41.4415
897.3	47.863
897.35	47.9012
897.4	46.7429
897.451	48.6077
897.501	45.3087
897.551	45.0428
897.601	43.0542
897.652	46.8647
897.702	43.9209
897.752	50.306
897.802	43.3061
897.853	49.6724
897.903	43.097
897.953	47.9881
898.003	44.3961
898.054	46.3075
898.104	42.0782
898.154	49.2069
898.204	45.4559
898.255	44.5424
898.305	43.674
898.355	48.4327
898.406	45.1049
898.456	47.793
898.506	44.2096
898.556	47.9657
898.607	44.176
898.657	49.9092
898.707	42.467
898.757	45.5982
898.808	46.8718
898.858	49.2259
898.908	45.2522
898.958	49.8991
899.009	44.3471
899.059	50.211
899.109	45.056
899.159	44.1077
899.21	46.6256
899.26	46.1209
899.31	45.5449
899.36	48.7665
899.411	44.7493
899.461	48.5216
899.511	48.0381
899.561	45.0865
899.612	43.9964
899.662	45.5306
899.712	48.3703
899.762	45.3632
899.813	43.4663
899.863	47.8848
899.913	42.1793
899.963	45.3333
