#Acq. time (s)=	5
#Accumulations=	3
#Range (nm)=	520...900
#Windows=	24
#Auto scanning=	On
#Autofocus=	Off
#AutoExposure=	Off
#Spike filter=	Multiple accum.
#Delay time (s)=	0
#Binning=	1
#Readout mode=	Signal
#DeNoise=	Off
#ICS correction=	Off
#Dark correction=	Off
#Inst. Process=	Off
#Detector temperature (°C)=	-59.98
#Instrument=	LabRAM HR Evol
#Detector=	Syncerity OE
#Objective=	x50_VIS
#Grating=	600 (500nm)
#ND Filter=	10%
#Laser=	514nm_Edge
#Hole=	199.981
#Range=	Auto
#StageXY=	Marzhauser
#StageZ=	Marzhauser
#X (µm)=	14714.6
#Y (µm)=	2789.2
#Z (µm)=	-16.6
#Full time(mm:ss)=	5:28
#Project=	
#Sample=	
#Site=	
#Title=	M5_140224_02
#Remark=	
#Date=	19.02.2024 14:30
#Acquired=	19.02.2024 14:30:32
520.013	35.4452
520.065	34.2701
520.117	34.3621
520.17	34.5043
520.222	34.9946
520.274	34.0233
520.327	34.9899
520.379	35.1671
520.431	31.3357
520.483	35.674
520.536	34.3318
520.588	37.5548
520.64	36.6744
520.693	33.7905
520.745	34.3668
520.797	31.3706
520.85	30.324
520.902	34.1966
520.954	34.5177
521.007	36.5571
521.059	34.906
521.111	34.4995
521.163	36.0329
521.216	37.8616
521.268	36.7241
521.32	35.3333
521.373	36.9331
521.425	37.1359
521.477	36.5937
521.529	35.2423
521.582	34.4134
521.634	37.1277
521.686	30.0507
521.739	39.3768
521.791	37.6233
521.843	39.7335
521.896	33.0371
521.948	33.2055
522	35.6764
522.052	36.2207
522.105	32.4426
522.157	34.5693
522.209	36.4463
522.262	38.0569
522.314	38.3576
522.366	34.9015
522.418	36.2779
522.471	31.943
522.523	36.7396
522.575	35.3333
522.628	39.9041
522.68	39.3793
522.732	35.6055
522.784	35.4614
522.837	36.0375
522.889	35.485
522.941	37.3
522.994	38.2544
523.046	34.8687
523.098	34.5867
523.15	34.8496
523.203	34
523.255	37.7281
523.307	39.3297
523.36	35.291
523.412	32.8617
523.464	38.3986
523.516	34.0856
523.569	33.5522
523.621	34.6667
523.673	37.9487
523.726	38.2774
523.778	39.6849
523.83	33.3896
523.882	34.4179
523.935	36.1248
523.987	38.4909
524.039	36.5529
524.091	41.0022
524.144	35.1851
524.196	39.7361
524.248	34.9761
524.301	34.8858
524.353	35.6849
524.405	36.519
524.457	37.5006
524.51	41.4592
524.562	37.271
524.614	37.2391
524.666	43.2237
524.719	39.4742
524.771	37.2603
524.823	38.8834
524.875	38.6861
524.928	40.798
524.98	37.7032
525.032	37.6375
525.085	38.3753
525.137	36.4843
525.189	39.826
525.241	39.1636
525.294	38.6998
525.346	38.6247
525.398	36.5048
525.45	37.5326
525.503	37.4413
525.555	36.6008
525.607	34.9693
525.659	37.9301
525.712	38.6667
525.764	38.789
525.816	33.54
525.868	39.9438
525.921	40.5581
525.973	38.4836
526.025	36.444
526.077	40.767
526.13	38.5079
526.182	36.741
526.234	35.9977
526.286	35.7724
526.339	37.7832
526.391	39.7132
526.443	40.3193
526.495	38.5245
526.548	42.09
526.6	35.9461
526.652	37.8112
526.704	38.4654
526.757	39.0409
526.809	39.4194
526.861	38.1005
526.913	36.3734
526.966	36.8822
527.018	43.296
527.07	41.2929
527.122	37.5742
527.175	39.4714
527.227	34.9519
527.279	39.4508
527.331	35.2878
527.384	35.9025
527.436	36.9986
527.488	42.0886
527.54	35.5043
527.593	36.1112
527.645	35.6224
527.697	37.8481
527.749	34.1058
527.802	36.3895
527.854	39.7374
527.906	32.5243
527.958	38.0573
528.011	37.5756
528.063	39.4159
528.115	42.0905
528.167	37.0049
528.219	34.4028
528.272	35.7115
528.324	36.847
528.376	34.6713
528.428	35.5281
528.481	33.0216
528.533	40.0368
528.585	33.8665
528.637	38.1163
528.69	35.9849
528.742	36.4042
528.794	34.5149
528.846	40.9939
528.898	36
528.951	34.4893
529.003	37.6533
529.055	37.3737
529.107	34.677
529.16	35.8845
529.212	34.9484
529.264	34.9195
529.316	35.037
529.369	38.1014
529.421	38.989
529.473	38.5825
529.525	31.6513
529.577	36.1199
529.63	38.0386
529.682	40.9309
529.734	35.8122
529.786	34.5379
529.839	34.5385
529.891	38.9397
529.943	33.6762
529.995	36.5548
530.047	37.1815
530.1	36.8459
530.152	40.2767
530.204	37.4729
530.256	35.9701
530.308	36.694
530.361	38.9733
530.413	38.8947
530.465	37.5827
530.517	37.0571
530.57	37.8867
530.622	33.2855
530.674	37.8718
530.726	41.5103
530.778	40.0372
530.831	38.6489
530.883	38.2864
530.935	39.2287
530.987	42.1512
531.039	38.7118
531.092	38.8699
531.144	33.0398
531.196	37.0073
531.248	36.2602
531.3	36.4567
531.353	35.59
531.405	39.1413
531.457	37.6286
531.509	43.6595
531.561	42.9927
531.614	40.2182
531.666	37.8468
531.718	41.6521
531.77	35.9249
531.822	36.5953
531.875	39.5556
531.927	36.7711
531.979	38.0697
532.031	40.0852
532.083	38.5925
532.136	35.6054
532.188	35.8301
532.24	39.0837
532.292	39.312
532.344	40.6842
532.397	37.5209
532.449	41.0303
532.501	41.882
532.553	39.0436
532.605	40.2648
532.658	37.6565
532.71	39.1994
532.762	39.8387
532.814	44.0374
532.866	43.6126
532.919	41.1648
532.971	38.8376
533.023	40.4048
533.075	41.3053
533.127	43.905
533.179	40.9025
533.232	40.9067
533.284	44.338
533.336	39.2564
533.388	44.2628
533.44	40.6901
533.493	43.9275
533.545	47.3764
533.597	44.0076
533.649	48.3899
533.701	52.0979
533.753	53.0719
533.806	49.0707
533.858	51.323
533.91	55.9686
533.962	50.7833
534.014	55.8539
534.067	53.0731
534.119	58.394
534.171	57.4929
534.223	64.1241
534.275	65.7252
534.327	65.6119
534.38	68.8729
534.432	79.2194
534.484	78.8142
534.536	84.9956
534.588	87.7816
534.641	90.0458
534.693	91.3856
534.745	94.6577
534.797	90.027
534.849	103.862
534.901	105.838
534.953	117.679
535.006	112.251
535.058	120.164
535.11	124.099
535.162	122.263
535.214	120.005
535.267	113.838
535.319	118.967
535.371	111.129
535.423	112.432
535.475	108.967
535.527	100.544
535.58	104.885
535.632	86.4444
535.684	90.0042
535.736	86.11
535.788	75.503
535.84	80.9947
535.892	71.2004
535.945	77.6917
535.997	70.4711
536.049	67.1609
536.101	66.7024
536.153	68.1956
536.205	65.7187
536.258	64.7271
536.31	62.5296
536.362	62.8376
536.414	63.9766
536.466	59.7919
536.518	59.1983
536.57	62.5276
536.623	51.3444
536.675	60.7429
536.727	53.3789
536.779	46.8146
536.831	55.1341
536.883	51.2177
536.936	55.8095
536.988	54.2234
537.04	52.8423
537.092	50.5489
537.144	49.4869
537.196	54.4022
537.248	51.1902
537.301	54.8411
537.353	49.1486
537.405	52.3476
537.457	55.9808
537.509	50.8969
537.561	51.5069
537.613	52.7741
537.666	47.5952
537.718	50.9782
537.77	48.2473
537.778	46.9403
537.831	45.3573
537.883	49.7773
537.935	54.5626
537.987	52.544
538.04	48.9414
538.092	48.3915
538.144	52.947
538.196	43.1454
538.249	51.4481
538.301	48.8528
538.353	43.8708
538.405	47.8521
538.457	47.622
538.51	50.4059
538.562	49.8778
538.614	44.785
538.666	47.1171
538.719	50.0389
538.771	50.4287
538.823	47.1345
538.875	46.1895
538.927	48.7816
538.98	54.8485
539.032	40.3657
539.084	46.3705
539.136	48.186
539.189	51.952
539.241	53.0747
539.293	45.5435
539.345	43.9558
539.397	53.8782
539.45	40.9856
539.502	53.0026
539.554	46.3515
539.606	49.9438
539.659	47.8105
539.711	47.5088
539.763	51.8714
539.815	51.6285
539.867	50.911
539.92	49.3201
539.972	44.4917
540.024	48.7465
540.076	47.2793
540.128	47.548
540.181	48.3694
540.233	54.0101
540.285	52.564
540.337	49.9551
540.39	50.7335
540.442	51.301
540.494	54.7882
540.546	53.8967
540.598	52.825
540.651	55.1374
540.703	49.2025
540.755	49.0764
540.807	53.3692
540.859	50.3197
540.912	51.6077
540.964	45.2518
541.016	54.9132
541.068	50.673
541.12	54.6922
541.173	51.6966
541.225	51.7612
541.277	48.4141
541.329	46.9951
541.381	49.8874
541.434	52.7425
541.486	56.4662
541.538	58.7456
541.59	49.4856
541.642	52.7704
541.695	49.484
541.747	56.3839
541.799	60.0315
541.851	57.5837
541.903	54.3058
541.956	51.8397
542.008	54.22
542.06	54.9695
542.112	55.0186
542.164	54.2517
542.217	59.5741
542.269	60.3672
542.321	56.8029
542.373	54.1286
542.425	55.173
542.478	61.1393
542.53	60.0266
542.582	53.2267
542.634	59.5192
542.686	60.9286
542.738	57.8721
542.791	53.9511
542.843	55.7483
542.895	61.8866
542.947	55.7609
542.999	59.963
543.052	60.4878
543.104	61.1058
543.156	58.747
543.208	55.8605
543.26	57.859
543.313	62.9087
543.365	56.2203
543.417	55.7399
543.469	61.1325
543.521	60.9085
543.573	62.4825
543.626	58.4526
543.678	64.2376
543.73	60.3884
543.782	66.0144
543.834	67.7536
543.886	60.4215
543.939	67.0055
543.991	58.6477
544.043	59.1584
544.095	63.6723
544.147	64.6427
544.2	67.388
544.252	58.1591
544.304	68.9081
544.356	63.8486
544.408	63.8342
544.46	61.891
544.513	64.0673
544.565	63.293
544.617	62.0888
544.669	64.1393
544.721	65.3234
544.773	64.6612
544.826	62.4896
544.878	62.6002
544.93	68.079
544.982	62.8609
545.034	60.1617
545.086	59.8627
545.139	66.7768
545.191	71.0331
545.243	66.9736
545.295	68.5503
545.347	67.9977
545.399	73.8908
545.452	65.2179
545.504	58.3306
545.556	61.6904
545.608	63.8976
545.66	64.8917
545.712	63.5599
545.765	56.8225
545.817	65.1077
545.869	65.6974
545.921	67.2774
545.973	65.4353
546.025	58.5927
546.077	59.1351
546.13	64.8299
546.182	68.5332
546.234	68.8486
546.286	63.8903
546.338	69.9615
546.39	67.4644
546.443	64.1495
546.495	66.9359
546.547	66.5618
546.599	67.4724
546.651	75.7729
546.703	67.2968
546.755	64.1316
546.808	67.1489
546.86	66.3986
546.912	63.2043
546.964	73.0266
547.016	67.1983
547.068	73.4426
547.12	69.0173
547.173	70.9785
547.225	69.4167
547.277	68.9883
547.329	66.2439
547.381	75.046
547.433	72.4371
547.485	72.6688
547.538	65.3989
547.59	64.9136
547.642	74.8545
547.694	70.3933
547.746	65.5011
547.798	66.7769
547.85	70.5508
547.903	76.2724
547.955	69.3895
548.007	71.3046
548.059	72.2472
548.111	70.5746
548.163	63.4667
548.215	67.6238
548.268	70.9875
548.32	68.7952
548.372	72.1648
548.424	69.0413
548.476	73.3067
548.528	73.609
548.58	68.3962
548.633	75.0394
548.685	72.3953
548.737	69.3248
548.789	69.4162
548.841	70.1919
548.893	73.1857
548.945	70.5629
548.997	66.5597
549.049	66.3202
549.102	68.8808
549.154	69.7623
549.206	66.4826
549.258	73.2283
549.31	74.418
549.362	72.2896
549.414	68.5933
549.467	78.5659
549.519	76.5313
549.571	78.1711
549.623	75.0623
549.675	82.7066
549.727	72.799
549.779	76.4163
549.831	72.9041
549.883	79.6995
549.936	77.219
549.988	71.2978
550.04	74.1696
550.092	80.212
550.144	80.3314
550.196	76.3341
550.248	74.3057
550.3	80.9066
550.353	80.7326
550.405	78.6639
550.457	79.7295
550.509	82.3019
550.561	89.1685
550.613	81.1091
550.665	82.5427
550.717	85.9112
550.769	85.3528
550.822	83.3126
550.874	90.2821
550.926	89.87
550.978	93.9175
551.03	82.2795
551.082	88.1531
551.134	90.7014
551.186	91.3162
551.238	88.7928
551.291	95.3355
551.343	101.624
551.395	97.9066
551.447	96.8131
551.499	101.092
551.551	106.177
551.603	107.687
551.655	107.423
551.707	126.088
551.759	124.893
551.812	130.073
551.864	132.69
551.916	145.104
551.968	153.026
552.02	162.887
552.072	174.562
552.124	205.004
552.176	226.981
552.228	265.791
552.28	321.539
552.332	449.249
552.385	763.536
552.437	1646.65
552.489	3367.72
552.541	6139.99
552.593	10388
552.645	15288.4
552.697	15685.4
552.749	10365.3
552.801	4826.45
552.853	1823.27
552.905	778.683
552.958	460.482
553.01	333.002
553.062	267.26
553.114	219.828
553.166	195.614
553.218	174.241
553.27	160.706
553.322	150.758
553.374	139.653
553.426	131.831
553.478	128.199
553.531	123.198
553.583	119.601
553.635	116.02
553.687	109.729
553.739	102.653
553.791	112.283
553.843	108.107
553.895	96.2079
553.947	96.2483
553.999	102.357
554.051	104.861
554.103	97.728
554.155	93.5528
554.208	98.8548
554.26	95.9911
554.312	87.5671
554.364	87.8747
554.416	90.5559
554.468	96.2526
554.52	94.3411
554.572	89.6414
554.624	95.2536
554.676	93.6811
554.728	92.9998
554.78	97.1402
554.832	96.9138
554.884	92.0844
554.937	88.1327
554.989	86.2496
555.041	87.8459
555.093	88.9805
555.145	88.5261
555.197	89.7648
555.249	92.2417
555.301	92.9092
555.353	88.6525
555.405	91.5033
555.457	94.9156
555.509	92.6327
555.529	91.1094
555.582	86.1362
555.634	93.9441
555.686	95.8713
555.738	95.928
555.79	83.3242
555.842	89.8828
555.895	99.7091
555.947	96.0347
555.999	86.393
556.051	99.6696
556.103	91.4259
556.155	88.1359
556.207	87.9212
556.26	96.856
556.312	98.3943
556.364	95.559
556.416	84.2689
556.468	93.7853
556.52	93.0895
556.573	98.7383
556.625	90.8066
556.677	96.6113
556.729	96.0764
556.781	92.8603
556.833	96.9879
556.885	102.658
556.938	97.1549
556.99	95.2068
557.042	96.1783
557.094	102.227
557.146	100.53
557.198	98.4463
557.25	97.0522
557.302	106.031
557.355	101.628
557.407	96.988
557.459	100.464
557.511	97.4274
557.563	100.15
557.615	95.7769
557.667	99.0932
557.72	101.973
557.772	106.325
557.824	95.6749
557.876	99.0879
557.928	103.717
557.98	105.053
558.032	95.2073
558.085	101.102
558.137	105.318
558.189	104.149
558.241	101.371
558.293	104.94
558.345	104.811
558.397	111.887
558.449	103.361
558.502	105.245
558.554	105.134
558.606	101.52
558.658	96.8517
558.71	104.18
558.762	103.806
558.814	105.387
558.866	105.131
558.919	105.34
558.971	96.2809
559.023	108.843
559.075	99.5094
559.127	106.811
559.179	108.475
559.231	105.231
559.283	103.281
559.336	103.817
559.388	106.284
559.44	106.867
559.492	104.56
559.544	106.734
559.596	109.192
559.648	109.447
559.7	105.513
559.753	112.544
559.805	106.925
559.857	115.738
559.909	109.544
559.961	118.058
560.013	111.548
560.065	106.24
560.117	108.045
560.169	111.074
560.222	116.069
560.274	118.336
560.326	114.605
560.378	114.082
560.43	113.451
560.482	103.945
560.534	110.382
560.586	121.521
560.638	116.773
560.69	113.306
560.743	115.372
560.795	121.691
560.847	118.055
560.899	110.885
560.951	116.459
561.003	117.099
561.055	115.918
561.107	106.865
561.159	121.626
561.212	120.133
561.264	121.402
561.316	114.777
561.368	116.258
561.42	121.738
561.472	117.674
561.524	120.136
561.576	123.893
561.628	131.645
561.68	128.326
561.733	126.594
561.785	125.111
561.837	120.679
561.889	131.859
561.941	127.451
561.993	122.978
562.045	129.229
562.097	124.788
562.149	123.493
562.201	127.792
562.253	125.835
562.306	127.075
562.358	125.013
562.41	124.772
562.462	127.885
562.514	133.913
562.566	124.406
562.618	120.288
562.67	133.641
562.722	136.632
562.774	128.643
562.826	133.447
562.879	132.672
562.931	137.372
562.983	128.539
563.035	136.01
563.087	138.09
563.139	131.067
563.191	142.553
563.243	136.01
563.295	136.03
563.347	138.072
563.399	130.107
563.451	142.022
563.504	134.585
563.556	137.528
563.608	133.79
563.66	137.742
563.712	143.896
563.764	133.475
563.816	134.205
563.868	144.577
563.92	141.672
563.972	145.85
564.024	140.47
564.076	143.492
564.128	145.129
564.181	141.203
564.233	141.474
564.285	136.369
564.337	142.755
564.389	145.328
564.441	143.081
564.493	143.512
564.545	143.882
564.597	144.499
564.649	144.414
564.701	143.912
564.753	143.994
564.805	141.542
564.857	147.153
564.909	148.147
564.962	139.569
565.014	143.713
565.066	141.772
565.118	151.87
565.17	157.037
565.222	155.648
565.274	151.968
565.326	157.036
565.378	157.537
565.43	158.453
565.482	159.163
565.534	154.068
565.586	152.525
565.638	156.944
565.69	158.089
565.742	161.425
565.795	157.426
565.847	156.959
565.899	156.488
565.951	159.203
566.003	158.387
566.055	160.152
566.107	152.559
566.159	154.505
566.211	158.415
566.263	156.783
566.315	156.804
566.367	161.46
566.419	165.514
566.471	161.894
566.523	166.147
566.575	165.008
566.627	163.156
566.679	160.961
566.732	162.541
566.784	160.793
566.836	166.491
566.888	162.24
566.94	166.929
566.992	165.076
567.044	167.857
567.096	168.148
567.148	161.723
567.2	165.639
567.252	170.838
567.304	167.684
567.356	162.839
567.408	171.547
567.46	173.183
567.512	173.128
567.564	173.979
567.616	174.868
567.668	178.01
567.72	173.867
567.772	178.312
567.824	176.43
567.876	173.596
567.928	171.748
567.98	172.248
568.033	175.011
568.085	174.933
568.137	173.597
568.189	175.819
568.241	176.27
568.293	183.392
568.345	183.048
568.397	183.422
568.449	184.343
568.501	186.161
568.553	184.092
568.605	189.422
568.657	191.063
568.709	185.419
568.761	180.201
568.813	178.469
568.865	189.448
568.917	188.786
568.969	187.711
569.021	195.004
569.073	193.84
569.125	188.187
569.177	184.169
569.229	189.431
569.281	190.212
569.333	195.212
569.385	193.477
569.437	190.202
569.489	192.764
569.541	188.29
569.593	188.315
569.645	190.005
569.697	197.404
569.749	197.313
569.801	193.707
569.853	197.867
569.905	202.378
569.957	196.198
570.009	196.111
570.061	203.732
570.113	211.102
570.165	206.009
570.217	211.361
570.269	217.255
570.321	212.042
570.374	210.79
570.426	210.37
570.478	213.645
570.53	214.562
570.582	213.114
570.634	214.624
570.686	225.122
570.738	229.835
570.79	224.809
570.842	226.631
570.894	229.491
570.946	225.512
570.998	226.907
571.05	226.622
571.102	228.049
571.154	234.826
571.206	231.814
571.258	229.118
571.31	233.197
571.362	237.31
571.414	240.301
571.466	242.833
571.518	242.905
571.57	244.273
571.622	246.011
571.674	244.784
571.726	248.036
571.778	252.697
571.83	248.338
571.882	250.419
571.934	256.131
571.986	268.277
572.038	268.091
572.09	264.057
572.142	263.186
572.194	270.734
572.246	277.809
572.298	272.102
572.349	271.863
572.401	278.336
572.453	281.836
572.505	281.834
572.557	282.409
572.609	288.503
572.661	292.477
572.713	301.086
572.765	303.83
572.817	306.956
572.869	309.238
572.921	316.748
572.973	320.53
573.025	322.293
573.077	328.952
573.129	329.194
573.181	338.215
573.212	331.633
573.264	334.603
573.316	338.713
573.368	351.134
573.421	342.036
573.473	351.737
573.525	350.453
573.577	362.532
573.629	365.427
573.681	377.389
573.733	378.677
573.785	388.04
573.837	388.753
573.889	394.812
573.941	400.8
573.993	396.142
574.045	402.369
574.097	414.625
574.15	414.942
574.202	428.226
574.254	423.801
574.306	444.266
574.358	433.354
574.41	458.798
574.462	465.771
574.514	477.667
574.566	487.546
574.618	498.436
574.67	493.138
574.722	505.824
574.774	510.496
574.826	504.245
574.878	526.553
574.931	529.258
574.983	544.308
575.035	550.405
575.087	567.533
575.139	554.034
575.191	582.259
575.243	582.014
575.295	598.041
575.347	595.279
575.399	583.1
575.451	597.3
575.503	614.072
575.555	608.209
575.607	602.577
575.659	622.75
575.711	617.724
575.763	619.986
575.815	618.192
575.868	625.863
575.92	625.147
575.972	628.517
576.024	622.523
576.076	625.881
576.128	607.531
576.18	624.082
576.232	612.881
576.284	609.34
576.336	610.509
576.388	607.128
576.44	590.309
576.492	592.199
576.544	577.703
576.596	583.783
576.648	583.315
576.7	570.475
576.752	573.688
576.804	557.666
576.856	562.137
576.909	555.945
576.961	555.959
577.013	540.795
577.065	536.482
577.117	533.432
577.169	514.883
577.221	512.158
577.273	513.557
577.325	501.216
577.377	512.446
577.429	496.443
577.481	497.014
577.533	493.088
577.585	493.545
577.637	476.613
577.689	474.756
577.741	460.261
577.793	463.572
577.845	446.922
577.897	439.892
577.949	458.261
578.001	448.684
578.053	441.495
578.105	444.642
578.157	437.142
578.209	425.446
578.261	439.706
578.313	431.97
578.365	433.154
578.417	416.454
578.469	413.35
578.522	408.42
578.574	409.883
578.626	409.508
578.678	412.84
578.73	408.087
578.782	414.703
578.834	412.152
578.886	401.209
578.938	400.497
578.99	399.699
579.042	399.503
579.094	402.769
579.146	403.717
579.198	410.988
579.25	414.514
579.302	396.38
579.354	392.253
579.406	404.382
579.458	399.756
579.51	400.826
579.562	401.757
579.614	402.515
579.666	402.259
579.718	400.581
579.77	400.015
579.822	397.574
579.874	396.514
579.926	396.663
579.978	389.226
580.03	395.936
580.082	395.74
580.134	394.71
580.186	392.033
580.238	393.011
580.29	389.722
580.342	399.036
580.394	408.914
580.446	403.247
580.498	398.704
580.55	400.378
580.602	396.458
580.654	393.791
580.706	389.084
580.758	391.983
580.81	386.851
580.862	391.711
580.914	406.467
580.966	403.439
581.018	408.268
581.07	410.03
581.122	403.976
581.174	392.896
581.226	404.266
581.278	410.652
581.33	402.772
581.382	410.933
581.434	412.304
581.486	409.497
581.538	409.391
581.59	413.119
581.642	409.395
581.694	406.857
581.746	406.752
581.798	410.218
581.85	415.991
581.902	422.012
581.954	420.366
582.006	417.573
582.058	423.721
582.11	420.685
582.162	418.547
582.214	413.8
582.266	418.389
582.318	427.585
582.37	439.277
582.422	441.89
582.474	429.407
582.526	430.212
582.578	432.077
582.63	429.682
582.682	431.799
582.734	434.436
582.786	438.825
582.838	440.672
582.89	442.842
582.942	442.22
582.994	429.99
583.046	428.422
583.098	441.156
583.15	440.273
583.202	444.954
583.254	441.629
583.306	451.783
583.358	447.527
583.41	452.206
583.462	451.09
583.514	456.666
583.566	456.533
583.618	460.477
583.67	456.909
583.721	460.667
583.773	453.575
583.825	458.546
583.877	449.331
583.929	463.431
583.981	468.657
584.033	466.827
584.085	479.329
584.137	468.617
584.189	466.685
584.241	482.451
584.293	474.509
584.345	479.725
584.397	479.415
584.449	478.899
584.501	484.092
584.553	494.75
584.605	496.234
584.657	495.625
584.709	500.464
584.761	500.001
584.813	499.824
584.865	492.505
584.917	492.441
584.969	500.697
585.021	501.675
585.073	507.903
585.125	517.891
585.177	512.597
585.229	508.089
585.281	517.879
585.332	517.962
585.384	505.773
585.436	504.044
585.488	507.781
585.54	518.297
585.592	515.056
585.644	508.982
585.696	520.929
585.748	517.676
585.8	523.394
585.852	525.944
585.904	514.191
585.956	518.379
586.008	535.421
586.06	531.085
586.112	530.597
586.164	529.733
586.216	527.966
586.268	539.996
586.32	544.972
586.371	534.334
586.423	539.366
586.475	550.869
586.527	538.764
586.579	534.288
586.631	538.077
586.683	536.487
586.735	541.277
586.787	555.609
586.839	568.644
586.891	562.075
586.943	562.362
586.995	572.343
587.047	569.717
587.099	565.801
587.151	562.642
587.203	564.944
587.255	568.905
587.306	573.698
587.358	559.167
587.41	557.899
587.462	567.323
587.514	565.332
587.566	571.416
587.618	563.513
587.67	559.91
587.722	573.65
587.774	560.813
587.826	578.426
587.878	564.756
587.93	559.94
587.982	566.81
588.034	565.784
588.085	567.508
588.137	553.396
588.189	568.201
588.241	583.785
588.293	577.413
588.345	588.582
588.397	575.409
588.449	581.14
588.501	581.483
588.553	591.469
588.605	586.738
588.657	593.777
588.709	585.583
588.76	589.399
588.812	597.512
588.864	605.284
588.916	601.005
588.968	588.778
589.02	602.942
589.072	597.623
589.124	599.108
589.176	610.052
589.228	610.089
589.28	603.151
589.332	616.404
589.383	622.636
589.435	621.276
589.487	609.618
589.539	605.001
589.591	616.858
589.643	614.402
589.695	606.949
589.747	623.785
589.799	605.958
589.851	596.777
589.903	602.113
589.955	612.775
590.006	597.624
590.058	612.687
590.11	600.036
590.162	595.805
590.214	601.523
590.266	602.087
590.318	609.208
590.37	604.14
590.422	595.183
590.474	590.931
590.525	598.203
590.577	606.013
590.629	595.09
590.681	604.66
590.733	609.331
590.785	597.577
590.837	596.585
590.889	580.96
590.932	591.04
590.984	604.046
591.036	585.048
591.088	578.231
591.14	588.133
591.192	586.997
591.244	572.207
591.296	581.242
591.348	576.116
591.4	583.843
591.452	569.682
591.504	589.743
591.556	579.847
591.608	574.597
591.66	563.689
591.712	583.66
591.764	570.597
591.816	557.719
591.868	555.147
591.92	560.309
591.972	545.029
592.024	570.589
592.076	556.591
592.128	570.369
592.18	561.466
592.232	571.365
592.284	564.878
592.336	564.848
592.388	554.824
592.44	556.913
592.492	558.065
592.544	565.511
592.596	566.89
592.648	578.136
592.7	549.069
592.752	560.031
592.804	551.192
592.856	560.976
592.908	564.469
592.96	551.777
593.012	553.088
593.064	566.911
593.116	556.064
593.168	554.677
593.22	561.122
593.272	572.285
593.324	567.324
593.376	558.394
593.428	575.238
593.479	552.292
593.531	557.149
593.583	565.097
593.635	564.357
593.687	560.14
593.739	568.221
593.791	558.618
593.843	547.983
593.895	586.449
593.947	554.243
593.999	563.245
594.051	564.001
594.103	542.54
594.155	562.651
594.207	570.297
594.259	577.732
594.311	552
594.363	555.057
594.415	576.745
594.467	586.695
594.519	569.791
594.571	574.688
594.623	574.53
594.675	567.238
594.727	569.78
594.779	569.004
594.831	567.06
594.883	570.742
594.935	560.406
594.986	579.455
595.038	570.289
595.09	586.32
595.142	578.014
595.194	574.957
595.246	579.942
595.298	590.809
595.35	578.505
595.402	590.836
595.454	591.019
595.506	581.353
595.558	593.868
595.61	580.68
595.662	575.805
595.714	597.627
595.766	574.71
595.818	590.872
595.87	596.881
595.922	591.899
595.974	591.951
596.026	588.409
596.077	585.646
596.129	608.787
596.181	602.439
596.233	598.7
596.285	606.64
596.337	591.701
596.389	626.549
596.441	607.358
596.493	597.974
596.545	624.88
596.597	617.136
596.649	617.536
596.701	637.658
596.753	613.055
596.805	602.499
596.857	621.221
596.909	619.176
596.96	603.937
597.012	609.689
597.064	600.145
597.116	616.005
597.168	626.788
597.22	619.307
597.272	616.583
597.324	611.275
597.376	610.602
597.428	615.913
597.48	605.703
597.532	627.735
597.584	625.063
597.636	608.148
597.688	610.392
597.739	615.085
597.791	610.512
597.843	623.305
597.895	624.214
597.947	626.563
597.999	628.75
598.051	621.497
598.103	627.489
598.155	626.227
598.207	631.975
598.259	630.096
598.311	629.904
598.363	620.066
598.414	635.354
598.466	623.778
598.518	618.896
598.57	621.532
598.622	617.965
598.674	618.251
598.726	622.905
598.778	619.65
598.83	627.336
598.882	628.172
598.934	624.17
598.986	614.881
599.037	633.584
599.089	610.335
599.141	627.61
599.193	630.29
599.245	634.39
599.297	616.525
599.349	624.162
599.401	632.944
599.453	618.56
599.505	619.591
599.557	622.853
599.609	629.667
599.66	626.463
599.712	623.86
599.764	624.863
599.816	624.621
599.868	621.688
599.92	632.311
599.972	637.325
600.024	635.971
600.076	627.533
600.128	635.823
600.18	631.04
600.231	628.494
600.283	632.156
600.335	634.129
600.387	632.423
600.439	633.014
600.491	634.458
600.543	644.903
600.595	626.221
600.647	638.752
600.699	639.943
600.75	641.487
600.802	632.285
600.854	636.352
600.906	638.45
600.958	638.998
601.01	644.789
601.062	630.271
601.114	633.05
601.166	639.858
601.217	646.007
601.269	633.795
601.321	636.538
601.373	617.703
601.425	628.615
601.477	640.37
601.529	646.712
601.581	637.728
601.633	641.25
601.685	653.724
601.736	643.827
601.788	642.438
601.84	644.283
601.892	646.85
601.944	628.267
601.996	628.578
602.048	654.293
602.1	650.115
602.151	645.704
602.203	648.037
602.255	642.909
602.307	645.923
602.359	643.263
602.411	644.846
602.463	642.37
602.515	644.287
602.567	648.815
602.618	648.542
602.67	632.504
602.722	635.328
602.774	653.397
602.826	638.325
602.878	654.839
602.93	653.729
602.982	651.386
603.033	661.846
603.085	657.201
603.137	652.563
603.189	649.783
603.241	657.898
603.293	654.194
603.345	640.829
603.396	648.599
603.448	654.148
603.5	654.017
603.552	645.475
603.604	639.649
603.656	657.542
603.708	662.627
603.76	663.321
603.811	654.175
603.863	656.845
603.915	656.409
603.967	670.552
604.019	669.581
604.071	650.877
604.123	654.74
604.174	667.967
604.226	671.454
604.278	670.134
604.33	662.132
604.382	663.606
604.434	664.266
604.486	664.199
604.538	662.384
604.589	671.206
604.641	676.772
604.693	673.188
604.745	663.381
604.797	646.722
604.849	658.968
604.901	674.163
604.952	681.137
605.004	674.797
605.056	684.181
605.108	670.612
605.16	659.722
605.212	669.107
605.263	670.684
605.315	664.256
605.367	670.451
605.419	681.297
605.471	679.296
605.523	684.146
605.575	664.199
605.626	675.22
605.678	657.159
605.73	646.271
605.782	665.866
605.834	664.358
605.886	670.722
605.938	668.354
605.989	673.871
606.041	667.193
606.093	656.815
606.145	661.5
606.197	683.681
606.249	675.733
606.3	672.198
606.352	661.51
606.404	665.603
606.456	674.499
606.508	673.847
606.56	668.103
606.611	665.955
606.663	668.963
606.715	664.632
606.767	673.244
606.819	676.445
606.871	650.528
606.922	663.26
606.974	659.623
607.026	667.253
607.078	659.991
607.13	668.683
607.182	682.972
607.233	664.127
607.285	664.887
607.337	664.829
607.389	670.163
607.441	670.302
607.493	670.916
607.544	667.015
607.596	675.997
607.648	674.363
607.7	665.255
607.752	677.9
607.803	679.557
607.855	672.656
607.907	659.629
607.959	673.578
608.011	674.749
608.063	682.833
608.114	673.37
608.166	668.171
608.218	678.619
608.27	677.459
608.322	671.842
608.374	682.453
608.425	693.56
608.477	695.385
608.529	671.086
608.56	662.425
608.612	681.196
608.664	675.642
608.716	674.545
608.768	702.155
608.82	684.868
608.872	687.352
608.924	688.569
608.976	690.134
609.027	680.124
609.079	683.337
609.131	689.315
609.183	687.847
609.235	687.971
609.287	676.354
609.339	662.2
609.391	702.239
609.443	700.102
609.495	705.817
609.547	700.925
609.598	709.147
609.65	687.533
609.702	693.323
609.754	703.014
609.806	702.294
609.858	703.4
609.91	694.377
609.962	684.163
610.014	694.628
610.065	708.486
610.117	688.997
610.169	693.907
610.221	704.68
610.273	685.429
610.325	711.57
610.377	719.95
610.429	721.496
610.481	696.698
610.533	715.083
610.584	704.205
610.636	717.354
610.688	700.032
610.74	716.716
610.792	722.721
610.844	728.491
610.896	720.012
610.948	736.678
611	719.316
611.052	709.827
611.103	713.851
611.155	717.798
611.207	718.801
611.259	719.807
611.311	710.657
611.363	711.924
611.415	711.334
611.467	732.229
611.518	706.858
611.57	716.762
611.622	720.034
611.674	723.124
611.726	732.568
611.778	723.361
611.83	734.111
611.882	723.562
611.934	726.716
611.985	730.88
612.037	730.073
612.089	723.684
612.141	729.16
612.193	739.368
612.245	728.032
612.297	736.831
612.349	736.597
612.4	735.125
612.452	721.483
612.504	738.481
612.556	740.981
612.608	735.244
612.66	722.806
612.712	729.016
612.764	736.032
612.815	735.192
612.867	735.123
612.919	730.875
612.971	744.369
613.023	750.88
613.075	735.621
613.127	742.954
613.179	743.891
613.23	760.795
613.282	741.426
613.334	738.571
613.386	755.038
613.438	758.751
613.49	749.983
613.542	756.552
613.594	760.56
613.645	742.227
613.697	744.003
613.749	745.884
613.801	757.014
613.853	771.258
613.905	766.938
613.957	751.002
614.008	771.735
614.06	770.869
614.112	750.9
614.164	757.658
614.216	764.063
614.268	751.343
614.32	773.035
614.371	768.221
614.423	781.313
614.475	766.113
614.527	781.039
614.579	753.296
614.631	779.34
614.683	770.998
614.734	774.886
614.786	766.946
614.838	787.459
614.89	779.773
614.942	793.483
614.994	786.044
615.045	782.949
615.097	788.915
615.149	800.151
615.201	785.41
615.253	788.073
615.305	799.833
615.357	788.887
615.408	801.559
615.46	794.659
615.512	803.212
615.564	792.48
615.616	781.338
615.668	796.683
615.719	794.975
615.771	775.473
615.823	788.155
615.875	818.75
615.927	801.495
615.979	795.721
616.031	786.357
616.082	803.492
616.134	813.97
616.186	812.754
616.238	812.606
616.29	815.825
616.342	788.425
616.393	808.888
616.445	816.165
616.497	828.383
616.549	808.153
616.601	821.324
616.653	825.379
616.704	818.957
616.756	817.41
616.808	810.698
616.86	821.912
616.912	828.141
616.964	828.762
617.015	847.722
617.067	827.744
617.119	833.88
617.171	842.95
617.223	833.012
617.274	837.663
617.326	842.692
617.378	818.462
617.43	827.282
617.482	843.232
617.534	829.642
617.585	825.438
617.637	842.41
617.689	848.033
617.741	851.84
617.793	838.641
617.845	844.395
617.896	848.844
617.948	855.117
618	858.27
618.052	837.822
618.104	843.336
618.155	858.986
618.207	859.069
618.259	854.403
618.311	865.931
618.363	848.143
618.415	861.843
618.466	856.486
618.518	869.919
618.57	857.34
618.622	867.169
618.674	860.19
618.725	863.994
618.777	888.185
618.829	858.24
618.881	855.079
618.933	866.928
618.984	884.562
619.036	856.216
619.088	862.613
619.14	864.686
619.192	872.965
619.244	886.082
619.295	867.226
619.347	874.595
619.399	886.296
619.451	888.748
619.503	884.832
619.554	892.574
619.606	891.696
619.658	902.18
619.71	905.904
619.762	901.352
619.813	883.234
619.865	893.403
619.917	896.707
619.969	878.585
620.021	881.071
620.072	894.683
620.124	891.937
620.176	903.618
620.228	917.254
620.279	905.704
620.331	914.839
620.383	914.982
620.435	895.409
620.487	902.095
620.538	924.173
620.59	902.964
620.642	894.918
620.694	901.383
620.746	911.714
620.797	901.48
620.849	909.655
620.901	935.431
620.953	903.854
621.005	908.919
621.056	903.761
621.108	904.208
621.16	903.88
621.212	904.79
621.263	913.739
621.315	899.538
621.367	895.467
621.419	916.99
621.471	921.817
621.522	900.388
621.574	902.339
621.626	902.013
621.678	922.315
621.729	936.117
621.781	918.7
621.833	919.148
621.885	934.846
621.937	924.696
621.988	919.063
622.04	918.788
622.092	919.27
622.144	918.72
622.195	916.926
622.247	924.061
622.299	920.288
622.351	917.398
622.403	917.672
622.454	931.086
622.506	936.51
622.558	925.287
622.61	934.317
622.661	920.995
622.713	924.11
622.765	938.481
622.817	937.783
622.869	943.489
622.92	942.1
622.972	936.47
623.024	921.556
623.076	932.827
623.127	937.222
623.179	932.807
623.231	930.9
623.283	926.595
623.334	926.448
623.386	928.634
623.438	935.642
623.49	930.111
623.541	926.615
623.593	930.47
623.645	931.902
623.697	930.998
623.748	933.463
623.8	942.837
623.852	955.237
623.904	948.852
623.956	946.273
624.007	936.454
624.059	922.517
624.111	929.035
624.162	931.522
624.214	932.024
624.266	940.143
624.318	937.648
624.37	946.207
624.421	932.083
624.473	926.982
624.525	923.189
624.576	941.378
624.628	939.942
624.68	942.17
624.732	951.984
624.784	934.734
624.835	933.394
624.887	941.418
624.939	946.77
624.99	947.059
625.042	956.928
625.094	957.856
625.146	952.306
625.197	946.417
625.249	952.596
625.301	937.918
625.353	962.616
625.404	955.688
625.456	949.952
625.508	953.576
625.56	954.142
625.611	951.019
625.663	956.72
625.715	954.152
625.767	951.682
625.818	979.975
625.87	986.152
625.922	966.169
625.974	953.706
626.025	959.513
626.077	958.293
626.129	944.137
626.18	971.754
626.197	980.533
626.249	960.541
626.3	956.402
626.352	955.378
626.404	963.673
626.456	969.651
626.508	984.252
626.56	960.2
626.611	981.424
626.663	960.207
626.715	970.553
626.767	963.63
626.819	976.782
626.87	991.783
626.922	975.646
626.974	972.551
627.026	970.481
627.078	958.458
627.13	975.001
627.181	976.569
627.233	982.763
627.285	987.033
627.337	976.26
627.389	969.652
627.44	982.157
627.492	986.177
627.544	984.59
627.596	968.075
627.648	985.641
627.7	997.416
627.751	993.785
627.803	972.928
627.855	991.14
627.907	996.388
627.959	972.196
628.01	1000.85
628.062	1011.62
628.114	994.478
628.166	1007.64
628.218	994.1
628.27	982.405
628.321	1001.91
628.373	986.339
628.425	1007.01
628.477	1003.13
628.529	996.172
628.58	993.249
628.632	1003.45
628.684	1000.4
628.736	983.984
628.788	1005.32
628.839	1003.25
628.891	1001.45
628.943	1016.52
628.995	1016.88
629.047	1020.02
629.098	1021.22
629.15	999.297
629.202	1003.92
629.254	1004.34
629.306	1017.63
629.357	1012.54
629.409	1015.45
629.461	1016.76
629.513	1012.53
629.565	1007.74
629.616	1013.72
629.668	1022.04
629.72	1018.1
629.772	1029.01
629.824	1015.88
629.875	1031.87
629.927	1022.44
629.979	1016.5
630.031	1047.06
630.083	1033.79
630.134	1029.84
630.186	1034.1
630.238	1038.49
630.29	1044.94
630.342	1039.57
630.393	1055.57
630.445	1064.63
630.497	1041.59
630.549	1045.16
630.6	1055.69
630.652	1046.36
630.704	1036.75
630.756	1058.21
630.808	1049.11
630.859	1019
630.911	1045.02
630.963	1059.02
631.015	1034.34
631.067	1053.77
631.118	1069.17
631.17	1050.02
631.222	1049.17
631.274	1068.31
631.325	1073.67
631.377	1069.54
631.429	1053.67
631.481	1061.19
631.533	1078.4
631.584	1076.81
631.636	1059.13
631.688	1072.78
631.74	1063.66
631.791	1061.2
631.843	1074.32
631.895	1082.04
631.947	1050.77
631.999	1071.23
632.05	1079.16
632.102	1078.62
632.154	1082.2
632.206	1078.63
632.257	1094.71
632.309	1079.74
632.361	1085.79
632.413	1102.49
632.464	1080.97
632.516	1102.66
632.568	1103.9
632.62	1111.51
632.672	1110.92
632.723	1110.64
632.775	1104.06
632.827	1116.18
632.879	1108.27
632.93	1109.75
632.982	1100.65
633.034	1117.47
633.086	1116.76
633.137	1116.96
633.189	1123.82
633.241	1105.31
633.293	1123.21
633.344	1128.19
633.396	1117.34
633.448	1141.29
633.5	1143.04
633.551	1120.83
633.603	1129.74
633.655	1119.89
633.707	1124.28
633.758	1133.19
633.81	1125.68
633.862	1134.47
633.914	1141.01
633.965	1159.33
634.017	1141.64
634.069	1156.18
634.121	1151.08
634.172	1140.12
634.224	1149.36
634.276	1148.91
634.328	1176.95
634.379	1167.02
634.431	1173.42
634.483	1170.89
634.535	1168.22
634.586	1179.6
634.638	1184.1
634.69	1168.19
634.742	1183.15
634.793	1182.86
634.845	1197.54
634.897	1194
634.949	1182.54
635	1197.14
635.052	1192.7
635.104	1208.15
635.156	1193.31
635.207	1186.2
635.259	1202.23
635.311	1222.27
635.363	1217.57
635.414	1215.25
635.466	1210.86
635.518	1233.69
635.57	1252.92
635.621	1242.35
635.673	1229.88
635.725	1239.43
635.776	1250.78
635.828	1248.94
635.88	1247.45
635.932	1268.52
635.983	1272.04
636.035	1261.08
636.087	1251.42
636.139	1263.61
636.19	1302.71
636.242	1292.61
636.294	1289.73
636.345	1308.34
636.397	1322.28
636.449	1341.71
636.501	1316.63
636.552	1321.86
636.604	1342.15
636.656	1356.04
636.708	1373.09
636.759	1372.73
636.811	1380.28
636.863	1411.99
636.914	1420.57
636.966	1418.53
637.018	1428.81
637.07	1472.77
637.121	1490.5
637.173	1500.71
637.225	1499.28
637.276	1508.49
637.328	1532.77
637.38	1548.04
637.432	1536.71
637.483	1576.53
637.535	1601.09
637.587	1600.79
637.638	1622.02
637.69	1647.84
637.742	1630.49
637.794	1633.24
637.845	1674.89
637.897	1697.35
637.949	1704.88
638	1697.11
638.052	1694.1
638.104	1726.42
638.156	1732.07
638.207	1702.63
638.259	1720.32
638.311	1710.36
638.362	1738.13
638.414	1743.18
638.466	1705.12
638.517	1698.72
638.569	1702.38
638.621	1731.31
638.673	1715.53
638.724	1715.64
638.776	1693.08
638.828	1683.1
638.879	1667.55
638.931	1668.32
638.983	1649.61
639.034	1639.65
639.086	1635.62
639.138	1639.04
639.19	1595.75
639.241	1620.64
639.293	1585.73
639.345	1581.84
639.396	1580.65
639.448	1553.93
639.5	1556.06
639.551	1538.29
639.603	1506.82
639.655	1545.18
639.706	1554.78
639.758	1517.36
639.81	1520.11
639.862	1516.02
639.913	1504.04
639.965	1518.41
640.017	1494.86
640.068	1505.6
640.12	1484.39
640.172	1492.65
640.223	1480.93
640.275	1471.44
640.327	1475.95
640.378	1449.6
640.43	1455.6
640.482	1461.45
640.533	1454.29
640.585	1460.13
640.637	1469.6
640.688	1454.97
640.74	1435.11
640.792	1436.53
640.844	1409.12
640.895	1435.73
640.947	1434.57
640.999	1447.72
641.05	1429.26
641.102	1406.48
641.154	1435.3
641.205	1422.61
641.257	1441.14
641.309	1428.99
641.36	1418.38
641.412	1424.7
641.464	1422.17
641.515	1435.64
641.567	1437.99
641.619	1425.65
641.67	1413.2
641.722	1400.67
641.774	1410.99
641.825	1395.7
641.877	1387.7
641.929	1372.15
641.98	1416.51
642.032	1428.66
642.084	1428.13
642.135	1416.92
642.187	1405.99
642.239	1414.33
642.29	1398.89
642.342	1399.07
642.394	1389.35
642.445	1421.37
642.497	1422.16
642.549	1415.24
642.6	1411.22
642.652	1432
642.704	1422.76
642.755	1416.25
642.807	1422.4
642.859	1418.38
642.91	1415.25
642.962	1398.37
643.013	1415.29
643.065	1408.68
643.117	1410.75
643.168	1436.78
643.22	1395.49
643.272	1419.93
643.323	1405.11
643.375	1419.76
643.427	1432.2
643.478	1424.92
643.53	1405.46
643.582	1412.57
643.633	1413.85
643.685	1405.99
643.737	1431.37
643.788	1380.09
643.84	1424.21
643.891	1448.13
643.898	1447.29
643.949	1412.62
644.001	1417.98
644.053	1406.11
644.105	1421.16
644.156	1435.3
644.208	1437.38
644.26	1441.37
644.312	1427.68
644.363	1447.91
644.415	1422.25
644.467	1454.67
644.519	1441.12
644.57	1438.89
644.622	1442.11
644.674	1438.93
644.726	1437.64
644.777	1424.96
644.829	1440.19
644.881	1458.15
644.932	1461.31
644.984	1451.3
645.036	1446.49
645.088	1473.73
645.139	1454.53
645.191	1469.64
645.243	1474.17
645.295	1450.25
645.346	1450.96
645.398	1454.1
645.45	1448.79
645.502	1459.48
645.553	1467.03
645.605	1456.5
645.657	1446.88
645.708	1453.51
645.76	1454.74
645.812	1482.08
645.864	1453.6
645.915	1465.9
645.967	1463.52
646.019	1453.47
646.071	1489.95
646.122	1454.87
646.174	1469.6
646.226	1497.09
646.277	1477.92
646.329	1465.24
646.381	1468.12
646.433	1477.57
646.484	1482.6
646.536	1494.74
646.588	1474.37
646.639	1474.03
646.691	1486.66
646.743	1499.32
646.795	1476.24
646.846	1478.97
646.898	1482.53
646.95	1515.25
647.001	1501.48
647.053	1489.67
647.105	1489.92
647.157	1489.19
647.208	1488.51
647.26	1479.1
647.312	1492.11
647.363	1497.34
647.415	1488.32
647.467	1505.75
647.519	1468.14
647.57	1510.06
647.622	1489.72
647.674	1520.41
647.725	1518.11
647.777	1494.31
647.829	1498.41
647.881	1501.02
647.932	1513.63
647.984	1512.45
648.036	1515.77
648.087	1503.41
648.139	1513.4
648.191	1513.98
648.242	1521.5
648.294	1512.14
648.346	1520.16
648.398	1548.01
648.449	1510.92
648.501	1522.78
648.553	1544.93
648.604	1510.43
648.656	1525.46
648.708	1541.45
648.759	1551.27
648.811	1530.45
648.863	1542.48
648.914	1544.05
648.966	1554.01
649.018	1539.55
649.07	1556.84
649.121	1550.72
649.173	1557.83
649.225	1554.36
649.276	1540.67
649.328	1558.48
649.38	1576.87
649.431	1582.48
649.483	1577.53
649.535	1564.07
649.586	1585.19
649.638	1573.16
649.69	1589.99
649.742	1580.66
649.793	1578.36
649.845	1592.03
649.897	1584.09
649.948	1556.36
650	1562.24
650.052	1578.43
650.103	1593.58
650.155	1543.45
650.207	1595.21
650.258	1597.69
650.31	1612.73
650.362	1567.66
650.413	1613.57
650.465	1608.03
650.517	1583.72
650.568	1601.67
650.62	1602.88
650.672	1602.64
650.723	1601.89
650.775	1615.69
650.827	1611.43
650.878	1629.44
650.93	1636.26
650.982	1600.34
651.034	1628.47
651.085	1640.98
651.137	1601.78
651.189	1609.65
651.24	1640.3
651.292	1649.81
651.344	1645.37
651.395	1648.65
651.447	1631.95
651.499	1642.12
651.55	1662.06
651.602	1638.84
651.654	1646.88
651.705	1664.66
651.757	1661.22
651.809	1659.33
651.86	1670.49
651.912	1666.23
651.964	1654.66
652.015	1676.92
652.067	1665.34
652.118	1677.28
652.17	1660.51
652.222	1659.22
652.273	1672.5
652.325	1676.26
652.377	1679.17
652.428	1674.33
652.48	1673.24
652.532	1676.38
652.583	1688.83
652.635	1680.08
652.687	1712.82
652.738	1698.81
652.79	1723.33
652.842	1704.88
652.893	1678.89
652.945	1699.84
652.997	1715.04
653.048	1680.77
653.1	1681.29
653.152	1708.05
653.203	1715.47
653.255	1704.16
653.307	1710.09
653.358	1724.81
653.41	1713.53
653.461	1700.79
653.513	1716.54
653.565	1707.93
653.616	1747.77
653.668	1740.41
653.72	1720.72
653.771	1741.5
653.823	1749.91
653.875	1730.28
653.926	1767.59
653.978	1746.82
654.029	1727.26
654.081	1747.63
654.133	1783.58
654.184	1753.88
654.236	1763.14
654.288	1775.62
654.339	1761.52
654.391	1783.04
654.443	1775.87
654.494	1768.65
654.546	1782.57
654.597	1784.82
654.649	1800.61
654.701	1792.45
654.752	1799.55
654.804	1796.36
654.856	1808.89
654.907	1788.91
654.959	1796.48
655.01	1783.2
655.062	1834.87
655.114	1806.55
655.165	1808.83
655.217	1835.11
655.269	1822.15
655.32	1822
655.372	1830.18
655.424	1842.62
655.475	1855.09
655.527	1866.93
655.578	1841.37
655.63	1877.29
655.682	1867.47
655.733	1838.84
655.785	1855.8
655.836	1853.96
655.888	1889.67
655.94	1881.06
655.991	1880.38
656.043	1870.32
656.095	1889.52
656.146	1880.91
656.198	1895.61
656.249	1915.4
656.301	1925.88
656.353	1911.94
656.404	1905.64
656.456	1915.03
656.508	1927.15
656.559	1910.95
656.611	1921.01
656.662	1927.42
656.714	1936.64
656.766	1930.82
656.817	1922.63
656.869	1943.79
656.92	1956.9
656.972	1948.21
657.024	1953.91
657.075	1960.04
657.127	1962.96
657.178	1978.32
657.23	1949.7
657.282	1967.18
657.333	1993.44
657.385	1973.88
657.436	1965.83
657.488	1978.55
657.54	1994.46
657.591	2013.29
657.643	1980.77
657.694	1992.06
657.746	1980.79
657.798	1972.11
657.849	1963.76
657.901	2003.22
657.952	2004.32
658.004	2011.1
658.056	1999.34
658.107	2001.39
658.159	2011.22
658.21	2008.46
658.262	2018.77
658.314	2032.41
658.365	2026.14
658.417	2050.12
658.468	2035.98
658.52	2026.74
658.571	2009.51
658.623	2027.72
658.675	2011.31
658.726	2042.38
658.778	2046.85
658.829	2032.29
658.881	2031.02
658.933	2048.94
658.984	2034.44
659.036	2044.02
659.087	2062.42
659.139	2076.98
659.19	2068.4
659.242	2062.33
659.294	2056.08
659.345	2061.4
659.397	2037.92
659.448	2060.76
659.5	2087.31
659.552	2068.7
659.603	2067.19
659.655	2092.97
659.706	2056.69
659.758	2054.37
659.809	2067.79
659.861	2053.18
659.913	2067.32
659.964	2076.87
660.016	2089
660.067	2086.6
660.119	2072.85
660.17	2085.15
660.222	2095.95
660.274	2057.46
660.325	2070.12
660.377	2093.15
660.428	2074.82
660.48	2064.82
660.531	2048.54
660.583	2072.92
660.635	2104.71
660.686	2092.81
660.738	2092.86
660.789	2088.32
660.841	2074.55
660.892	2082.34
660.944	2060.98
660.995	2078.33
661.047	2099.98
661.099	2064.11
661.15	2097.86
661.202	2073.61
661.253	2086.09
661.305	2071.93
661.356	2081.37
661.408	2083.84
661.46	2062.61
661.511	2076.18
661.532	2087.84
661.583	2103.22
661.635	2087.2
661.687	2100.08
661.738	2084.87
661.79	2083.92
661.842	2095.02
661.893	2080.2
661.945	2102.73
661.997	2077.43
662.048	2080.87
662.1	2050.41
662.151	2076
662.203	2090.54
662.255	2098.96
662.306	2086.57
662.358	2074.3
662.41	2101.31
662.461	2087.54
662.513	2107.47
662.565	2082.26
662.616	2076.14
662.668	2097.49
662.72	2096.88
662.771	2068.34
662.823	2089.84
662.875	2076.53
662.926	2084.62
662.978	2079.91
663.03	2089.98
663.081	2079.52
663.133	2082.04
663.184	2115.24
663.236	2060.62
663.288	2078.9
663.339	2072.94
663.391	2071.85
663.443	2057.38
663.494	2091.19
663.546	2083.01
663.598	2087.96
663.649	2106.7
663.701	2069.55
663.752	2076.68
663.804	2086.01
663.856	2095.66
663.907	2100.27
663.959	2063.35
664.011	2058.99
664.062	2073.32
664.114	2094.48
664.166	2081.45
664.217	2085.12
664.269	2105.05
664.32	2087.52
664.372	2085.78
664.424	2067.45
664.475	2090.19
664.527	2075.55
664.579	2091.86
664.63	2083.8
664.682	2085.48
664.733	2038.37
664.785	2098.03
664.837	2085.15
664.888	2086.07
664.94	2086.68
664.992	2089.31
665.043	2083.08
665.095	2050.75
665.146	2074.28
665.198	2099.48
665.25	2085.08
665.301	2077.26
665.353	2081.91
665.405	2073.67
665.456	2086.52
665.508	2068.33
665.559	2057.3
665.611	2080.78
665.663	2090.78
665.714	2077.04
665.766	2061.44
665.817	2086.54
665.869	2086.57
665.921	2081.23
665.972	2042.49
666.024	2078.2
666.076	2063.35
666.127	2059.23
666.179	2075.82
666.23	2066.01
666.282	2061.47
666.334	2089.61
666.385	2109.32
666.437	2097.16
666.488	2060.78
666.54	2066.1
666.592	2062.33
666.643	2066.39
666.695	2097.01
666.746	2088.46
666.798	2088.15
666.85	2047.33
666.901	2064.89
666.953	2076.8
667.004	2083.95
667.056	2053.11
667.108	2079.78
667.159	2089.23
667.211	2055.65
667.262	2087.74
667.314	2058.93
667.366	2054.4
667.417	2073.35
667.469	2052.56
667.52	2068.87
667.572	2075.86
667.624	2072.87
667.675	2071.12
667.727	2070.3
667.778	2039.77
667.83	2061.89
667.882	2046.92
667.933	2062.14
667.985	2050.85
668.036	2062.7
668.088	2078.63
668.14	2064.03
668.191	2067.31
668.243	2079.4
668.294	2071.05
668.346	2074.21
668.397	2037.95
668.449	2083.46
668.501	2073.76
668.552	2060.26
668.604	2064.3
668.655	2089.09
668.707	2077.08
668.759	2079.48
668.81	2067.64
668.862	2092.97
668.913	2041.14
668.965	2042.19
669.016	2072.02
669.068	2077.29
669.12	2056.05
669.171	2064.4
669.223	2048.78
669.274	2095.73
669.326	2072.98
669.377	2062.87
669.429	2094.14
669.481	2077.47
669.532	2076.13
669.584	2048.54
669.635	2071.08
669.687	2053.82
669.738	2053.09
669.79	2049.17
669.842	2084.23
669.893	2050.46
669.945	2072.04
669.996	2060.46
670.048	2052.84
670.099	2083.44
670.151	2051.12
670.203	2057.04
670.254	2036.47
670.306	2059.84
670.357	2089.07
670.409	2072.55
670.46	2050.72
670.512	2053.27
670.564	2068.19
670.615	2068.68
670.667	2074.38
670.718	2087.21
670.77	2063.2
670.821	2053.07
670.873	2072.37
670.924	2078.53
670.976	2050.23
671.028	2061.19
671.079	2045.51
671.131	2069.91
671.182	2075.69
671.234	2056.1
671.285	2059.48
671.337	2093.1
671.388	2096.43
671.44	2055.58
671.492	2071.71
671.543	2090.92
671.595	2083.83
671.646	2085.2
671.698	2080.09
671.749	2050.67
671.801	2098.1
671.852	2057.54
671.904	2079.02
671.956	2048.47
672.007	2064.01
672.059	2060.66
672.11	2072.26
672.162	2073.3
672.213	2109.12
672.265	2062.97
672.316	2076.63
672.368	2087.24
672.419	2081.84
672.471	2075.21
672.522	2092.74
672.574	2092.01
672.626	2063.89
672.677	2105.56
672.729	2110.25
672.78	2092.21
672.832	2092.7
672.883	2084.35
672.935	2070.81
672.986	2100.78
673.038	2102.63
673.089	2112.55
673.141	2112.03
673.192	2118.35
673.244	2112.67
673.296	2100.33
673.347	2114.1
673.399	2106.92
673.45	2091.33
673.502	2124.71
673.553	2142.22
673.605	2102.15
673.656	2125.52
673.708	2127.67
673.759	2133.18
673.811	2121.21
673.862	2108.98
673.914	2124.19
673.965	2134.94
674.017	2144.1
674.068	2130.16
674.12	2109.04
674.171	2146.57
674.223	2151.77
674.275	2166.42
674.326	2152.77
674.378	2157.28
674.429	2147.47
674.481	2145.54
674.532	2155.36
674.584	2134.1
674.635	2149.33
674.687	2136.27
674.738	2169.78
674.79	2168.97
674.841	2149.48
674.893	2168.87
674.944	2187.88
674.996	2186.42
675.047	2182.84
675.099	2170.67
675.15	2170.56
675.202	2168.17
675.253	2201.81
675.305	2154.88
675.356	2169.82
675.408	2167.18
675.459	2179.63
675.511	2171.91
675.562	2173.53
675.614	2209.83
675.665	2188.29
675.717	2203.23
675.768	2213.28
675.82	2214.19
675.871	2203.4
675.923	2183.2
675.974	2203.48
676.026	2203.13
676.077	2206.76
676.129	2198.02
676.18	2206.71
676.232	2206.64
676.283	2191.98
676.335	2240.4
676.386	2205.15
676.438	2199.11
676.489	2209
676.541	2202.63
676.592	2195.79
676.644	2209.99
676.695	2219.31
676.747	2210.49
676.798	2208.24
676.85	2206.19
676.901	2229.65
676.953	2239.14
677.004	2223.14
677.056	2205.36
677.107	2185.19
677.159	2187.21
677.21	2220.53
677.262	2240.37
677.313	2217.6
677.365	2225.63
677.416	2184.09
677.468	2236.23
677.519	2221.76
677.571	2239.04
677.622	2241.46
677.674	2227.93
677.725	2240.47
677.777	2213.82
677.828	2196.81
677.88	2202.4
677.931	2202.33
677.982	2219.95
678.034	2208.44
678.085	2254.01
678.137	2218.47
678.188	2209.14
678.24	2191.87
678.291	2195.63
678.343	2216.61
678.394	2190.89
678.446	2204.26
678.497	2198.18
678.549	2192.54
678.6	2229.14
678.652	2225.98
678.703	2234.7
678.755	2221.28
678.806	2220.66
678.857	2198.46
678.909	2220.55
678.96	2229.58
679.012	2203.25
679.063	2222.86
679.083	2226.28
679.135	2227.72
679.186	2237.14
679.238	2239.35
679.289	2220.54
679.341	2217.06
679.392	2204.32
679.444	2212.79
679.496	2237.11
679.547	2235.05
679.599	2267.83
679.65	2238.42
679.702	2227.59
679.753	2219.61
679.805	2239.26
679.857	2210.23
679.908	2238.67
679.96	2230.46
680.011	2242.89
680.063	2208.97
680.114	2216.56
680.166	2240.9
680.217	2231.35
680.269	2256.39
680.321	2233.8
680.372	2241.86
680.424	2240.83
680.475	2249.73
680.527	2203.22
680.578	2238.79
680.63	2242.14
680.682	2259.87
680.733	2232.98
680.785	2215.62
680.836	2254.44
680.888	2274.8
680.939	2268.65
680.991	2266.54
681.042	2268.39
681.094	2262.72
681.146	2252.12
681.197	2246.71
681.249	2259.72
681.3	2264.71
681.352	2280.01
681.403	2235.14
681.455	2293.64
681.506	2248.81
681.558	2280.41
681.609	2274.84
681.661	2277.51
681.712	2270.49
681.764	2271.93
681.816	2297.71
681.867	2271.72
681.919	2288.1
681.97	2267.24
682.022	2317.35
682.073	2267.98
682.125	2274.59
682.176	2270.9
682.228	2278.41
682.279	2272.72
682.331	2311.79
682.383	2271.39
682.434	2298.95
682.486	2307.13
682.537	2299.28
682.589	2280.19
682.64	2290.58
682.692	2318.05
682.743	2286.62
682.795	2253.62
682.846	2291.96
682.898	2316.09
682.949	2291.58
683.001	2300.65
683.052	2301.55
683.104	2298.17
683.156	2340.73
683.207	2291.98
683.259	2307
683.31	2300.43
683.362	2304.73
683.413	2308.36
683.465	2314.04
683.516	2295.86
683.568	2316.68
683.619	2291.91
683.671	2272.14
683.722	2293.88
683.774	2286.05
683.825	2290.19
683.877	2313.33
683.928	2286.11
683.98	2303.36
684.031	2298.72
684.083	2274.4
684.134	2277.99
684.186	2289.07
684.237	2281.13
684.289	2299.55
684.341	2299.47
684.392	2292.07
684.444	2279.68
684.495	2297.14
684.547	2262.5
684.598	2317.13
684.65	2304.96
684.701	2259.01
684.753	2289.1
684.804	2318.82
684.856	2281.34
684.907	2260.94
684.959	2284.38
685.01	2270.77
685.062	2280.36
685.113	2273.43
685.165	2297.75
685.216	2283.31
685.268	2263.58
685.319	2263.32
685.371	2253.34
685.422	2234.24
685.474	2261.64
685.525	2241.2
685.577	2260.08
685.628	2249.03
685.68	2269.18
685.731	2283.46
685.783	2237.65
685.834	2275.53
685.886	2248.2
685.937	2276.8
685.989	2272.95
686.04	2246.87
686.092	2268.92
686.143	2269.45
686.195	2246.88
686.246	2265.21
686.298	2233.93
686.349	2225.55
686.401	2244.52
686.452	2254.07
686.504	2250
686.555	2245.29
686.607	2298.65
686.658	2242.35
686.71	2271.16
686.761	2253.81
686.813	2263.63
686.864	2278.09
686.916	2253.58
686.967	2253.76
687.018	2247.02
687.07	2258.52
687.121	2235.06
687.173	2240.82
687.224	2216.01
687.276	2242.68
687.327	2260.29
687.379	2230.67
687.43	2263.46
687.482	2245.07
687.533	2258.99
687.585	2234.66
687.636	2230.11
687.688	2265.35
687.739	2243.9
687.791	2222.41
687.842	2235.66
687.894	2256.47
687.945	2252.23
687.997	2227.78
688.048	2244.6
688.1	2220.23
688.151	2250.54
688.203	2247.67
688.254	2237.46
688.305	2241.81
688.357	2208.34
688.408	2195.39
688.46	2226.64
688.511	2272.57
688.563	2277.44
688.614	2230.78
688.666	2280.3
688.717	2243.53
688.769	2260.24
688.82	2247.58
688.872	2222.47
688.923	2211.38
688.974	2242.06
689.026	2235.59
689.077	2245.26
689.129	2239.61
689.18	2249.01
689.232	2221.7
689.283	2220.57
689.335	2211.47
689.386	2234.09
689.438	2232.62
689.489	2233.69
689.541	2256.58
689.592	2231.96
689.643	2250.91
689.695	2259.11
689.746	2191.3
689.798	2213.13
689.849	2221.94
689.901	2252.4
689.952	2250.97
690.004	2218.04
690.055	2196.39
690.107	2214.77
690.158	2243.37
690.209	2264.11
690.261	2205.42
690.312	2212.72
690.364	2202.74
690.415	2205.46
690.467	2228.03
690.518	2224.74
690.57	2243.26
690.621	2209.52
690.672	2221.6
690.724	2222.17
690.775	2211.9
690.827	2203.4
690.878	2218.21
690.93	2202.09
690.981	2190.61
691.033	2184.18
691.084	2207.57
691.135	2178.31
691.187	2150.07
691.238	2187.94
691.29	2186.37
691.341	2191.63
691.393	2195.69
691.444	2177.76
691.495	2206.47
691.547	2220.58
691.598	2209.35
691.65	2212.52
691.701	2204.53
691.753	2180.53
691.804	2173.37
691.856	2192.87
691.907	2178.38
691.958	2184.79
692.01	2203.23
692.061	2184.5
692.113	2177.92
692.164	2161
692.216	2174.51
692.267	2170.75
692.318	2165.17
692.37	2177.42
692.421	2186.77
692.473	2165.81
692.524	2169.56
692.576	2171.15
692.627	2181.61
692.678	2176.32
692.73	2195.12
692.781	2188.76
692.833	2171.87
692.884	2161.82
692.935	2171.57
692.987	2167.18
693.038	2166.37
693.09	2157.93
693.141	2161.35
693.193	2161.45
693.244	2162.23
693.295	2152.48
693.347	2154.51
693.398	2134.78
693.45	2146.43
693.501	2152.14
693.552	2167.7
693.604	2153.72
693.655	2139.36
693.707	2121.29
693.758	2144.22
693.809	2138.51
693.861	2150.95
693.912	2145.78
693.964	2127.12
694.015	2134.99
694.066	2118.52
694.118	2133.32
694.169	2139.5
694.221	2124.01
694.272	2120.2
694.323	2120.31
694.375	2111.84
694.426	2123.42
694.478	2113.71
694.529	2122.28
694.581	2136.05
694.632	2127.03
694.683	2112.09
694.735	2118.01
694.786	2128.91
694.837	2133.99
694.889	2138.98
694.94	2125.36
694.992	2111.15
695.043	2115.77
695.094	2129.95
695.146	2126.47
695.197	2121.49
695.249	2137.79
695.3	2128.89
695.351	2132.48
695.403	2129.54
695.454	2135.4
695.506	2131.01
695.557	2118.12
695.608	2107.39
695.66	2118.22
695.711	2115.81
695.763	2123.25
695.814	2110.12
695.865	2103.44
695.917	2121.68
695.968	2111.37
696.019	2110.51
696.071	2118.27
696.122	2095.37
696.174	2108.34
696.225	2106.21
696.276	2085.16
696.328	2112.46
696.379	2115.52
696.43	2122.63
696.482	2125.29
696.533	2103.19
696.585	2114.72
696.636	2103.21
696.687	2097.44
696.707	2092.85
696.759	2065.97
696.81	2090.13
696.862	2088.22
696.913	2113.39
696.965	2083.37
697.016	2084.25
697.068	2093.47
697.119	2089.11
697.171	2100.02
697.222	2068.85
697.274	2090.34
697.325	2060.97
697.377	2040.08
697.428	2048.6
697.479	2060.84
697.531	2097.39
697.582	2069.91
697.634	2082.31
697.685	2076.45
697.737	2086.53
697.788	2072.94
697.84	2059.46
697.891	2075.13
697.943	2050.58
697.994	2056.07
698.046	2066.91
698.097	2056.94
698.149	2049.48
698.2	2050.5
698.252	2061.64
698.303	2058.83
698.354	2036.45
698.406	2045.75
698.457	2043.58
698.509	2034.02
698.56	2051.21
698.612	2045.12
698.663	2027.86
698.715	2019.57
698.766	2027.51
698.818	2043.06
698.869	2037.39
698.921	2028.33
698.972	2021.13
699.023	2023.33
699.075	2030.95
699.126	2040.92
699.178	2032.91
699.229	2042.36
699.281	2039.39
699.332	2016.29
699.384	2022.39
699.435	2019.29
699.487	1999.81
699.538	2012.11
699.589	2024.32
699.641	2010.02
699.692	2013.21
699.744	2017.19
699.795	2008.15
699.847	2023.01
699.898	2025.65
699.95	2022.44
700.001	2019.23
700.052	1994.05
700.104	1998.94
700.155	1990.88
700.207	1999.39
700.258	2011.25
700.31	2001.01
700.361	1970.54
700.413	2009.44
700.464	2018.2
700.515	1993.51
700.567	2002.26
700.618	1999.75
700.67	2019.79
700.721	2019.37
700.773	2018.71
700.824	2006.51
700.875	2017.09
700.927	2006.83
700.978	2006.67
701.03	1992.24
701.081	1996.69
701.133	1973.74
701.184	2012.34
701.235	2003.12
701.287	2025.01
701.338	1998.21
701.39	1991.1
701.441	1993.74
701.493	2005.58
701.544	1985.56
701.596	1995.81
701.647	2000.72
701.698	2026.79
701.75	2004.53
701.801	2008.17
701.853	1995.98
701.904	1991.56
701.956	1987.33
702.007	1995.67
702.058	2008.07
702.11	2014.06
702.161	1997.42
702.213	1985.53
702.264	2015.94
702.315	2005.92
702.367	1979.46
702.418	1994.63
702.47	2003.55
702.521	1996.12
702.573	1995.83
702.624	1979.06
702.675	1993.46
702.727	2009.06
702.778	1995.01
702.83	2001.94
702.881	2006.52
702.932	1994.97
702.984	1991.86
703.035	1992.74
703.087	2002.44
703.138	2005.28
703.19	2003.37
703.241	1991.43
703.292	1980.36
703.344	2007.86
703.395	1999.53
703.447	1997.51
703.498	1998.27
703.549	2025.31
703.601	2006.13
703.652	1993.37
703.704	1981.82
703.755	1973.1
703.806	1987.24
703.858	2006.48
703.909	1990.45
703.961	1967.9
704.012	1979.69
704.063	1992.19
704.115	1965.03
704.166	1958.24
704.218	1998.59
704.269	1999.21
704.32	1976.08
704.372	1981.43
704.423	1969.31
704.475	1986.01
704.526	1985.87
704.577	1979.66
704.629	1970.18
704.68	1969.36
704.732	1952
704.783	1965.77
704.834	1958.93
704.886	1942.43
704.937	1969.95
704.988	1985.19
705.04	1970
705.091	1960.82
705.143	1955.87
705.194	1967.81
705.245	1959.64
705.297	1950.88
705.348	1957.53
705.4	1971.49
705.451	1935.28
705.502	1942.66
705.554	1937.56
705.605	1931.27
705.656	1945.54
705.708	1958.43
705.759	1935.77
705.811	1943
705.862	1942.48
705.913	1941.29
705.965	1924.96
706.016	1918.99
706.068	1936.26
706.119	1938.3
706.17	1926.34
706.222	1926.17
706.273	1917.99
706.324	1929.6
706.376	1916.64
706.427	1924.02
706.479	1933.66
706.53	1928.35
706.581	1935.22
706.633	1932.57
706.684	1923.73
706.735	1886.8
706.787	1890.17
706.838	1869.16
706.889	1864.88
706.941	1890.5
706.992	1915.92
707.044	1900.6
707.095	1902.23
707.146	1907.83
707.198	1904.49
707.249	1891.09
707.3	1870.24
707.352	1883.11
707.403	1911.07
707.454	1876.58
707.506	1878.22
707.557	1914.59
707.609	1902.44
707.66	1884.44
707.711	1864.71
707.763	1868.75
707.814	1887.26
707.865	1888.45
707.917	1884.46
707.968	1882.16
708.019	1873.2
708.071	1870.56
708.122	1890.68
708.173	1872.97
708.225	1865.67
708.276	1869.65
708.328	1872.12
708.379	1876.38
708.43	1876.57
708.482	1845.54
708.533	1858.75
708.584	1869.43
708.636	1862.77
708.687	1861.63
708.738	1844.51
708.79	1840.99
708.841	1880.47
708.892	1844.78
708.944	1847.51
708.995	1862.52
709.046	1855.53
709.098	1857.25
709.149	1849.01
709.2	1846.11
709.252	1871.02
709.303	1837.32
709.354	1851.13
709.406	1840.23
709.457	1841.42
709.508	1852.82
709.56	1839.56
709.611	1858.68
709.662	1857.6
709.714	1830.85
709.765	1831.87
709.816	1828
709.868	1830.08
709.919	1842.52
709.97	1837.53
710.022	1838.55
710.073	1867.22
710.124	1850.86
710.176	1855.09
710.227	1841.14
710.278	1824.42
710.33	1804.27
710.381	1847.83
710.432	1820.29
710.484	1844.08
710.535	1832.87
710.586	1840.94
710.638	1832.7
710.689	1835.95
710.74	1809.48
710.792	1803.96
710.843	1803.43
710.894	1826.76
710.946	1823.37
710.997	1810.39
711.048	1807.46
711.1	1816.43
711.151	1817.39
711.202	1828.34
711.254	1820.2
711.305	1797.06
711.356	1809.52
711.407	1755.14
711.459	1781.64
711.51	1813.24
711.561	1799.82
711.613	1806
711.664	1808.47
711.715	1799.14
711.767	1779.35
711.818	1781.04
711.869	1785.89
711.921	1790.91
711.972	1771.84
712.023	1777.02
712.075	1800.86
712.126	1775.8
712.177	1781.7
712.228	1773.12
712.28	1778.22
712.331	1759.03
712.382	1753.58
712.434	1769.41
712.485	1761.77
712.536	1785.39
712.588	1792.67
712.639	1773.14
712.69	1786.24
712.741	1773.05
712.793	1794.54
712.844	1762.05
712.895	1765.53
712.947	1732.82
712.998	1763.61
713.049	1762.74
713.101	1767.32
713.152	1754.59
713.203	1746.53
713.254	1762.86
713.306	1737.18
713.357	1711.3
713.408	1742.29
713.46	1712.84
713.511	1746.03
713.562	1731.17
713.613	1726.88
713.665	1717.97
713.716	1723.32
713.767	1729.06
713.819	1716.99
713.87	1721.99
713.921	1732.9
713.972	1702.34
714.024	1708.02
714.075	1703.21
714.126	1723.51
714.178	1708.33
714.18	1707.43
714.231	1705.71
714.283	1734.72
714.334	1708.62
714.385	1709.16
714.437	1696.29
714.488	1708.89
714.539	1667.25
714.591	1705.54
714.642	1709.01
714.694	1701.48
714.745	1691.16
714.796	1692.49
714.848	1676.5
714.899	1700.86
714.951	1679.24
715.002	1667.36
715.053	1687.59
715.105	1693.79
715.156	1686.68
715.207	1662.6
715.259	1687.63
715.31	1662.5
715.362	1651.04
715.413	1677.89
715.464	1698.76
715.516	1689.62
715.567	1680.68
715.618	1657.49
715.67	1667.3
715.721	1685.37
715.773	1651.56
715.824	1657.9
715.875	1654.83
715.927	1656.35
715.978	1676.9
716.029	1668.15
716.081	1659.9
716.132	1672.28
716.184	1651.35
716.235	1635.05
716.286	1647.97
716.338	1660.65
716.389	1634.85
716.44	1648.98
716.492	1661.22
716.543	1650.72
716.594	1651.78
716.646	1631.34
716.697	1653.77
716.749	1643.07
716.8	1635.19
716.851	1651.92
716.903	1660.15
716.954	1653.11
717.005	1639.8
717.057	1616.76
717.108	1611.07
717.159	1619.45
717.211	1631.16
717.262	1621.69
717.314	1613.08
717.365	1634.39
717.416	1646.98
717.468	1645.78
717.519	1622.32
717.57	1615.42
717.622	1621.17
717.673	1615.53
717.724	1611.81
717.776	1621.76
717.827	1637.04
717.878	1635.71
717.93	1610.88
717.981	1617.35
718.032	1613.46
718.084	1588.48
718.135	1612.01
718.187	1613.63
718.238	1603.63
718.289	1593
718.341	1600.32
718.392	1614.44
718.443	1597.18
718.495	1594.72
718.546	1605.84
718.597	1628.3
718.649	1610.78
718.7	1586.43
718.751	1607.02
718.803	1594.12
718.854	1614.31
718.905	1621.57
718.957	1617.67
719.008	1605
719.059	1570.87
719.111	1590.96
719.162	1584.63
719.213	1594.53
719.265	1586.24
719.316	1568.94
719.367	1577.17
719.419	1580.3
719.47	1565.69
719.521	1578.81
719.573	1595.78
719.624	1604.57
719.675	1590.21
719.727	1573.65
719.778	1575.01
719.829	1573.24
719.881	1577.77
719.932	1557.98
719.983	1562.02
720.035	1565.62
720.086	1553.64
720.137	1582.11
720.189	1577.25
720.24	1559.22
720.291	1551.56
720.343	1572.19
720.394	1563
720.445	1536.42
720.496	1559.08
720.548	1547.76
720.599	1532.69
720.65	1545.51
720.702	1541.36
720.753	1538.83
720.804	1539.54
720.856	1542.73
720.907	1546.31
720.958	1533.89
721.01	1541.87
721.061	1533.3
721.112	1511.78
721.164	1541.07
721.215	1550.24
721.266	1536.43
721.318	1535.32
721.369	1516.28
721.42	1511.29
721.471	1516.86
721.523	1519.16
721.574	1499.16
721.625	1525.64
721.677	1520.85
721.728	1507.75
721.779	1505.93
721.831	1516.84
721.882	1521.22
721.933	1498.6
721.984	1519.01
722.036	1533.54
722.087	1494.96
722.138	1478.06
722.19	1512.37
722.241	1512.01
722.292	1508.25
722.344	1495.83
722.395	1501.35
722.446	1499.73
722.497	1496.46
722.549	1499.99
722.6	1479.45
722.651	1482.85
722.703	1485.69
722.754	1490.31
722.805	1502.55
722.857	1499.18
722.908	1491.36
722.959	1473.13
723.01	1473.19
723.062	1469.62
723.113	1487.48
723.164	1482.07
723.216	1485.13
723.267	1458.95
723.318	1454.67
723.369	1442.44
723.421	1469.62
723.472	1481.47
723.523	1455.23
723.575	1477.62
723.626	1462.3
723.677	1446.08
723.728	1453.63
723.78	1458.4
723.831	1485.91
723.882	1465.3
723.934	1443.44
723.985	1455.27
724.036	1461.2
724.087	1463.82
724.139	1469.39
724.19	1462.41
724.241	1466.09
724.292	1450.48
724.344	1423.42
724.395	1427.46
724.446	1436.86
724.498	1461.42
724.549	1452.39
724.6	1444.8
724.651	1451.76
724.703	1442.19
724.754	1437.77
724.805	1435.88
724.856	1442.62
724.908	1441.26
724.959	1438.23
725.01	1416.1
725.062	1450.55
725.113	1440.5
725.164	1427.31
725.215	1418.11
725.267	1441.95
725.318	1428.23
725.369	1428.5
725.42	1424.14
725.472	1430.81
725.523	1422.13
725.574	1428.25
725.625	1433.95
725.677	1458.68
725.728	1443.69
725.779	1427.15
725.83	1419.75
725.882	1424.85
725.933	1414.93
725.984	1396.67
726.036	1396.78
726.087	1427.94
726.138	1419.34
726.189	1419.8
726.241	1432.91
726.292	1412.46
726.343	1421.79
726.394	1420.1
726.445	1434.48
726.497	1411.06
726.548	1399.93
726.599	1406.07
726.651	1404.31
726.702	1409.58
726.753	1411.48
726.804	1386.08
726.855	1403.3
726.907	1424.06
726.958	1412.15
727.009	1414.73
727.06	1402.22
727.112	1365.5
727.163	1375.1
727.214	1398.34
727.265	1385.68
727.317	1364.39
727.368	1409.17
727.419	1394.63
727.47	1397.52
727.522	1386.81
727.573	1383.52
727.624	1377.76
727.675	1392.46
727.727	1376.22
727.778	1364.73
727.829	1375.33
727.88	1394.2
727.932	1388.15
727.983	1366.48
728.034	1363.9
728.085	1352.92
728.136	1370.61
728.188	1346.03
728.239	1331.93
728.29	1354.36
728.341	1364.37
728.393	1364.52
728.444	1358.49
728.495	1351.85
728.546	1351.38
728.597	1362.79
728.649	1346.78
728.7	1321.45
728.751	1328.13
728.802	1359.1
728.854	1321.14
728.905	1345.7
728.956	1347.8
729.007	1324.74
729.058	1316.94
729.11	1346.31
729.161	1334.63
729.212	1325.77
729.263	1333.99
729.315	1320.22
729.366	1323.29
729.417	1325.3
729.468	1309.24
729.519	1302.65
729.571	1318.44
729.622	1309.63
729.673	1323.85
729.724	1316.81
729.775	1319.31
729.827	1324.6
729.878	1322.77
729.929	1299.47
729.98	1323.12
730.031	1306.24
730.083	1312.67
730.134	1313.49
730.185	1314.75
730.236	1305.69
730.288	1296.13
730.339	1318.55
730.39	1275.47
730.441	1271.19
730.492	1311.68
730.544	1303.32
730.595	1282.98
730.646	1302.7
730.697	1282.82
730.748	1278.61
730.8	1275.33
730.851	1285.21
730.902	1294.28
730.953	1283.13
731.004	1319.87
731.056	1296.21
731.107	1294.46
731.158	1296.26
731.209	1305.78
731.26	1273.59
731.312	1275.82
731.363	1283.44
731.414	1290.95
731.465	1257.89
731.516	1268.64
731.567	1266.43
731.619	1266
731.622	1265.94
731.673	1227.26
731.725	1288.52
731.776	1260.28
731.827	1277.92
731.878	1271.02
731.93	1271.75
731.981	1251.98
732.032	1249.18
732.084	1271.61
732.135	1258.88
732.186	1257.67
732.237	1248.94
732.289	1258.56
732.34	1239.85
732.391	1259.62
732.443	1271.12
732.494	1264.04
732.545	1246.03
732.597	1251.93
732.648	1256.07
732.699	1260.96
732.75	1258.1
732.802	1242.26
732.853	1228.81
732.904	1238.38
732.956	1248.68
733.007	1249.28
733.058	1254.91
733.109	1266.13
733.161	1243.21
733.212	1258.35
733.263	1228.86
733.315	1217.84
733.366	1247.01
733.417	1233.77
733.468	1214.6
733.52	1262.6
733.571	1238.27
733.622	1234.63
733.673	1230.05
733.725	1237.62
733.776	1259.1
733.827	1288.94
733.879	1259.8
733.93	1247.94
733.981	1269.91
734.032	1259.56
734.084	1246.67
734.135	1254.81
734.186	1268.31
734.237	1257.68
734.289	1243.34
734.34	1279.16
734.391	1264.45
734.443	1243.26
734.494	1243.17
734.545	1266.8
734.596	1268.03
734.648	1264.56
734.699	1243.23
734.75	1253.66
734.801	1267.75
734.853	1264.85
734.904	1253.36
734.955	1247.88
735.006	1276.84
735.058	1264.29
735.109	1249.23
735.16	1289.91
735.211	1281.97
735.263	1272.57
735.314	1266.64
735.365	1271.07
735.417	1302.89
735.468	1285.46
735.519	1271.97
735.57	1277.74
735.622	1288.17
735.673	1282.29
735.724	1289.49
735.775	1309.39
735.827	1283.3
735.878	1286.77
735.929	1277.83
735.98	1313.53
736.032	1306.28
736.083	1310.52
736.134	1303.13
736.185	1313.74
736.237	1323.15
736.288	1318.73
736.339	1337.76
736.39	1335.03
736.442	1327.43
736.493	1343.69
736.544	1351.16
736.595	1342.47
736.646	1337.76
736.698	1347.08
736.749	1369.46
736.8	1351.28
736.851	1355.93
736.903	1359.77
736.954	1374.79
737.005	1383.83
737.056	1375.47
737.108	1376.01
737.159	1389.66
737.21	1413.77
737.261	1398.51
737.313	1396.13
737.364	1401.24
737.415	1403.56
737.466	1406.61
737.518	1390.67
737.569	1423.06
737.62	1426.94
737.671	1423.24
737.722	1418.25
737.774	1424.81
737.825	1424.86
737.876	1430.39
737.927	1429.38
737.979	1451.29
738.03	1441.23
738.081	1459.39
738.132	1451
738.183	1448.29
738.235	1461.65
738.286	1458.92
738.337	1452.25
738.388	1437.59
738.44	1440.53
738.491	1453.7
738.542	1431.05
738.593	1405.93
738.644	1432.86
738.696	1436.9
738.747	1415.68
738.798	1424.64
738.849	1410.38
738.901	1433.98
738.952	1431.06
739.003	1416.21
739.054	1412.04
739.105	1403.38
739.157	1399.66
739.208	1403.39
739.259	1397.84
739.31	1391.61
739.361	1379.51
739.413	1373.28
739.464	1377.61
739.515	1382.39
739.566	1391.71
739.617	1359.26
739.669	1339.53
739.72	1327.25
739.771	1349.23
739.822	1355.22
739.874	1352.49
739.925	1344.67
739.976	1311.77
740.027	1318.51
740.078	1321.84
740.13	1303.98
740.181	1287.68
740.232	1291.09
740.283	1304.11
740.334	1293.08
740.385	1278.99
740.437	1286.39
740.488	1280.74
740.539	1281.18
740.59	1247.55
740.641	1263.41
740.693	1261.49
740.744	1251.41
740.795	1251.11
740.846	1240.3
740.897	1244.37
740.949	1252.73
741	1250.39
741.051	1248.16
741.102	1232.78
741.153	1222.89
741.205	1238.33
741.256	1224.69
741.307	1214.61
741.358	1215.71
741.409	1215.12
741.461	1218.05
741.512	1215.2
741.563	1194.76
741.614	1218.36
741.665	1191.94
741.716	1198.17
741.768	1195.17
741.819	1193.87
741.87	1185.74
741.921	1178.06
741.972	1167.65
742.024	1171.75
742.075	1157.15
742.126	1160.24
742.177	1170.34
742.228	1171.44
742.279	1180.08
742.331	1170.91
742.382	1174.83
742.433	1164.62
742.484	1143
742.535	1143.76
742.586	1145.76
742.638	1137.76
742.689	1142.97
742.74	1163.32
742.791	1161.33
742.842	1149.21
742.893	1139.42
742.945	1134.95
742.996	1142.22
743.047	1130.64
743.098	1119.84
743.149	1130.87
743.201	1123.22
743.252	1122.6
743.303	1117.56
743.354	1109.09
743.405	1114.57
743.456	1120.75
743.507	1102.26
743.559	1097.3
743.61	1096.15
743.661	1118.89
743.712	1111.64
743.763	1096.92
743.814	1087.48
743.866	1087.23
743.917	1099.68
743.968	1103.99
744.019	1102.97
744.07	1091.05
744.121	1094.91
744.172	1086.77
744.224	1084.72
744.275	1091.33
744.326	1086.99
744.377	1070.64
744.428	1068.67
744.479	1093.03
744.531	1093.28
744.582	1065.8
744.633	1080.69
744.684	1087.78
744.735	1070.72
744.786	1074.62
744.837	1067.04
744.889	1060.69
744.94	1072.83
744.991	1074.25
745.042	1068.9
745.093	1065.82
745.144	1070.35
745.195	1045.94
745.247	1054.08
745.298	1059.98
745.349	1051.67
745.4	1058.79
745.451	1068.72
745.502	1062.92
745.553	1056.44
745.605	1049.82
745.656	1053.81
745.707	1048.89
745.758	1058.89
745.809	1058.81
745.86	1047.34
745.911	1045.09
745.962	1047.25
746.014	1042.46
746.065	1041.3
746.116	1038.59
746.167	1032.2
746.218	1027.71
746.269	1031.29
746.32	1051.9
746.372	1041.84
746.423	1036.74
746.474	1036.54
746.525	1034.78
746.576	1034.84
746.627	1033.86
746.678	1033.16
746.729	1032.91
746.78	1020.17
746.832	1023.76
746.883	1020.21
746.934	1043.89
746.985	1038.18
747.036	1014.92
747.087	1032.95
747.138	1024.16
747.189	1022.19
747.241	1033.99
747.292	1033.69
747.343	1009.33
747.394	1013.15
747.445	1027.63
747.496	1015.38
747.547	1017.51
747.598	1017.15
747.649	1022.9
747.701	1019.13
747.752	1017.89
747.803	1017.12
747.854	1013.73
747.905	1009.34
747.956	1000.12
748.007	1014.32
748.058	1019.29
748.109	1010.5
748.161	987.903
748.212	995.92
748.263	995.482
748.314	992.762
748.365	1001.89
748.416	988.05
748.467	987.452
748.518	998.852
748.569	999.582
748.62	1006.56
748.672	999.797
748.723	989.941
748.774	988.142
748.825	992.504
748.876	981.938
748.927	994.488
748.978	975.882
749.029	1008.47
749.08	1006.74
749.131	998.681
749.173	990.167
749.224	981.07
749.275	1011.83
749.326	1006.32
749.378	992.099
749.429	992.378
749.48	1002.03
749.531	992.429
749.582	986.919
749.634	991.343
749.685	985.888
749.736	965.148
749.787	968.16
749.838	983.635
749.89	976.38
749.941	981.17
749.992	977.847
750.043	973.48
750.094	973.039
750.146	964.455
750.197	967.055
750.248	958.984
750.299	943.97
750.35	961.885
750.401	973.745
750.453	961.27
750.504	956.822
750.555	965.201
750.606	975.483
750.657	943.07
750.709	959.227
750.76	956.19
750.811	963.06
750.862	940.424
750.913	936.023
750.964	966.862
751.016	939.213
751.067	944.516
751.118	965.211
751.169	958.831
751.22	959.063
751.272	948.057
751.323	950.121
751.374	967.002
751.425	952.065
751.476	958.479
751.528	969.116
751.579	956.185
751.63	954.093
751.681	963.57
751.732	945.256
751.783	934.559
751.835	943.826
751.886	931.507
751.937	928.875
751.988	934.101
752.039	943.211
752.09	936.617
752.142	917.949
752.193	927.66
752.244	937.777
752.295	937.497
752.346	948.532
752.397	935.844
752.449	924.413
752.5	932.991
752.551	929.686
752.602	901.395
752.653	940.68
752.704	910.554
752.756	928.288
752.807	913.194
752.858	908.302
752.909	926.62
752.96	912.476
753.011	932.636
753.063	915.969
753.114	899.279
753.165	912.104
753.216	902.686
753.267	919.991
753.318	898.44
753.37	926.841
753.421	907.785
753.472	903.336
753.523	905.346
753.574	907.231
753.625	917.019
753.676	896.704
753.728	908.392
753.779	903.589
753.83	899.008
753.881	898.867
753.932	867.706
753.983	911.395
754.034	910.309
754.086	887.937
754.137	879.53
754.188	907.7
754.239	888.653
754.29	881.723
754.341	901.064
754.393	886.997
754.444	900.269
754.495	893.498
754.546	864.57
754.597	876.093
754.648	890.893
754.699	897.015
754.75	892.729
754.802	900.089
754.853	882.826
754.904	872.985
754.955	872.328
755.006	879.149
755.057	883.121
755.108	872.58
755.16	887.012
755.211	899.994
755.262	880.457
755.313	871.218
755.364	869.318
755.415	861.306
755.466	875.021
755.518	876.155
755.569	860.029
755.62	872.512
755.671	854.615
755.722	856.827
755.773	858.469
755.824	849.155
755.875	843.736
755.927	863.646
755.978	860.152
756.029	865.739
756.08	858.686
756.131	836.67
756.182	868.952
756.233	867.063
756.284	852.24
756.336	850.225
756.387	843.041
756.438	856.677
756.489	857.628
756.54	850.088
756.591	853.561
756.642	856.149
756.693	845.671
756.745	843.569
756.796	833.605
756.847	825.816
756.898	845.629
756.949	851.52
757	850.211
757.051	856.3
757.102	844.006
757.153	826.025
757.205	828.949
757.256	837.911
757.307	825.912
757.358	831.445
757.409	839.159
757.46	840.483
757.511	843.858
757.562	827.068
757.613	817.576
757.664	826.451
757.716	826.612
757.767	817.411
757.818	823.036
757.869	828.004
757.92	830.389
757.971	829.187
758.022	822.409
758.073	818.365
758.124	826.698
758.175	815.838
758.227	840.887
758.278	818.473
758.329	810.424
758.38	815.327
758.431	815.012
758.482	829.277
758.533	833.178
758.584	824.425
758.635	826.929
758.686	806.673
758.738	802.217
758.789	804.075
758.84	809.419
758.891	815.18
758.942	804.675
758.993	810.464
759.044	812.714
759.095	802.354
759.146	806.541
759.197	801.607
759.248	806.974
759.3	787.791
759.351	788.325
759.402	806.713
759.453	811.907
759.504	810.524
759.555	811.635
759.606	808.743
759.657	807.742
759.708	798.683
759.759	779.286
759.81	781.389
759.861	788.922
759.913	792.505
759.964	797.026
760.015	784.943
760.066	783.312
760.117	793.461
760.168	795.646
760.219	786.635
760.27	793.043
760.321	773.061
760.372	765.739
760.423	762.943
760.474	768.217
760.525	775.054
760.576	780.688
760.628	788.273
760.679	775.892
760.73	781.564
760.781	778.306
760.832	779.66
760.883	776.234
760.934	772.609
760.985	747.131
761.036	755.685
761.087	750.829
761.138	758.627
761.189	757.246
761.24	760.762
761.291	765.519
761.342	742.141
761.393	751.232
761.445	772.451
761.496	768.892
761.547	749.621
761.598	764.67
761.649	778.614
761.7	767.806
761.751	758.11
761.802	755.391
761.853	761.265
761.904	755.811
761.955	754.65
762.006	753.474
762.057	748.791
762.108	754.41
762.159	748.931
762.21	751.96
762.261	744.418
762.313	746.28
762.364	749.12
762.415	739.431
762.466	741.644
762.517	734.806
762.568	747.738
762.619	752.156
762.67	749.604
762.721	730.829
762.772	742.26
762.823	737.649
762.874	738.194
762.925	745.191
762.976	731.482
763.027	737.755
763.078	739.855
763.129	731.932
763.18	731.328
763.231	740.372
763.282	735.146
763.333	738.765
763.384	731.594
763.435	735.772
763.486	740.305
763.537	740.247
763.589	746.997
763.64	730.556
763.691	729.207
763.742	722.069
763.793	722.175
763.844	727.779
763.895	727.697
763.946	723.353
763.997	728.694
764.048	743.248
764.099	739.762
764.15	728.676
764.201	726.086
764.252	726.494
764.303	718.487
764.354	725.994
764.405	721.258
764.456	713.647
764.507	712.91
764.558	719.941
764.609	721.49
764.66	717.002
764.711	709.361
764.762	696.148
764.813	702.858
764.864	704.026
764.915	706.979
764.966	717.317
765.017	704.329
765.068	703.821
765.119	709.267
765.17	718.494
765.221	718.553
765.272	710.206
765.323	702.834
765.374	698.363
765.425	700.865
765.476	702.215
765.527	706.886
765.578	713.099
765.629	707.136
765.68	692.932
765.731	692.358
765.782	695.242
765.833	703.743
765.884	708.091
765.935	702.976
765.986	704.397
766.037	696.951
766.088	691.704
766.139	691.771
766.19	691.974
766.241	679.647
766.292	677.844
766.343	690.797
766.394	696.062
766.445	682.461
766.496	683.321
766.547	689.849
766.598	685.244
766.649	693.983
766.677	684.117
766.729	677.855
766.78	693.911
766.831	676.048
766.882	708.033
766.933	678.925
766.984	674.028
767.035	675.097
767.086	674.362
767.137	684.557
767.188	670.559
767.24	659.861
767.291	671.409
767.342	681.148
767.393	666.542
767.444	673.075
767.495	662.757
767.546	671.804
767.597	658.624
767.648	678.729
767.7	677.367
767.751	661.909
767.802	646.02
767.853	648.887
767.904	658.16
767.955	680.435
768.006	667.973
768.057	663.712
768.108	661.641
768.159	655.864
768.21	651.161
768.262	662.496
768.313	664.731
768.364	635.197
768.415	640.887
768.466	654.365
768.517	659.405
768.568	651.177
768.619	642.468
768.67	654.693
768.721	662.161
768.772	652.695
768.823	656.523
768.875	657.035
768.926	651.201
768.977	648.163
769.028	649.632
769.079	622.113
769.13	647.862
769.181	631.518
769.232	629.393
769.283	626.92
769.334	641.189
769.385	626.703
769.436	632.2
769.488	631.012
769.539	639.63
769.59	650.629
769.641	615.567
769.692	625.352
769.743	623.302
769.794	622.802
769.845	620.098
769.896	621.773
769.947	628.1
769.998	619.792
770.049	629.014
770.1	626.568
770.151	634.733
770.203	620.85
770.254	619.61
770.305	631.998
770.356	622.257
770.407	630.5
770.458	612.14
770.509	613.172
770.56	607.431
770.611	622.039
770.662	622.989
770.713	614.591
770.764	606.625
770.815	610.757
770.866	617.88
770.917	609.818
770.968	608.019
771.02	599.187
771.071	601.693
771.122	617.167
771.173	609.753
771.224	602.814
771.275	596.25
771.326	610.795
771.377	613.116
771.428	597.513
771.479	612.717
771.53	593.264
771.581	606.471
771.632	594.927
771.683	598.255
771.734	598.906
771.785	608.314
771.836	588.536
771.887	583.452
771.938	580.162
771.99	586.71
772.041	590.689
772.092	590.763
772.143	600.318
772.194	591.359
772.245	593.953
772.296	588.789
772.347	588.118
772.398	589.321
772.449	574.371
772.5	585.377
772.551	583.729
772.602	583.117
772.653	595.632
772.704	588.414
772.755	587.144
772.806	579.063
772.857	579.298
772.908	586.668
772.959	574.549
773.01	580.043
773.061	569.353
773.112	566.259
773.163	576.668
773.214	572.752
773.265	582.464
773.316	570.966
773.367	565.675
773.419	559.119
773.47	571.765
773.521	565.139
773.572	561.552
773.623	563.873
773.674	562.32
773.725	574.417
773.776	570.688
773.827	554.586
773.878	555.304
773.929	555.102
773.98	563.647
774.031	562.983
774.082	574.178
774.133	562.062
774.184	549.975
774.235	549.227
774.286	557.78
774.337	547.247
774.388	564.91
774.439	553.841
774.49	556.664
774.541	541.78
774.592	555.362
774.643	549.028
774.694	545.027
774.745	536.878
774.796	546.06
774.847	558.005
774.898	565.939
774.949	544.885
775	538.14
775.051	537.624
775.102	540.447
775.153	532.19
775.204	549.254
775.255	548.006
775.306	541.938
775.357	553.013
775.408	543.993
775.459	541.103
775.51	537.01
775.561	541.04
775.612	536.035
775.663	537.028
775.714	526.886
775.765	520.989
775.816	527.577
775.867	528.237
775.918	531.098
775.969	528.777
776.02	535.24
776.071	531.272
776.122	518.685
776.173	509.088
776.224	517.054
776.275	526.25
776.326	520.495
776.377	509.185
776.428	525.271
776.479	530.813
776.53	523.974
776.581	519.583
776.632	517.196
776.683	525.513
776.734	510.455
776.785	510.709
776.836	522.393
776.887	524.721
776.938	514.912
776.989	514.746
777.04	523.472
777.091	509.952
777.142	510.508
777.193	507.349
777.244	521.346
777.295	512.022
777.346	505.675
777.397	511.855
777.448	505.828
777.499	514.89
777.55	515.589
777.601	521.658
777.652	515.819
777.703	504.639
777.754	500.526
777.805	500.996
777.856	505.186
777.907	507.511
777.958	503.487
778.009	504.138
778.06	503.798
778.111	501.217
778.161	498.449
778.212	505.778
778.263	500.564
778.314	492.742
778.365	490.009
778.416	490.625
778.467	495.076
778.518	490.822
778.569	486.334
778.62	493.439
778.671	490.211
778.722	485.426
778.773	481.824
778.824	496.151
778.875	504.473
778.926	492.075
778.977	497.42
779.028	484.576
779.079	487.114
779.13	495.396
779.181	486.122
779.232	491.168
779.283	490.354
779.334	485.265
779.385	489.073
779.436	485.619
779.487	490.011
779.537	482.667
779.588	482.079
779.639	481.814
779.69	480.002
779.741	473.967
779.792	472.55
779.843	476.099
779.894	477.297
779.945	478.23
779.996	485.343
780.047	478.666
780.098	461.986
780.149	456.959
780.2	471.747
780.251	478.475
780.302	469.449
780.353	464.223
780.404	467.695
780.455	468.169
780.505	465.362
780.556	460.221
780.607	469.42
780.658	470.709
780.709	470.499
780.76	464.403
780.811	460.977
780.862	463.734
780.913	462.188
780.964	452.259
781.015	454.109
781.066	457.408
781.117	458.936
781.168	456.184
781.219	460.213
781.27	463.162
781.32	453.698
781.371	458.322
781.422	462.658
781.473	468.197
781.524	455.667
781.575	448.464
781.626	448.192
781.677	447.428
781.728	448.735
781.779	455.059
781.83	463.528
781.881	453.305
781.932	454.455
781.983	450.336
782.033	441.831
782.084	443.796
782.135	451.837
782.186	445.318
782.237	440.467
782.288	443.536
782.339	437.941
782.39	436.987
782.441	435.741
782.492	451.459
782.543	436.275
782.594	442.287
782.644	444.899
782.695	435.325
782.746	437.335
782.797	445.582
782.848	446.408
782.899	445.09
782.95	436.668
783.001	432.123
783.052	438.853
783.103	427.785
783.154	431.688
783.204	430.957
783.255	420.572
783.306	436.874
783.357	441.189
783.408	425.652
783.459	434.668
783.51	444.863
783.561	439.045
783.612	426.2
783.663	422.788
783.714	425.607
783.764	425.304
783.815	420.381
783.866	424.477
783.917	424.901
783.968	427.054
784.019	414.102
784.07	423.032
784.109	430.688
784.16	427.982
784.211	420.817
784.262	410.77
784.313	438.368
784.364	422.699
784.415	419.155
784.466	423.186
784.517	415.604
784.568	414.938
784.619	420.516
784.67	419.018
784.721	418.957
784.772	432.685
784.823	419.194
784.874	411.756
784.925	399.491
784.976	411.001
785.027	417.985
785.078	413.306
785.129	407.808
785.18	422.432
785.231	415.155
785.282	409.879
785.333	422.531
785.384	401.204
785.435	400.086
785.486	402.607
785.537	403.984
785.588	398.012
785.639	409.108
785.69	397.436
785.741	393.229
785.792	404.735
785.843	417.765
785.894	412.873
785.945	397.626
785.996	388.404
786.047	392.036
786.098	399.267
786.149	412.159
786.2	416.063
786.251	402.995
786.302	409.234
786.353	386.255
786.404	394.815
786.455	408.308
786.506	390.056
786.557	386.471
786.608	404.232
786.659	392.039
786.71	402.654
786.761	387.262
786.812	382.007
786.863	393.284
786.914	391.733
786.965	393.76
787.016	394.339
787.067	383.52
787.118	400.836
787.169	401.737
787.22	388.118
787.271	391.897
787.322	378.179
787.373	388.626
787.424	390.206
787.475	375.665
787.526	386.797
787.576	385.45
787.627	389.048
787.678	384.868
787.729	372.831
787.78	389.616
787.831	390.078
787.882	379.677
787.933	369.538
787.984	373.7
788.035	375.46
788.086	377.061
788.137	370.062
788.188	382.914
788.239	376.938
788.29	374.919
788.341	383.011
788.392	380.086
788.443	371.729
788.494	367.962
788.545	369.358
788.596	376.594
788.647	375.865
788.698	374.254
788.749	380.448
788.8	377.038
788.851	367.747
788.901	349.088
788.952	368.597
789.003	363.793
789.054	377.976
789.105	357.167
789.156	381.895
789.207	381.127
789.258	375.756
789.309	361.864
789.36	363.344
789.411	364.281
789.462	350.632
789.513	361.957
789.564	354.856
789.615	359.428
789.666	366.871
789.717	366.648
789.768	370.46
789.819	363.789
789.87	353.832
789.92	361.108
789.971	359.895
790.022	359.391
790.073	365.948
790.124	364.371
790.175	357.362
790.226	359.356
790.277	357.462
790.328	363.886
790.379	356.662
790.43	361.026
790.481	353.894
790.532	360.191
790.583	354.606
790.634	362.311
790.685	361.783
790.735	353.294
790.786	348.003
790.837	357.589
790.888	348.161
790.939	353.374
790.99	353.567
791.041	350.266
791.092	351.828
791.143	357.641
791.194	342.173
791.245	347.946
791.296	333.96
791.347	343.793
791.397	349.837
791.448	352.291
791.499	355.496
791.55	346.431
791.601	346.863
791.652	346.93
791.703	341.935
791.754	343.065
791.805	340.742
791.856	348.659
791.907	348.953
791.958	346.701
792.008	343.78
792.059	338.22
792.11	345.5
792.161	352.111
792.212	343.139
792.263	341.153
792.314	337.29
792.365	341.603
792.416	343.739
792.467	338.383
792.518	332.216
792.569	335.178
792.619	331.838
792.67	327.152
792.721	332.66
792.772	339.857
792.823	332.845
792.874	339.71
792.925	339.995
792.976	331.912
793.027	327.959
793.078	328.361
793.128	332.985
793.179	333.559
793.23	333.044
793.281	330.468
793.332	329.803
793.383	329.876
793.434	327.414
793.485	327.967
793.536	327.709
793.587	327.591
793.638	332.033
793.688	332.661
793.739	328.313
793.79	326.291
793.841	319.316
793.892	323.184
793.943	323.201
793.994	325.325
794.045	323.983
794.096	322.534
794.146	319.609
794.197	317.666
794.248	314.349
794.299	321.376
794.35	314.754
794.401	305.988
794.452	317.888
794.503	325.576
794.554	330.042
794.604	324.118
794.655	318.099
794.706	307.433
794.757	307.405
794.808	314.931
794.859	318.933
794.91	318.949
794.961	310.179
795.011	316.912
795.062	314.218
795.113	308.41
795.164	314.676
795.215	322.211
795.266	319.44
795.317	314.247
795.368	303.342
795.418	304
795.469	314.58
795.52	308.239
795.571	306.86
795.622	311.774
795.673	306.735
795.724	296.329
795.775	304.3
795.825	311.444
795.876	315.473
795.927	302.69
795.978	299.17
796.029	302.7
796.08	310.509
796.131	301.316
796.181	297.066
796.232	297.546
796.283	304.644
796.334	304.821
796.385	308.272
796.436	297.13
796.487	298.008
796.537	298.035
796.588	295.619
796.639	307.182
796.69	302.923
796.741	289.646
796.792	296.339
796.843	298.7
796.893	296.799
796.944	300.438
796.995	292.605
797.046	297.086
797.097	301.677
797.148	291.938
797.199	295.111
797.249	292.815
797.3	288.599
797.351	292.486
797.402	304.267
797.453	297.06
797.504	287.078
797.555	293.583
797.605	299.903
797.656	302.342
797.707	298.405
797.758	295.285
797.809	288.333
797.86	291.755
797.91	289.814
797.961	290.957
798.012	286.393
798.063	282.411
798.114	285.718
798.165	280.323
798.216	287.678
798.266	292.65
798.317	285.377
798.368	284.184
798.419	293.143
798.47	286.882
798.521	277.665
798.571	287.051
798.622	289.423
798.673	288.049
798.724	288.762
798.775	284.691
798.826	285.255
798.876	289.075
798.927	284.801
798.978	281.803
799.029	277.469
799.08	283.107
799.13	278.905
799.181	279.413
799.232	275.026
799.283	278.092
799.334	276.746
799.385	286.92
799.435	282.277
799.486	282.275
799.537	271.041
799.588	268.306
799.639	273.253
799.69	273.835
799.74	277.05
799.791	278.351
799.842	279.869
799.893	274.668
799.944	269.492
799.994	274.994
800.045	283.151
800.096	281.566
800.147	270.579
800.198	273.508
800.248	280.049
800.299	272.25
800.35	266.84
800.401	267.892
800.452	269.983
800.503	261.571
800.553	263.523
800.604	268.79
800.655	272.441
800.706	268.949
800.757	263.686
800.807	267.895
800.858	264.893
800.909	260.663
800.96	265.179
801.011	274.444
801.061	271.285
801.112	262.312
801.163	266.809
801.214	265.738
801.265	256.43
801.315	260.753
801.366	263.97
801.417	268.422
801.457	267.728
801.508	261.742
801.558	258.485
801.609	251.812
801.66	256.922
801.711	257.575
801.762	259.922
801.813	256.055
801.864	270.825
801.915	262.614
801.966	256.26
802.017	263.781
802.068	256.02
802.118	265.508
802.169	258.206
802.22	265.841
802.271	263.124
802.322	255.937
802.373	258.376
802.424	254.884
802.475	256.003
802.526	259.253
802.577	248.179
802.627	245.867
802.678	265.224
802.729	261.565
802.78	244.703
802.831	241.691
802.882	257.487
802.933	254.466
802.984	246.467
803.035	249.213
803.086	260.42
803.136	253.264
803.187	242.325
803.238	259.872
803.289	256.677
803.34	257.606
803.391	250.755
803.442	256.909
803.493	251.964
803.544	257.22
803.594	246.447
803.645	254.136
803.696	246.129
803.747	252.877
803.798	247.946
803.849	245.3
803.9	256.269
803.951	245.621
804.002	238.253
804.052	242.216
804.103	241.365
804.154	250.045
804.205	246.027
804.256	245.532
804.307	247.913
804.358	242.338
804.409	246.456
804.459	252.144
804.51	239.493
804.561	234.313
804.612	241.628
804.663	239.79
804.714	246.381
804.765	233.677
804.816	227.003
804.866	241.651
804.917	240.903
804.968	235.144
805.019	236.493
805.07	234.717
805.121	238.282
805.172	238.67
805.223	241.406
805.273	233.718
805.324	228.755
805.375	244.757
805.426	230.966
805.477	248.534
805.528	232.131
805.579	232.55
805.629	239.769
805.68	231.837
805.731	240.057
805.782	230.797
805.833	226.173
805.884	240.456
805.935	235.26
805.985	230.512
806.036	230.666
806.087	228.913
806.138	243.888
806.189	225.869
806.24	236.388
806.291	226.332
806.341	231.915
806.392	236.168
806.443	243.396
806.494	233.399
806.545	219.124
806.596	233.554
806.647	230.973
806.697	223.437
806.748	232.968
806.799	227.567
806.85	227.263
806.901	242.107
806.952	224.749
807.003	231.138
807.053	225.484
807.104	237.835
807.155	228.99
807.206	224.465
807.257	221.783
807.308	227.341
807.358	222.546
807.409	220.453
807.46	231.719
807.511	232.115
807.562	233.184
807.613	229.247
807.663	234.865
807.714	223.396
807.765	226.007
807.816	221.792
807.867	234.635
807.918	223.797
807.969	215.267
808.019	226.26
808.07	219.475
808.121	219.582
808.172	216.877
808.223	226.583
808.273	231.707
808.324	226.404
808.375	222.428
808.426	212.214
808.477	212.608
808.528	228.8
808.578	208.457
808.629	218.806
808.68	215.722
808.731	211.785
808.782	219.474
808.833	220.571
808.883	213.229
808.934	218.894
808.985	217.818
809.036	214.335
809.087	214.508
809.138	222.223
809.188	221.872
809.239	217.685
809.29	217.03
809.341	222.698
809.392	211.746
809.442	220.08
809.493	215.215
809.544	208.129
809.595	206.305
809.646	215.973
809.696	211.407
809.747	213.537
809.798	213.698
809.849	205.249
809.9	213.119
809.951	212.691
810.001	208.54
810.052	202.37
810.103	212.384
810.154	212.603
810.205	210.739
810.255	206.793
810.306	208.559
810.357	216.889
810.408	211.992
810.459	203.457
810.509	215.69
810.56	212.034
810.611	204.553
810.662	209.22
810.713	208.239
810.763	200.271
810.814	198.462
810.865	196.506
810.916	214.518
810.967	204.741
811.017	199.638
811.068	210.677
811.119	209.077
811.17	202.13
811.221	204.759
811.271	202.219
811.322	208.316
811.373	200.269
811.424	198.23
811.474	205.508
811.525	213.044
811.576	209.173
811.627	196.249
811.678	192.331
811.728	197.335
811.779	197.178
811.83	203.627
811.881	202.79
811.932	199.355
811.982	194.364
812.033	206.903
812.084	204.844
812.135	203.885
812.185	200.375
812.236	201.347
812.287	200.303
812.338	199.613
812.389	193.469
812.439	200.828
812.49	198.452
812.541	194.653
812.592	198.081
812.642	193.811
812.693	205.381
812.744	201.521
812.795	200.271
812.846	188.548
812.896	197.121
812.947	203.247
812.998	196.643
813.049	192.88
813.099	202.302
813.15	195.674
813.201	195.537
813.252	191.434
813.302	196.093
813.353	195.28
813.404	193.934
813.455	183.276
813.506	192.274
813.556	195.12
813.607	189.329
813.658	195.314
813.709	196.614
813.759	190.405
813.81	185.37
813.861	189.336
813.912	194.497
813.962	193.148
814.013	192.989
814.064	198.892
814.115	190.315
814.165	189.24
814.216	191.4
814.267	189.28
814.318	193.648
814.368	189.219
814.419	185.547
814.47	185.616
814.521	184.37
814.571	188.013
814.622	186.132
814.673	183.345
814.724	186.96
814.774	179.725
814.825	181.231
814.876	181.071
814.927	193.234
814.977	189.59
815.028	187.043
815.079	186.646
815.13	186.328
815.18	187.201
815.231	179.214
815.282	178.356
815.333	184.019
815.383	180.766
815.434	183.54
815.485	183.41
815.536	183.447
815.586	181.191
815.637	176.434
815.688	176.445
815.739	181.281
815.789	179.354
815.84	180.927
815.891	180.065
815.941	182.234
815.992	181.347
816.043	180.167
816.094	181.954
816.144	176.14
816.195	173.983
816.246	178.185
816.297	186.27
816.347	188.933
816.398	183.204
816.449	175.221
816.499	174.99
816.55	178.3
816.601	181.306
816.652	180.209
816.702	174.711
816.753	176.52
816.804	176.176
816.855	178.739
816.905	179.887
816.956	178.15
817.007	179.43
817.057	178.242
817.108	174.928
817.159	176.911
817.21	173.768
817.26	171.454
817.311	169.152
817.362	170.38
817.412	174.266
817.463	172.067
817.514	172.579
817.565	173.416
817.615	178.995
817.666	175.775
817.717	179.642
817.767	176.61
817.818	169.344
817.869	175.988
817.919	176.599
817.97	169.249
818.021	171.473
818.072	174.879
818.122	169.344
818.173	171.726
818.224	174.475
818.274	170.935
818.325	169.012
818.376	171.695
818.427	168.923
818.477	172.29
818.528	177.649
818.579	172.845
818.629	164.251
818.68	169.64
818.731	170.612
818.781	161.906
818.806	166.808
818.857	168.342
818.908	165.692
818.959	172.359
819.01	166.575
819.06	166.239
819.111	162.88
819.162	164.047
819.213	160.671
819.264	166.706
819.315	167.377
819.365	162.881
819.416	163.97
819.467	164.86
819.518	165.43
819.569	170.628
819.619	161.489
819.67	168.98
819.721	166.195
819.772	162.817
819.823	169.696
819.873	161.105
819.924	166.258
819.975	171.028
820.026	169.348
820.077	170.034
820.127	168.689
820.178	160.347
820.229	162.666
820.28	170.554
820.331	168.761
820.381	159.235
820.432	164.109
820.483	161.04
820.534	159.786
820.585	164.096
820.635	162.18
820.686	160.266
820.737	152.798
820.788	157.637
820.839	159.255
820.889	161.057
820.94	164.045
820.991	165.821
821.042	157.412
821.092	153.223
821.143	153.989
821.194	156.564
821.245	165.099
821.296	157.458
821.346	158.117
821.397	165.224
821.448	154.34
821.499	159.031
821.549	160.353
821.6	154.564
821.651	149.988
821.702	160.06
821.753	148.138
821.803	157.484
821.854	150.105
821.905	157.512
821.956	163.765
822.006	158.337
822.057	154.986
822.108	153.02
822.159	155.819
822.21	154.583
822.26	153.576
822.311	154.726
822.362	153.667
822.413	158.379
822.463	154.53
822.514	155.857
822.565	157.731
822.616	156.384
822.667	155.231
822.717	149.278
822.768	150.855
822.819	154.567
822.87	154.376
822.92	143.78
822.971	147.47
823.022	146.544
823.073	152.499
823.123	154.534
823.174	153.456
823.225	151.841
823.276	149.786
823.326	156.724
823.377	148.777
823.428	151.059
823.479	156.675
823.529	152.501
823.58	154.537
823.631	155.287
823.682	145.014
823.732	148.004
823.783	149.479
823.834	149.034
823.885	144.122
823.935	153.121
823.986	151.657
824.037	149.627
824.088	142.959
824.138	141.385
824.189	144.803
824.24	154.021
824.291	157.366
824.341	146.767
824.392	141.439
824.443	146.193
824.494	145.047
824.544	148.842
824.595	151.832
824.646	148.164
824.697	145.593
824.747	154.937
824.798	144.229
824.849	141.073
824.9	138.913
824.95	145.871
825.001	143.827
825.052	151.109
825.103	146.467
825.153	144.916
825.204	141.485
825.255	146.165
825.305	144.061
825.356	143.222
825.407	140.729
825.458	146.961
825.508	146.426
825.559	146.307
825.61	145.812
825.661	148.498
825.711	141.574
825.762	136.326
825.813	144.354
825.864	142.882
825.914	139.269
825.965	136.93
826.016	144.035
826.066	143.512
826.117	145.584
826.168	150.545
826.219	145.382
826.269	143.901
826.32	140.315
826.371	136.539
826.421	142.893
826.472	145.732
826.523	139.444
826.574	137.761
826.624	146.812
826.675	143.315
826.726	143.346
826.776	137.549
826.827	134.184
826.878	134.795
826.929	138.606
826.979	139.754
827.03	141.167
827.081	139.321
827.131	144.68
827.182	136.046
827.233	136.648
827.284	142.592
827.334	145.54
827.385	138.704
827.436	139.086
827.486	135.652
827.537	142.991
827.588	145.484
827.638	139.878
827.689	135.951
827.74	138.937
827.791	137.005
827.841	133.38
827.892	132.844
827.943	135.9
827.993	143.426
828.044	138.899
828.095	135.857
828.146	139.476
828.196	135.597
828.247	135.693
828.298	134.348
828.348	130.097
828.399	132.255
828.45	131.22
828.5	127.997
828.551	139.065
828.602	139.651
828.652	134.369
828.703	133.663
828.754	135.231
828.805	136.972
828.855	130.314
828.906	133.841
828.957	130.15
829.007	136.669
829.058	137.749
829.109	130.706
829.159	125.583
829.21	134.414
829.261	144.271
829.311	130.94
829.362	124.55
829.413	127.745
829.463	129.95
829.514	133.262
829.565	135.177
829.615	134.099
829.666	132.101
829.717	130.369
829.767	126.935
829.818	122.276
829.869	133.525
829.919	134.758
829.97	131.892
830.021	131.27
830.071	129.723
830.122	130.956
830.173	130.684
830.224	132.495
830.274	134.415
830.325	131.115
830.376	125.842
830.426	129.919
830.477	134.891
830.528	136.708
830.578	127.175
830.629	126.568
830.68	126.123
830.73	133.158
830.781	128.652
830.831	134.3
830.882	125.3
830.933	129.74
830.983	130.492
831.034	140.024
831.085	125.384
831.135	124.448
831.186	126.721
831.237	128.435
831.287	123.442
831.338	124.83
831.389	120.177
831.439	127.285
831.49	121.263
831.541	124.968
831.591	122.489
831.642	121.245
831.693	121.303
831.743	124.892
831.794	118.48
831.845	120.962
831.895	127.931
831.946	125.345
831.997	121.128
832.047	125.886
832.098	124.823
832.148	122.36
832.199	117.976
832.25	125.561
832.3	125.493
832.351	121.382
832.402	120.695
832.452	126.157
832.503	122.304
832.554	121.123
832.604	122.409
832.655	125.139
832.706	129.209
832.756	124.182
832.807	121.012
832.857	118.136
832.908	121.309
832.959	125.948
833.009	122.754
833.06	127.283
833.111	116.891
833.161	124.245
833.212	129.137
833.263	129.105
833.313	119.979
833.364	130.567
833.414	128.095
833.465	121.46
833.516	123.821
833.566	124.102
833.617	123.363
833.668	117.27
833.718	117.491
833.769	121.548
833.819	126.36
833.87	122.901
833.921	129.62
833.971	121.713
834.022	125.207
834.073	121.154
834.123	120.987
834.174	113.147
834.224	121.307
834.275	125.007
834.326	115.207
834.376	122.097
834.427	109.827
834.477	117.741
834.528	116.049
834.579	113.358
834.629	119.864
834.68	117.277
834.73	121.288
834.781	114.442
834.832	116.898
834.882	115.233
834.933	119.197
834.984	113.861
835.034	130.818
835.085	113.767
835.135	118.006
835.186	113.689
835.237	124.955
835.287	122.555
835.338	118.187
835.388	118.735
835.439	117.678
835.49	118.891
835.54	110.186
835.591	114.905
835.641	119.714
835.692	111.39
835.743	126.57
835.793	113.301
835.844	115.897
835.894	111.112
835.945	113.788
835.996	106.322
836.046	120.556
836.097	118.967
836.099	118.977
836.15	114.202
836.201	115.852
836.251	118.958
836.302	114.195
836.353	131.818
836.404	116.892
836.454	110.241
836.505	123.766
836.556	113.044
836.606	121.038
836.657	116.884
836.708	114.872
836.758	117.949
836.809	117.964
836.86	119.025
836.911	112.781
836.961	111.645
837.012	113.717
837.063	113.001
837.113	108.336
837.164	112.765
837.215	115.391
837.265	121.222
837.316	111.222
837.367	114.443
837.418	114.061
837.468	115.62
837.519	111.495
837.57	103.894
837.62	117.681
837.671	113.224
837.722	112.886
837.772	112.312
837.823	106.687
837.874	117.749
837.924	116.209
837.975	117.564
838.026	114.114
838.077	104.181
838.127	112.068
838.178	112.766
838.229	121.064
838.279	115.828
838.33	102.799
838.381	110.985
838.431	112.359
838.482	114.617
838.533	108.862
838.583	112.017
838.634	116.278
838.685	101.47
838.735	104.303
838.786	107.903
838.837	115.98
838.888	105.345
838.938	112.269
838.989	101.069
839.04	109.578
839.09	102.23
839.141	104.358
839.192	111.155
839.242	112.603
839.293	105.27
839.344	108.032
839.394	101.724
839.445	109.908
839.496	98.4075
839.546	108.345
839.597	113.138
839.648	106.97
839.698	114.153
839.749	109.066
839.8	111.504
839.85	113.25
839.901	111.303
839.952	110.024
840.002	104.014
840.053	103.873
840.104	109.624
840.154	105.156
840.205	114.176
840.256	108.554
840.306	105.938
840.357	112.498
840.408	108.639
840.458	106.79
840.509	104.446
840.56	105.148
840.61	107.505
840.661	109.869
840.711	105.979
840.762	103.587
840.813	105.235
840.863	105.74
840.914	110.105
840.965	110.728
841.015	103.888
841.066	110.268
841.117	107.17
841.167	106.635
841.218	105.322
841.269	105.75
841.319	104.554
841.37	102.331
841.421	106.509
841.471	105.9
841.522	104.097
841.573	105.738
841.623	101.526
841.674	109.236
841.724	102.188
841.775	103.406
841.826	113.186
841.876	108.293
841.927	100.053
841.978	105.086
842.028	105.466
842.079	105.253
842.13	105.05
842.18	105.528
842.231	103.84
842.281	98.9177
842.332	110.444
842.383	97.663
842.433	101.998
842.484	104.024
842.535	102.877
842.585	100.721
842.636	101.477
842.687	101.019
842.737	103.474
842.788	98.4242
842.838	101.755
842.889	102.312
842.94	100.926
842.99	99.6602
843.041	102.447
843.092	98.7221
843.142	103.71
843.193	104.702
843.243	100.271
843.294	100.732
843.345	97.9372
843.395	97.1397
843.446	104.045
843.497	101.93
843.547	97.1833
843.598	100.945
843.648	103.787
843.699	103.592
843.75	99.3558
843.8	96.414
843.851	96.9313
843.901	102.954
843.952	102.33
844.003	99.3387
844.053	106.611
844.104	100.501
844.155	92.4554
844.205	102.795
844.256	99.1953
844.306	100.963
844.357	102.245
844.408	99.662
844.458	100.284
844.509	102.299
844.559	101.91
844.61	105.12
844.661	105.476
844.711	104.122
844.762	103.124
844.812	100.964
844.863	101.769
844.914	99.2648
844.964	97.1599
845.015	98.2332
845.065	103.913
845.116	101.718
845.167	99.8411
845.217	95.2884
845.268	96.1507
845.318	93.7571
845.369	93.838
845.42	97.3134
845.47	96.4991
845.521	96.1314
845.571	96.2245
845.622	95.8225
845.673	97.43
845.723	101.643
845.774	94.9443
845.824	94.366
845.875	98.6854
845.926	99.7713
845.976	94.6207
846.027	97.9622
846.077	98.9089
846.128	98.5774
846.178	90.237
846.229	92.3689
846.28	92.1674
846.33	92.8219
846.381	94.0463
846.431	98.7123
846.482	98.7666
846.533	96.0345
846.583	91.3495
846.634	96.8832
846.684	95.2554
846.735	88.9762
846.785	91.8301
846.836	89.4136
846.887	87.9454
846.937	97.4293
846.988	96.8362
847.038	102.281
847.089	101.773
847.139	97.6372
847.19	93.0288
847.241	91.6264
847.291	96.9827
847.342	94.902
847.392	90.6875
847.443	91.8695
847.493	95.1769
847.544	94.7231
847.595	91.2978
847.645	95.2058
847.696	94.1022
847.746	91.0439
847.797	93.9454
847.847	91.8886
847.898	92.538
847.948	91.7013
847.999	96.4258
848.05	93.9214
848.1	90.7631
848.151	94.4107
848.201	94.0342
848.252	94.6083
848.302	89.8662
848.353	95.5518
848.404	96.4288
848.454	93.5589
848.505	94.1024
848.555	91.8417
848.606	95.788
848.656	90.4712
848.707	89.1915
848.757	93.6129
848.808	95.92
848.859	95.2039
848.909	89.5272
848.96	91.1869
849.01	95.9667
849.061	92.0212
849.111	99.2393
849.162	92.222
849.212	90.9387
849.263	93.0721
849.313	94.5986
849.364	86.7454
849.414	94.6803
849.465	96.0209
849.516	88.9004
849.566	85.0633
849.617	93.3071
849.667	91.6715
849.718	91.105
849.768	91.3834
849.819	89.2631
849.869	89.2446
849.92	88.7898
849.97	85.3566
850.021	92.2682
850.071	87.8872
850.122	87.7204
850.173	91.0725
850.223	94.382
850.274	91.6662
850.324	87.1037
850.375	85.5675
850.425	87.3787
850.476	88.9495
850.526	96.4656
850.577	92.5708
850.627	94.5477
850.678	86.9654
850.728	91.8027
850.779	82.834
850.829	83.3649
850.88	83.957
850.93	86.5901
850.981	92.4206
851.031	88.6823
851.082	92.5438
851.133	93.9717
851.183	91.1651
851.234	89.1562
851.284	90.4981
851.335	87.6453
851.385	83.587
851.436	86.0468
851.486	88.725
851.537	92.5888
851.587	89.8212
851.638	82.1754
851.688	84.4228
851.739	82.0351
851.789	82.9116
851.84	82.1235
851.89	85.4865
851.941	91.7157
851.991	81.6717
852.042	86.9242
852.092	89.3501
852.143	86.3904
852.193	79.5013
852.244	77.9995
852.294	81.2892
852.345	87.852
852.395	89.8296
852.446	87.6432
852.496	89.3581
852.547	91.0148
852.597	85.7239
852.648	84.2696
852.698	79.7475
852.749	77.8506
852.799	84.1728
852.85	85.3483
852.9	89.8738
852.951	86.4164
853.001	87.9934
853.052	84.0226
853.102	85.7079
853.153	88.3435
853.203	89.4549
853.254	85.8985
853.304	81.8968
853.355	83.768
853.405	83.3592
853.443	85.0651
853.493	77.7772
853.544	88.486
853.594	81.5707
853.645	79.8191
853.696	84.2032
853.746	78.5881
853.797	78.1956
853.847	84.9981
853.898	80.8526
853.949	86.5544
853.999	82.5158
854.05	85.99
854.1	83.4685
854.151	85.3224
854.202	83.8372
854.252	86.61
854.303	79.8997
854.353	78.9578
854.404	80.1642
854.455	84.1409
854.505	83.6672
854.556	83.2539
854.606	88.0635
854.657	79.8723
854.708	81.5435
854.758	83.5328
854.809	86.4635
854.859	83.389
854.91	80.5032
854.961	83.7319
855.011	84.0192
855.062	81.3029
855.112	75.5423
855.163	79.4116
855.214	85.6137
855.264	81.5441
855.315	74.6546
855.365	75.5097
855.416	78.1821
855.466	83.3096
855.517	79.668
855.568	82.5665
855.618	85.0753
855.669	83.3975
855.719	78.9502
855.77	84.1712
855.821	79.6483
855.871	85.2242
855.922	85.264
855.972	81.2134
856.023	78.2742
856.073	79.5538
856.124	78.3137
856.175	82.211
856.225	82.9308
856.276	78.9033
856.326	80.3177
856.377	81.8914
856.427	86.2886
856.478	78.6135
856.529	79.1377
856.579	80.1011
856.63	78.11
856.68	76.944
856.731	78.179
856.781	82.1018
856.832	82.9505
856.883	77.6445
856.933	79.113
856.984	81.7054
857.034	80.6909
857.085	78.3645
857.135	78.301
857.186	84.837
857.237	86.4857
857.287	78.557
857.338	83.3769
857.388	81.6913
857.439	79.5492
857.489	79.7621
857.54	86.8407
857.59	86.2215
857.641	78.6234
857.692	81.8293
857.742	79.5688
857.793	79.8311
857.843	75.4084
857.894	74.6193
857.944	77.8602
857.995	81.6345
858.045	78.4395
858.096	71.94
858.147	86.5191
858.197	79.1737
858.248	75.0546
858.298	76.5679
858.349	81.5806
858.399	82.0135
858.45	81.3793
858.5	76.1916
858.551	79.4211
858.601	78.9774
858.652	80.55
858.703	79.182
858.753	79.4732
858.804	77.1192
858.854	82.3016
858.905	79.303
858.955	77.9366
859.006	77.4716
859.056	73.5397
859.107	75.6001
859.157	70.2754
859.208	70.4795
859.258	77.7086
859.309	76.1784
859.36	81.2184
859.41	76.72
859.461	64.0912
859.511	76.1982
859.562	82.7045
859.612	72.0332
859.663	76.3928
859.713	68.4185
859.764	77.3957
859.814	71.0889
859.865	71.8807
859.915	75.1111
859.966	82.0605
860.016	78.9768
860.067	80.208
860.117	76.1783
860.168	74.2816
860.219	72.4736
860.269	79.3676
860.32	79.072
860.37	75.5659
860.421	74.8148
860.471	74.6299
860.522	70.7987
860.572	71.6263
860.623	70.9921
860.673	80.3733
860.724	74.7482
860.774	75.9993
860.825	73.2408
860.875	76.9135
860.926	74.1677
860.976	71.0275
861.027	74.4102
861.077	72.4228
861.128	70.4917
861.178	75.0161
861.229	77.877
861.279	78.3926
861.33	71.3878
861.38	74.9029
861.431	73.7
861.481	71.9998
861.532	67.7709
861.582	77.7696
861.633	75.1185
861.683	76.5953
861.734	79.3618
861.784	80.1558
861.835	75.932
861.885	74.6222
861.936	77.5573
861.986	80.9899
862.037	72.6077
862.087	71.4467
862.138	75.5573
862.188	71.9576
862.239	77.5748
862.289	70.7592
862.34	69.8024
862.39	73.1624
862.441	76.7798
862.491	74.2989
862.542	73.568
862.592	71.7141
862.643	76.5737
862.693	67.8575
862.744	69.285
862.794	77.2429
862.845	75.0104
862.895	66.9209
862.946	79.611
862.996	76.527
863.047	75.0224
863.097	70.0991
863.148	78.6231
863.198	78.0585
863.249	69.7102
863.299	76.072
863.35	76.5802
863.4	65.988
863.451	75.7649
863.501	72.6683
863.552	79.9354
863.602	71.3293
863.653	68.0415
863.703	73.3468
863.754	78.9027
863.804	70.7143
863.854	72.9894
863.905	71.017
863.955	75.8971
864.006	73.1669
864.056	67.8394
864.107	70.3191
864.157	67.6892
864.208	70.1896
864.258	71.4863
864.309	70.1828
864.359	79.0745
864.41	68.0839
864.46	72.2722
864.511	69.0686
864.561	75.0843
864.612	76.5809
864.662	70.0747
864.712	67.2524
864.763	70.5428
864.813	73.9908
864.864	70.5067
864.914	66.8791
864.965	72.0147
865.015	72.47
865.066	71.192
865.116	72.4735
865.167	72.8291
865.217	70.7249
865.268	72.0112
865.318	70.7148
865.368	72
865.419	70.5952
865.469	71.0095
865.52	71.3133
865.57	71.6407
865.621	72.1926
865.671	70.304
865.722	72.0573
865.772	73.1855
865.823	66.9548
865.873	66.0709
865.923	68.822
865.974	68.8594
866.024	70.9815
866.075	70.6987
866.125	69.7968
866.176	73.8453
866.226	73.0896
866.276	66.5014
866.327	69.0276
866.377	73.5287
866.428	70.8134
866.478	67.4083
866.529	72.7665
866.579	74.7842
866.63	67.5371
866.68	69.5604
866.73	65.8888
866.781	72.3122
866.831	68.0546
866.882	64.5536
866.932	71.4603
866.983	72.1243
867.033	67.1361
867.083	68.1139
867.134	73.1593
867.184	67.1541
867.235	69.4625
867.285	68.0012
867.336	70.8754
867.386	68.0447
867.436	69.7603
867.487	63.3312
867.537	66.5764
867.588	73.0228
867.638	67.1564
867.689	66.5858
867.739	69.3699
867.789	68.0823
867.84	65.0548
867.89	68.0714
867.941	67.1978
867.991	69.6613
868.042	64.3811
868.092	58.2618
868.142	64.0267
868.193	68.6517
868.243	71.8336
868.294	65.7137
868.344	66.9367
868.394	61.7156
868.445	63.865
868.495	64.8668
868.546	68.4388
868.596	69.459
868.647	65.4962
868.697	64.9283
868.747	64.4167
868.798	65.9075
868.848	66.8603
868.899	65.4537
868.949	69.4045
868.999	66.5535
869.05	62.6008
869.1	63.3397
869.151	65.1254
869.201	66.333
869.251	66.2376
869.302	65.9121
869.352	66.1068
869.403	68.7317
869.453	66.1033
869.503	64.165
869.554	69.9071
869.604	73.1769
869.655	68.4884
869.705	66.104
869.755	69.7301
869.806	64.5917
869.856	59.2846
869.907	69.446
869.957	70.6327
870.007	66.2974
870.058	63.4379
870.108	67.6998
870.159	65.8459
870.209	70.9122
870.259	59.9887
870.31	64.4228
870.36	67.0041
870.41	65.2171
870.461	60.4835
870.511	60.0859
870.562	66.2554
870.612	66.6681
870.662	66.8968
870.713	67.0116
870.731	66.6304
870.782	67.0515
870.832	64.5985
870.883	63.9663
870.933	66.3471
870.984	70.4878
871.034	64.832
871.085	65.5901
871.135	65.2751
871.186	65.9169
871.236	63.2228
871.287	66.2553
871.337	62.3374
871.388	70.8087
871.438	65.0838
871.489	57.9704
871.539	65.8963
871.59	66.5351
871.64	61.7339
871.691	60.2904
871.741	67.0807
871.792	64.4275
871.842	69.3343
871.893	62.5922
871.943	61.4697
871.994	56.3212
872.044	58.595
872.095	60.3093
872.145	67.8301
872.196	63.4856
872.246	61.8554
872.297	56.5629
872.347	67.9769
872.397	63.5536
872.448	67.6879
872.498	65.285
872.549	67.8855
872.599	58.58
872.65	59.0492
872.7	61.9017
872.751	62.7259
872.801	62.0743
872.852	60.0756
872.902	63.4982
872.953	66.8646
873.003	66.0034
873.054	67.0003
873.104	63.6155
873.155	65.1315
873.205	61.393
873.256	60.3361
873.306	56.1712
873.357	58.267
873.407	58.4372
873.458	62.8326
873.508	62.845
873.558	63.6129
873.609	68.4165
873.659	62.0395
873.71	55.0827
873.76	62.0224
873.811	63.916
873.861	61.6814
873.912	58.5465
873.962	60.8991
874.013	59.5585
874.063	52.0441
874.114	62.7016
874.164	61.7813
874.215	61.9798
874.265	62.0087
874.315	65.7057
874.366	64.4484
874.416	59.7608
874.467	53.4007
874.517	54.6983
874.568	64.999
874.618	59.3605
874.669	60.6867
874.719	60.2296
874.77	63.2851
874.82	60.8687
874.87	57.7666
874.921	61.1154
874.971	60.0001
875.022	60.3954
875.072	56.0769
875.123	67.6122
875.173	61.4156
875.224	57.2143
875.274	58.5488
875.324	55.7363
875.375	62.3374
875.425	60.4436
875.476	57.4873
875.526	57.3098
875.577	56.1956
875.627	61.7995
875.678	60.2877
875.728	55.6366
875.779	64.5298
875.829	58.92
875.879	62.4035
875.93	58.6844
875.98	62.8296
876.031	53.1702
876.081	65.4656
876.132	61.7519
876.182	61.9049
876.232	58.665
876.283	61.7219
876.333	62.3601
876.384	65.2195
876.434	56.2004
876.485	60.263
876.535	59.2481
876.585	58.5426
876.636	58.312
876.686	58.0205
876.737	55.9396
876.787	58.0712
876.838	56.0007
876.888	63.3843
876.938	60.1958
876.989	64.6335
877.039	61.376
877.09	62.0612
877.14	65.5936
877.191	53.7769
877.241	51.4122
877.291	59.5309
877.342	59.8964
877.392	59.0088
877.443	58.6172
877.493	61.8983
877.544	57.2087
877.594	59.4746
877.644	60.3631
877.695	58.6761
877.745	57.088
877.796	59.3907
877.846	59.9105
877.896	56.8018
877.947	55.7999
877.997	54.8651
878.048	59.3876
878.098	61.6999
878.148	62.79
878.199	59.1105
878.249	56.2486
878.3	61.2772
878.35	61.3306
878.4	52.8626
878.451	62.2047
878.501	59.5464
878.552	56.6325
878.602	56.6909
878.653	57.6358
878.703	60.2489
878.753	66.8081
878.804	58.2108
878.854	54.8462
878.904	57.5483
878.955	55.52
879.005	57.6492
879.056	49.3838
879.106	56.1695
879.156	56.6501
879.207	53.9997
879.257	55.4439
879.308	59.5329
879.358	57.8913
879.408	58.6551
879.459	60.949
879.509	58.672
879.56	63.1479
879.61	61.747
879.66	59.6062
879.711	59.561
879.761	58.3549
879.812	63.3758
879.862	60.7913
879.912	60.2989
879.963	53.2902
880.013	58.3947
880.063	60.8139
880.114	56.0036
880.164	58.6643
880.215	62.3357
880.265	56.867
880.315	52.3381
880.366	55.6218
880.416	60.0149
880.467	54.5381
880.517	56.1985
880.567	57.344
880.618	57.7504
880.668	57.8966
880.718	53.2412
880.769	62.4467
880.819	48.6081
880.87	58.3881
880.92	57.8218
880.97	62.5399
881.021	53.4871
881.071	55.177
881.121	52.6166
881.172	51.6956
881.222	52.6193
881.273	55.8906
881.323	54.6855
881.373	58.7254
881.424	59.0553
881.474	55.2202
881.524	54.1649
881.575	57.2108
881.625	49.1114
881.675	53.5747
881.726	61.4577
881.776	57.2543
881.826	49.0644
881.877	53.5252
881.927	57.8144
881.978	54.1436
882.028	50.1363
882.078	54.8202
882.129	52.1384
882.179	56.2832
882.229	54.4816
882.28	57.5833
882.33	57.5907
882.38	54.1879
882.431	51.6986
882.481	52.6544
882.531	54.0204
882.582	55.3459
882.632	58.2785
882.682	55.1514
882.733	58.2485
882.783	57.4194
882.834	52.471
882.884	52.9251
882.934	52.6024
882.985	54.172
883.035	59.9577
883.085	56.9833
883.136	57.6957
883.186	59.8947
883.236	53.7584
883.287	51.7586
883.337	54.8611
883.387	52.3892
883.438	49.6394
883.488	52.7623
883.538	52.7768
883.589	50.4242
883.639	48.2685
883.689	50.6411
883.74	52.4776
883.79	51.8123
883.84	50.5583
883.891	51.8466
883.941	54.4759
883.991	52.1085
884.042	52.3376
884.092	50.0632
884.142	50.8269
884.193	52.751
884.243	55.8196
884.293	56.6605
884.344	54.3923
884.394	47.1223
884.444	52.54
884.495	53.8873
884.545	53.1486
884.595	49.4229
884.646	53.2729
884.696	53.046
884.746	50.3137
884.797	51.6065
884.847	54.6996
884.897	53.4589
884.947	55.5743
884.998	50.4995
885.048	53.8282
885.098	55.8753
885.149	56.501
885.199	52.3504
885.249	48.7153
885.3	50.0671
885.35	51.1561
885.4	52.5108
885.451	54.7617
885.501	56.256
885.551	53.8949
885.602	51.3828
885.652	53.2273
885.702	55.0922
885.752	53.8238
885.803	50.2422
885.853	47.9233
885.903	51.7579
885.954	53.3533
886.004	52.8768
886.054	53.5329
886.105	54.4751
886.155	54.6886
886.205	53.1679
886.255	54.1509
886.306	54.5431
886.356	52.4694
886.406	48.7202
886.457	46.2037
886.507	59.1252
886.557	56.6804
886.608	52.0082
886.658	48.0371
886.708	51.316
886.758	49.5704
886.809	52.3105
886.859	49.3191
886.909	51.3899
886.96	50.4396
887.01	48.3882
887.06	50.1974
887.11	49.7694
887.161	49.1079
887.211	51.9739
887.261	51.7505
887.312	50.6057
887.362	50.1522
887.412	50.5233
887.462	50.6141
887.513	52.8345
887.563	49.2142
887.613	54.2572
887.664	51.1574
887.714	52.9775
887.764	48.1749
887.814	50.2066
887.865	49.6102
887.915	53.8757
887.965	50.5606
887.987	51.0088
888.038	51.2541
888.088	52.0236
888.138	53.6193
888.189	50.3352
888.239	51.0321
888.289	50.3254
888.34	53.8386
888.39	54.1064
888.441	51.7812
888.491	55.0552
888.542	50.1153
888.592	48.1415
888.642	50.6658
888.693	51.5221
888.743	48.3996
888.793	50.2899
888.844	52.0734
888.894	54.369
888.945	54.7991
888.995	53.0082
889.045	50.515
889.096	54.2704
889.146	52.639
889.197	48.3896
889.247	49.2358
889.297	51.2947
889.348	56.3057
889.398	47.2522
889.448	47.2186
889.499	46.6385
889.549	48.4774
889.6	45.2363
889.65	46.5114
889.7	52.8732
889.751	51.532
889.801	49.1002
889.851	46.8787
889.902	52.1049
889.952	49.2278
890.003	47.9057
890.053	47.5101
890.103	50.8259
890.154	54.5767
890.204	48.3348
890.254	54.2715
890.305	53.3132
890.355	52.5724
890.406	41.7579
890.456	45.6609
890.506	55.6058
890.557	51.2257
890.607	50.5048
890.657	52.6557
890.708	51.824
890.758	48.831
890.808	52.7008
890.859	45.8517
890.909	51.7664
890.96	50.4171
891.01	48.1404
891.06	48.2114
891.111	48.9878
891.161	46.3061
891.211	47.824
891.262	48.594
891.312	51.2057
891.362	50.6261
891.413	48.5149
891.463	42.4201
891.513	49.5474
891.564	45.6602
891.614	50.0437
891.665	46.2135
891.715	48.7741
891.765	49.5011
891.816	52.6302
891.866	46.7438
891.916	50.8697
891.967	46.6317
892.017	51.7069
892.067	49.1007
892.118	54.5383
892.168	46.5589
892.218	48.7732
892.269	52.3051
892.319	51.2626
892.369	46.8589
892.42	48.2453
892.47	50.4244
892.52	50.7166
892.571	45.1689
892.621	49.2012
892.671	51.0992
892.722	50.5118
892.772	46.4115
892.822	45.5919
892.873	48.8695
892.923	51.4196
892.973	47.4944
893.024	49.4675
893.074	51.6827
893.124	48.5107
893.175	47.735
893.225	45.3313
893.275	47.9318
893.326	46.2718
893.376	44.4592
893.426	48.1111
893.477	49.8426
893.527	44.3147
893.577	45.717
893.628	45.0901
893.678	50.8479
893.728	47.7095
893.779	45.3735
893.829	45.0189
893.879	47.384
893.93	46.2175
893.98	44.9746
894.03	44.8525
894.081	48.1564
894.131	44.6324
894.181	44.1413
894.232	46.1071
894.282	50.8638
894.332	43.934
894.383	42.0062
894.433	48.3051
894.483	51.3494
894.533	46.3854
894.584	37.619
894.634	46.4189
894.684	47.8368
894.735	45.0387
894.785	47.5085
894.835	43.4472
894.886	49.6634
894.936	47.9807
894.986	45.8475
895.037	46.6616
895.087	47.2493
895.137	46.2539
895.188	47.3033
895.238	46.0397
895.288	49.371
895.338	41.0004
895.389	44.7426
895.439	46.5097
895.489	44.9872
895.54	46.7939
895.59	46.9045
895.64	48.4796
895.69	50.5631
895.741	42.5941
895.791	44.0601
895.841	46.2763
895.892	48.4113
895.942	44.9343
895.992	48.9148
896.043	48.9752
896.093	46.4503
896.143	41.7943
896.193	46.8004
896.244	48.9038
896.294	47.3428
896.344	46.7334
896.395	43.7215
896.445	48.4865
896.495	49.1687
896.545	47.6513
896.596	41.9977
896.646	49.3686
896.696	45.8374
896.747	41.4873
896.797	42.4457
896.847	46.9081
896.897	44.1751
896.948	45.4075
896.998	46.3115
897.048	46.3438
897.099	45.5814
897.149	45.4245
897.199	42.8093
897.249	46.8978
897.3	46.619
897.35	44.2644
897.4	41.3511
897.451	43.3855
897.501	43.9936
897.551	43.5139
897.601	38.9701
897.652	45.888
897.702	48.2123
897.752	42.1216
897.802	47.3134
897.853	49.0294
897.903	45.1923
897.953	43.6241
898.003	46.6421
898.054	49.1037
898.104	46.9493
898.154	43.4933
898.204	39.5261
898.255	48.3658
898.305	46.7322
898.355	41.2982
898.406	39.3595
898.456	46.5136
898.506	43.5277
898.556	41.431
898.607	42.0769
898.657	42.6691
898.707	39.4423
898.757	44.5161
898.808	44.6293
898.858	45.8073
898.908	48.1612
898.958	46.1622
899.009	42.0039
899.059	48.3292
899.109	43.4563
899.159	45.1445
899.21	43.7573
899.26	44.5466
899.31	47.0121
899.36	35.6016
899.411	48.8539
899.461	48.0608
899.511	42.2948
899.561	43.9977
899.612	45.8803
899.662	46.0156
899.712	47.0796
899.762	39.5874
899.813	44.8544
899.863	44.3543
899.913	43.6405
899.963	44.6667
