#Acq. time (s)=	2
#Accumulations=	3
#Range (nm)=	520...900
#Windows=	24
#Auto scanning=	On
#Autofocus=	Off
#AutoExposure=	Off
#Spike filter=	Multiple accum.
#Delay time (s)=	0
#Binning=	1
#Readout mode=	Signal
#DeNoise=	Off
#ICS correction=	Off
#Dark correction=	Off
#Inst. Process=	Off
#Detector temperature (°C)=	-59.98
#Instrument=	LabRAM HR Evol
#Detector=	Syncerity OE
#Objective=	x50_VIS
#Grating=	600 (500nm)
#ND Filter=	10%
#Laser=	514nm_Edge
#Hole=	199.981
#Range=	Auto
#StageXY=	Marzhauser
#StageZ=	Marzhauser
#X (µm)=	14714.6
#Y (µm)=	2789.2
#Z (µm)=	-16.6
#Full time(mm:ss)=	3:04
#Project=	
#Sample=	
#Site=	
#Title=	M5_140224
#Remark=	
#Date=	19.02.2024 14:27
#Acquired=	19.02.2024 14:27:01
520.013	29.1796
520.065	27.1835
520.117	27.5563
520.17	30.4701
520.222	29.5097
520.274	29.324
520.327	26.4134
520.379	26.5035
520.431	25.6604
520.483	24.7637
520.536	27.4771
520.588	30.3279
520.64	29.7599
520.693	29.9814
520.745	24.0761
520.797	26.7817
520.85	27.4281
520.902	27.9208
520.954	26.2662
521.007	28.8322
521.059	28.9959
521.111	26.1647
521.163	21.9323
521.216	28.879
521.268	22.201
521.32	28.8393
521.373	27.5346
521.425	28.7336
521.477	25.2757
521.529	27.4376
521.582	28.4529
521.634	26.3115
521.686	26.3153
521.739	29.3636
521.791	22.4714
521.843	31.8264
521.896	29.3113
521.948	29.5556
522	29.0014
522.052	26.499
522.105	27.1639
522.157	33.0915
522.209	27.4435
522.262	29.9949
522.314	25.6389
522.366	27.175
522.418	26.906
522.471	25.219
522.523	23.4063
522.575	26.8909
522.628	28.7054
522.68	30.9224
522.732	25.4932
522.784	28.5734
522.837	30.5828
522.889	26.8565
522.941	29.5682
522.994	23.309
523.046	25.0707
523.098	28.1868
523.15	29.79
523.203	28.0289
523.255	28.5681
523.307	28.5702
523.36	26.7884
523.412	28.1467
523.464	28.8601
523.516	24.5625
523.569	19.6515
523.621	24.4447
523.673	28.4263
523.726	31.3333
523.778	29.1584
523.83	26.102
523.882	29.4038
523.935	30.959
523.987	26.6916
524.039	22.6427
524.091	27.2274
524.144	28.9989
524.196	30.1679
524.248	25.2925
524.301	28.4802
524.353	27.5091
524.405	31.2976
524.457	26.7686
524.51	27.2588
524.562	30.8176
524.614	30.3832
524.666	27.5702
524.719	29.5848
524.771	31.2448
524.823	30.0489
524.875	28.3217
524.928	30.1917
524.98	31.4934
525.032	28.683
525.085	26.9761
525.137	27.6737
525.189	31.1523
525.241	30.3603
525.294	28.7763
525.346	31.6861
525.398	29.2477
525.45	29.1341
525.503	26.9984
525.555	27.1234
525.607	31.397
525.659	26.9348
525.712	28.8529
525.764	31.0917
525.816	26.5625
525.868	25.9575
525.921	29.2487
525.973	30.6539
526.025	29.0776
526.077	31.1854
526.13	27.6328
526.182	31.4773
526.234	27.6014
526.286	26.0682
526.339	28.3854
526.391	30.9768
526.443	25.9495
526.495	26.7704
526.548	28.6449
526.6	29.6263
526.652	27.8112
526.704	27.4033
526.757	30.6667
526.809	28.9797
526.861	29.4592
526.913	29.414
526.966	31.457
527.018	33.1624
527.07	30.3236
527.122	26.3768
527.175	24.728
527.227	29.9424
527.279	28.1918
527.331	26.5828
527.384	29.8256
527.436	29.1884
527.488	30.4289
527.54	26.4952
527.593	27.155
527.645	31.8951
527.697	30.52
527.749	26.0833
527.802	27.8567
527.854	30.4553
527.906	28.3261
527.958	24.849
528.011	28.5415
528.063	28.7493
528.115	30.9422
528.167	29.1286
528.219	30.3112
528.272	28.1654
528.324	24.6629
528.376	23.4258
528.428	29.4247
528.481	30.8591
528.533	27.7284
528.585	28.033
528.637	26.6134
528.69	28.651
528.742	29.5618
528.794	25.1197
528.846	30.7031
528.898	31.4124
528.951	28.1797
529.003	27.6045
529.055	27.0811
529.107	28.3942
529.16	29.1204
529.212	28.846
529.264	27.4224
529.316	29.2161
529.369	26.9465
529.421	20.9462
529.473	26.1684
529.525	26.9939
529.577	25.4251
529.63	26.0127
529.682	30.812
529.734	33.0157
529.786	27.1177
529.839	26.9169
529.891	30.7323
529.943	29.6876
529.995	31.5804
530.047	27.6674
530.1	33.3692
530.152	30.2733
530.204	28.3722
530.256	28.7917
530.308	31.8647
530.361	31.283
530.413	31.2854
530.465	31.3234
530.517	30.27
530.57	30.7666
530.622	28.6621
530.674	27.1123
530.726	30.9432
530.778	30.9962
530.831	28.9364
530.883	29.1556
530.935	32.667
530.987	29.2784
531.039	27.6206
531.092	26.4343
531.144	29.3286
531.196	26.6893
531.248	24.0789
531.3	27.9353
531.353	27.6339
531.405	26.6056
531.457	26.8802
531.509	30.4065
531.561	30.7047
531.614	28.5927
531.666	24.4133
531.718	27.4104
531.77	26.6324
531.822	28.4028
531.875	27.5363
531.927	30.9509
531.979	30.2403
532.031	29.7605
532.083	27.001
532.136	29.1711
532.188	31.9317
532.24	28.0029
532.292	26.9164
532.344	28.2256
532.397	30.4508
532.449	31.1384
532.501	29.2495
532.553	27.8018
532.605	34.1686
532.658	29.2543
532.71	30.8332
532.762	30.7103
532.814	32.0679
532.866	28.8391
532.919	27.8299
532.971	30.8851
533.023	33.7301
533.075	32.3119
533.127	28.6069
533.179	28.6516
533.232	33.7486
533.284	30.617
533.336	34.5975
533.388	29.4571
533.44	32.4899
533.493	29.7007
533.545	30.735
533.597	36.2447
533.649	34.2221
533.701	32.0499
533.753	28.5483
533.806	35.5195
533.858	31.6374
533.91	27.422
533.962	34.8295
534.014	36.528
534.067	40.7595
534.119	34.8335
534.171	37.4505
534.223	37.9537
534.275	39.052
534.327	37.3032
534.38	37.5232
534.432	37.6447
534.484	41.106
534.536	38.8456
534.588	46.9495
534.641	44.2202
534.693	47.0635
534.745	46.718
534.797	43.5706
534.849	48.3724
534.901	50.8009
534.953	46.6723
535.006	53.4585
535.058	51.4133
535.11	55.7649
535.162	54.3887
535.214	52.7508
535.267	59.5678
535.319	47.1288
535.371	44.5936
535.423	53.031
535.475	54.0159
535.527	45.1998
535.58	45.404
535.632	47.4271
535.684	47.1875
535.736	41.9326
535.788	37.4276
535.84	43.1013
535.892	42.0971
535.945	35.8992
535.997	37.8937
536.049	42.9256
536.101	39.9008
536.153	36.7912
536.205	35.3008
536.258	37.2245
536.31	40.1287
536.362	35.7795
536.414	34.617
536.466	36.9901
536.518	36.0865
536.57	36.3324
536.623	32.6666
536.675	38.3679
536.727	34.9558
536.779	34.8322
536.831	32.2444
536.883	32.9777
536.936	33.0625
536.988	31.3893
537.04	28.5943
537.092	35.1075
537.144	35.6789
537.196	37.6861
537.248	38.4973
537.301	34.0968
537.353	35.7301
537.405	30.5032
537.457	33.1924
537.509	33.146
537.561	34.658
537.613	34.6787
537.666	30.8267
537.718	35.352
537.77	35.2679
537.778	34.4518
537.831	26.7027
537.883	31.1488
537.935	36.9169
537.987	37.2953
538.04	35.1062
538.092	31.7398
538.144	29.7361
538.196	39.4672
538.249	33.4012
538.301	36.7054
538.353	30.116
538.405	36.8531
538.457	32.6014
538.51	33.0279
538.562	31.7827
538.614	31.2505
538.666	33.0441
538.719	32.6843
538.771	37.0757
538.823	36.0585
538.875	25.0782
538.927	35.9156
538.98	34.3686
539.032	30.4645
539.084	34.9592
539.136	33.3497
539.189	40.7052
539.241	37.78
539.293	29.1743
539.345	33.0921
539.397	33.5456
539.45	30.6232
539.502	29.3362
539.554	33.9597
539.606	34.9982
539.659	34.7301
539.711	30.2463
539.763	32.2976
539.815	36.1523
539.867	30.1106
539.92	31.4704
539.972	33.0967
540.024	37.296
540.076	34.2589
540.128	31.4604
540.181	31.0842
540.233	31.5763
540.285	33.3423
540.337	31.0428
540.39	30.6189
540.442	39.1391
540.494	31.4674
540.546	28.5287
540.598	33.8357
540.651	39.3224
540.703	32.5102
540.755	27.8992
540.807	33.802
540.859	34.3037
540.912	28.8608
540.964	34.9911
541.016	34.3889
541.068	36.6647
541.12	36.0401
541.173	37.2434
541.225	35.9605
541.277	30.092
541.329	34.2373
541.381	39.5999
541.434	32.4418
541.486	43.5806
541.538	33.8031
541.59	34.0157
541.642	35.4056
541.695	37.1018
541.747	34.763
541.799	35.0251
541.851	38.7228
541.903	40.3721
541.956	34.1002
542.008	32.3407
542.06	36.959
542.112	34.8523
542.164	33.2276
542.217	36.5783
542.269	33.7422
542.321	33.4331
542.373	34.8426
542.425	37.6642
542.478	34.1606
542.53	35.3384
542.582	36.0382
542.634	33.5872
542.686	33.8865
542.738	36.7296
542.791	38.4188
542.843	31.8269
542.895	33.4334
542.947	37.5023
542.999	35.8076
543.052	33.9313
543.104	40.2811
543.156	36.4892
543.208	30.6659
543.26	32.9685
543.313	40.7012
543.365	37.3575
543.417	34.7327
543.469	37.7799
543.521	36.2673
543.573	37.9594
543.626	36.159
543.678	38.3401
543.73	37.9573
543.782	37.1429
543.834	34.3254
543.886	40.8995
543.939	36.2795
543.991	38.4025
544.043	38.3358
544.095	37.9349
544.147	36.7095
544.2	37.2928
544.252	33.9669
544.304	32.4801
544.356	38.3768
544.408	42.9957
544.46	31.8883
544.513	39.6131
544.565	41.1727
544.617	41.3507
544.669	36.9112
544.721	34.5829
544.773	39.0076
544.826	38.8759
544.878	34.2692
544.93	41.354
544.982	42.5826
545.034	35.6317
545.086	41.6411
545.139	38.9071
545.191	43.6269
545.243	40.0701
545.295	41.5505
545.347	38.4398
545.399	40.8096
545.452	37.9441
545.504	38.1057
545.556	37.7934
545.608	36.8949
545.66	34.8276
545.712	41.0993
545.765	38.7887
545.817	39.8848
545.869	39.5522
545.921	39.0696
545.973	31.9759
546.025	38.7533
546.077	37.7414
546.13	39.5871
546.182	41.8276
546.234	44.0497
546.286	34.8067
546.338	39.5151
546.39	39.0717
546.443	45.1788
546.495	41.723
546.547	40.7897
546.599	39.0294
546.651	37.8163
546.703	39.8251
546.755	41.3455
546.808	35.3497
546.86	39.7959
546.912	41.7885
546.964	38.7639
547.016	40.5699
547.068	40.2483
547.12	38.1842
547.173	41.1773
547.225	44.776
547.277	40.5594
547.329	36.9426
547.381	41.0899
547.433	40.6266
547.485	40.3349
547.538	37.2835
547.59	37.6204
547.642	34.571
547.694	41.2863
547.746	40.1659
547.798	42.7294
547.85	42.0725
547.903	39.8956
547.955	40.4573
548.007	36.9298
548.059	43.6255
548.111	40.3642
548.163	46.4567
548.215	40.3474
548.268	41.0353
548.32	42.7483
548.372	37.9922
548.424	37.5157
548.476	39.9458
548.528	38.4206
548.58	41.8354
548.633	40.6201
548.685	35.2132
548.737	40.2468
548.789	40.035
548.841	40.1064
548.893	38.0859
548.945	34.8712
548.997	40.1576
549.049	44.2113
549.102	40.8587
549.154	44.9086
549.206	41.7303
549.258	41.5507
549.31	47.7934
549.362	47.1928
549.414	47.2383
549.467	41.9509
549.519	46.0814
549.571	41.5254
549.623	42.526
549.675	42.4246
549.727	46.8641
549.779	43.5857
549.831	46.2851
549.883	45.6526
549.936	45.1207
549.988	44.6225
550.04	43.0452
550.092	38.7194
550.144	41.0706
550.196	41.5253
550.248	39.0863
550.3	44.1352
550.353	39.7832
550.405	47.8655
550.457	47.9847
550.509	39.9651
550.561	44.8613
550.613	43.5574
550.665	47.4986
550.717	50.1161
550.769	49.2295
550.822	46.0091
550.874	44.0137
550.926	44.5119
550.978	45.4346
551.03	48.2045
551.082	52.7315
551.134	48.0493
551.186	50.953
551.238	49.8447
551.291	49.1432
551.343	53.0581
551.395	54.201
551.447	52.8473
551.499	55.3272
551.551	50.9424
551.603	53.7838
551.655	57.1003
551.707	62.3499
551.759	57.5859
551.812	59.4209
551.864	65.5315
551.916	66.485
551.968	72.8106
552.02	76.1542
552.072	84.8726
552.124	86.1407
552.176	95.1905
552.228	104.424
552.28	129.001
552.332	188.996
552.385	298.648
552.437	641.284
552.489	1290.62
552.541	2320.73
552.593	3888.83
552.645	5401.4
552.697	5540.2
552.749	3847.37
552.801	1870.72
552.853	716.568
552.905	308.645
552.958	190.822
553.01	144.22
553.062	110.856
553.114	93.8621
553.166	81.6491
553.218	76.5656
553.27	72.6959
553.322	69.1485
553.374	69.1177
553.426	65.6977
553.478	63.4558
553.531	65.0073
553.583	61.3188
553.635	61.4693
553.687	59.1276
553.739	57.2169
553.791	54.4111
553.843	49.217
553.895	54.0096
553.947	54.0679
553.999	56.4741
554.051	49.8518
554.103	51.2485
554.155	49.6683
554.208	44.8168
554.26	47.9441
554.312	51.2794
554.364	51.9446
554.416	50.3527
554.468	49.4157
554.52	49.5345
554.572	49.8637
554.624	50.5048
554.676	50.7466
554.728	49.732
554.78	50.8426
554.832	49.4383
554.884	51.7987
554.937	54.5646
554.989	51.8125
555.041	50.0383
555.093	49.8421
555.145	46.8562
555.197	48.0826
555.249	50.6799
555.301	50.4142
555.353	48.093
555.405	48.8748
555.457	48.271
555.509	50.5787
555.529	52.8754
555.582	49.9743
555.634	51.9403
555.686	45.1509
555.738	49.8511
555.79	48.144
555.842	52.076
555.895	49.0307
555.947	48.9724
555.999	48.904
556.051	48.0106
556.103	54.6747
556.155	50.0624
556.207	48.2171
556.26	45.6855
556.312	50.8817
556.364	46.9684
556.416	49.0232
556.468	51.9822
556.52	51.9715
556.573	57.4757
556.625	53.5682
556.677	52.1489
556.729	52.6883
556.781	52.8419
556.833	57.4196
556.885	53.0398
556.938	48.7235
556.99	55.32
557.042	53.5388
557.094	51.8528
557.146	61.3449
557.198	49.3854
557.25	55.114
557.302	50.9714
557.355	48.4325
557.407	55.5266
557.459	53.5129
557.511	59.7611
557.563	56.252
557.615	54.4448
557.667	49.2179
557.72	50.9689
557.772	56.6891
557.824	59.2924
557.876	50.9963
557.928	53.5984
557.98	54.3968
558.032	49.4107
558.085	56.0883
558.137	49.3387
558.189	49.9978
558.241	55.419
558.293	55.7989
558.345	57.0408
558.397	56.0369
558.449	46.4242
558.502	56.5849
558.554	59.0412
558.606	53.1238
558.658	63.0606
558.71	54.417
558.762	53.4048
558.814	57.9711
558.866	56.3295
558.919	58.9964
558.971	52.0911
559.023	59.8479
559.075	51.0234
559.127	57.2091
559.179	47.5437
559.231	55.0366
559.283	57.9576
559.336	58.6459
559.388	56.8913
559.44	53.306
559.492	59.8104
559.544	60.3666
559.596	60.6874
559.648	57.2477
559.7	55.1515
559.753	55.46
559.805	52.4609
559.857	52.1616
559.909	60.691
559.961	58.3906
560.013	58.603
560.065	59.1128
560.117	57.1091
560.169	57.2873
560.222	64.0743
560.274	59.1552
560.326	55.1472
560.378	51.3849
560.43	55.1996
560.482	59.8589
560.534	63.9194
560.586	63.7539
560.638	59.8319
560.69	56.4119
560.743	61.943
560.795	62.9632
560.847	62.1012
560.899	60.8566
560.951	57.2991
561.003	63.1525
561.055	61.8251
561.107	60.8559
561.159	60.3278
561.212	62.6539
561.264	56.6561
561.316	64.2044
561.368	63.2767
561.42	63.9598
561.472	58.103
561.524	59.8638
561.576	63.1363
561.628	58.2448
561.68	59.6786
561.733	59.7693
561.785	63.0072
561.837	63.922
561.889	60.1449
561.941	63.203
561.993	64.4439
562.045	63.8423
562.097	64.164
562.149	68.8213
562.201	64.1624
562.253	60.6607
562.306	60.4788
562.358	59.928
562.41	65.5952
562.462	63.8966
562.514	64.5082
562.566	64.5077
562.618	68.4241
562.67	67.4178
562.722	63.5619
562.774	61.8681
562.826	67.2093
562.879	66.8461
562.931	70.519
562.983	70.1223
563.035	67.7711
563.087	64.7202
563.139	69.2182
563.191	74.0908
563.243	70.045
563.295	74.1535
563.347	69.0247
563.399	71.5022
563.451	69.9417
563.504	62.0754
563.556	63.1919
563.608	68.6236
563.66	73.3448
563.712	67.1238
563.764	70.6084
563.816	70.7784
563.868	67.1705
563.92	66.1569
563.972	70.6174
564.024	69.022
564.076	72.8466
564.128	70.8504
564.181	71.5985
564.233	68.6756
564.285	72.0876
564.337	72.7916
564.389	70.7141
564.441	70.1371
564.493	74.3214
564.545	73.1777
564.597	74.5829
564.649	71.6806
564.701	71.2059
564.753	68.5203
564.805	71.3981
564.857	71.0758
564.909	71.2451
564.962	76.4639
565.014	74.5357
565.066	74.4968
565.118	72.249
565.17	72.8979
565.222	72.0402
565.274	74.8957
565.326	75.1644
565.378	70.898
565.43	72.7014
565.482	77.7889
565.534	73.9384
565.586	70.8418
565.638	80.4169
565.69	76.7626
565.742	72.6254
565.795	74.4881
565.847	73.4553
565.899	72.4277
565.951	73.0033
566.003	77.806
566.055	80.2842
566.107	81.9313
566.159	78.6664
566.211	76.6146
566.263	73.5608
566.315	78.335
566.367	76.2618
566.419	77.4078
566.471	75.8057
566.523	75.0383
566.575	79.8003
566.627	79.3789
566.679	78.3977
566.732	83.3827
566.784	82.6292
566.836	80.2452
566.888	81.5344
566.94	84.1811
566.992	84.6695
567.044	78.2823
567.096	81.8285
567.148	84.1005
567.2	85.7244
567.252	84.1374
567.304	85.8713
567.356	87.6714
567.408	81.7011
567.46	82.2852
567.512	83.4748
567.564	85.7447
567.616	82.9374
567.668	84.4291
567.72	85.2509
567.772	80.338
567.824	78.7571
567.876	80.7631
567.928	83.8376
567.98	83.4608
568.033	86.1922
568.085	86.501
568.137	81.0834
568.189	81.3829
568.241	86.7622
568.293	80.4463
568.345	82.8951
568.397	85.7295
568.449	85.3454
568.501	86.4225
568.553	85.1896
568.605	87.6091
568.657	87.8567
568.709	91.0952
568.761	90.437
568.813	88.5712
568.865	92.1659
568.917	90.3138
568.969	85.7757
569.021	83.9005
569.073	88.6628
569.125	87.0545
569.177	88.1014
569.229	87.4112
569.281	88.483
569.333	86.1311
569.385	89.1201
569.437	90.1277
569.489	87.2457
569.541	91.0775
569.593	94.9953
569.645	93.277
569.697	94.4701
569.749	89.5857
569.801	92.642
569.853	93.6973
569.905	88.9686
569.957	91.4746
570.009	92.0474
570.061	98.1148
570.113	100.432
570.165	95.7507
570.217	99.2768
570.269	97.668
570.321	91.6725
570.374	94.1904
570.426	97.9171
570.478	98.8225
570.53	102.169
570.582	99.0507
570.634	94.475
570.686	90.9613
570.738	96.1064
570.79	102.114
570.842	106.526
570.894	103.472
570.946	104.249
570.998	107.854
571.05	104.897
571.102	104.868
571.154	101.115
571.206	99.421
571.258	107.545
571.31	106.996
571.362	108.137
571.414	107.574
571.466	109.356
571.518	117.184
571.57	114.111
571.622	111.557
571.674	114.926
571.726	112.545
571.778	114.342
571.83	111.008
571.882	118.74
571.934	122.89
571.986	118.049
572.038	115.346
572.09	114.82
572.142	122.779
572.194	127.552
572.246	123.469
572.298	121.098
572.349	122.715
572.401	126.219
572.453	128.433
572.505	133.684
572.557	128.045
572.609	124.02
572.661	127.771
572.713	131.315
572.765	133.558
572.817	132.23
572.869	135.897
572.921	133.268
572.973	134.72
573.025	142.503
573.077	135.138
573.129	143.517
573.181	144.353
573.212	143.751
573.264	143.238
573.316	148.842
573.368	152.285
573.421	157.374
573.473	156.157
573.525	154.609
573.577	155.165
573.629	153.022
573.681	161.533
573.733	167.793
573.785	166.814
573.837	164.527
573.889	163.35
573.941	165.272
573.993	173.374
574.045	175.344
574.097	186.306
574.15	184.583
574.202	184.855
574.254	189.092
574.306	190.939
574.358	188.534
574.41	197.555
574.462	198.759
574.514	197.829
574.566	201.48
574.618	206.409
574.67	213.248
574.722	211.442
574.774	212.33
574.826	213.085
574.878	222.656
574.931	225.915
574.983	237.188
575.035	233.063
575.087	233.272
575.139	231.894
575.191	232.674
575.243	240.694
575.295	246.195
575.347	242.236
575.399	249.925
575.451	244.132
575.503	247.627
575.555	251.092
575.607	249.878
575.659	260.653
575.711	266.21
575.763	258.565
575.815	259.318
575.868	264.73
575.92	262.197
575.972	271.146
576.024	258.824
576.076	261.159
576.128	260.63
576.18	257.682
576.232	265.046
576.284	258.554
576.336	256.757
576.388	258.444
576.44	256.795
576.492	250.853
576.544	250.818
576.596	243.407
576.648	245.131
576.7	247.556
576.752	240.423
576.804	239.889
576.856	238.211
576.909	234.828
576.961	232.404
577.013	234.037
577.065	236.586
577.117	226.007
577.169	225.368
577.221	213.309
577.273	213.858
577.325	215.773
577.377	212.392
577.429	211.381
577.481	213.778
577.533	214.083
577.585	206.16
577.637	206.327
577.689	207.457
577.741	203.025
577.793	206.209
577.845	194.903
577.897	190.464
577.949	190.424
578.001	189.698
578.053	184.578
578.105	191.241
578.157	190.461
578.209	194.468
578.261	192.348
578.313	182.697
578.365	179.123
578.417	176.516
578.469	180.355
578.522	173.103
578.574	187.842
578.626	177.844
578.678	169.488
578.73	179.948
578.782	172.513
578.834	179.496
578.886	171.327
578.938	174.133
578.99	170.554
579.042	168.759
579.094	178.249
579.146	166.885
579.198	170.372
579.25	167.285
579.302	169.768
579.354	165.699
579.406	170.798
579.458	170.338
579.51	166.991
579.562	168.715
579.614	178.131
579.666	174.391
579.718	171.097
579.77	172.884
579.822	172.884
579.874	170.982
579.926	168.792
579.978	174.044
580.03	171.582
580.082	161.942
580.134	167.312
580.186	165.776
580.238	169.43
580.29	173.392
580.342	173.192
580.394	169.91
580.446	165.888
580.498	163.618
580.55	172.028
580.602	172.008
580.654	169.274
580.706	172.993
580.758	174.803
580.81	172.772
580.862	169.047
580.914	167.601
580.966	167.231
581.018	175.08
581.07	174.785
581.122	175.026
581.174	174.788
581.226	173.447
581.278	180.286
581.33	176.048
581.382	175.196
581.434	175.319
581.486	178.979
581.538	184.955
581.59	179.057
581.642	178.972
581.694	174.561
581.746	175.514
581.798	181.25
581.85	178.528
581.902	177.092
581.954	176.461
582.006	183.911
582.058	181.409
582.11	183.183
582.162	181.065
582.214	184.561
582.266	181.826
582.318	182.17
582.37	182.469
582.422	184.774
582.474	185.674
582.526	185.978
582.578	184
582.63	181.023
582.682	175.81
582.734	179.654
582.786	183.957
582.838	182.994
582.89	184.21
582.942	185.788
582.994	188.61
583.046	193.77
583.098	193.465
583.15	188.978
583.202	188.013
583.254	193.568
583.306	195.847
583.358	185.88
583.41	188.231
583.462	191.173
583.514	196.08
583.566	200.155
583.618	193.442
583.67	195.5
583.721	194.966
583.773	195.164
583.825	194.592
583.877	197.184
583.929	200.874
583.981	201.512
584.033	196.874
584.085	200.53
584.137	204.083
584.189	200.563
584.241	202.542
584.293	204.069
584.345	207.356
584.397	206.385
584.449	206.635
584.501	200.599
584.553	207.405
584.605	212.319
584.657	220.43
584.709	217.341
584.761	209.036
584.813	211.199
584.865	210.948
584.917	218.343
584.969	213.439
585.021	206.889
585.073	211.488
585.125	214.435
585.177	219.563
585.229	218.925
585.281	216.25
585.332	220.18
585.384	214.928
585.436	212.562
585.488	220.548
585.54	217.18
585.592	222.271
585.644	220.013
585.696	219.913
585.748	215.363
585.8	219.711
585.852	224.038
585.904	222.785
585.956	220.156
586.008	224.058
586.06	225.17
586.112	222.373
586.164	226.47
586.216	227.713
586.268	236.091
586.32	234.204
586.371	233.553
586.423	231.129
586.475	225.706
586.527	227.533
586.579	234.73
586.631	233.634
586.683	231.616
586.735	228.609
586.787	230.881
586.839	234.564
586.891	232.697
586.943	236.649
586.995	235.211
587.047	228.208
587.099	234.799
587.151	229.67
587.203	240.72
587.255	241.096
587.306	234.289
587.358	224.389
587.41	230.423
587.462	240.362
587.514	237.597
587.566	235.782
587.618	232.419
587.67	228.052
587.722	237.335
587.774	232.179
587.826	236.689
587.878	240.653
587.93	240.899
587.982	231.015
588.034	235.435
588.085	234.988
588.137	237.669
588.189	242.085
588.241	238.419
588.293	233.018
588.345	241.968
588.397	243.337
588.449	243.7
588.501	248.891
588.553	245.854
588.605	249.357
588.657	252.051
588.709	247.809
588.76	248.014
588.812	240.044
588.864	235.844
588.916	234.909
588.968	246.048
589.02	252.307
589.072	244.709
589.124	250.94
589.176	261.037
589.228	262.571
589.28	255.935
589.332	249.853
589.383	249.093
589.435	260.487
589.487	256.594
589.539	249.373
589.591	253.647
589.643	255.919
589.695	258.995
589.747	260.223
589.799	255.171
589.851	260.443
589.903	251.367
589.955	252.574
590.006	245.899
590.058	247.07
590.11	250.193
590.162	244.391
590.214	253.355
590.266	247.839
590.318	246.629
590.37	247.455
590.422	246.368
590.474	247.755
590.525	245.457
590.577	239.359
590.629	245.819
590.681	252.912
590.733	262.16
590.785	261.982
590.837	252.124
590.889	251.235
590.932	242.027
590.984	240.03
591.036	245.764
591.088	249.856
591.14	247.991
591.192	248.093
591.244	236.11
591.296	237.098
591.348	244.942
591.4	242.728
591.452	237.489
591.504	237.139
591.556	248.185
591.608	242.37
591.66	240.8
591.712	245.146
591.764	240.872
591.816	238.799
591.868	243.248
591.92	244.874
591.972	239.308
592.024	228.225
592.076	235.706
592.128	239.619
592.18	234.868
592.232	246.973
592.284	238.52
592.336	227.267
592.388	239.831
592.44	234.695
592.492	228.304
592.544	241.264
592.596	231.729
592.648	233.047
592.7	245.543
592.752	233.892
592.804	233.097
592.856	227.09
592.908	235.872
592.96	238.476
593.012	239.567
593.064	231.219
593.116	223.016
593.168	229.214
593.22	239.481
593.272	234.356
593.324	233.077
593.376	228.5
593.428	230.534
593.479	240.037
593.531	238.001
593.583	229.022
593.635	237.077
593.687	234.755
593.739	234.385
593.791	246.686
593.843	238.743
593.895	224.22
593.947	236.777
593.999	236.074
594.051	235.815
594.103	246.448
594.155	243.388
594.207	232.308
594.259	234.698
594.311	227.484
594.363	241.843
594.415	237.661
594.467	237.8
594.519	235.873
594.571	250.879
594.623	237.511
594.675	237.665
594.727	242.44
594.779	235.754
594.831	237.288
594.883	246.351
594.935	242.551
594.986	250.174
595.038	243.339
595.09	242.336
595.142	230.432
595.194	242.971
595.246	255.953
595.298	241.525
595.35	249.322
595.402	240.735
595.454	252.77
595.506	240.05
595.558	249.143
595.61	249.85
595.662	244.172
595.714	242.5
595.766	251.229
595.818	254.816
595.87	240.986
595.922	248.74
595.974	251.542
596.026	252.484
596.077	253.116
596.129	252.661
596.181	252.708
596.233	252
596.285	248.669
596.337	259.061
596.389	257.977
596.441	262.431
596.493	256.995
596.545	255.021
596.597	258.271
596.649	260.785
596.701	260.358
596.753	269.722
596.805	252.44
596.857	268.181
596.909	275.997
596.96	253.448
597.012	254.299
597.064	259.051
597.116	262.941
597.168	255.129
597.22	257.699
597.272	266.654
597.324	260.603
597.376	260.803
597.428	253.125
597.48	266.442
597.532	263.755
597.584	264.481
597.636	260.462
597.688	262.253
597.739	248.389
597.791	248.079
597.843	253.861
597.895	265.688
597.947	262.29
597.999	269.575
598.051	260.575
598.103	256.057
598.155	258.84
598.207	263.5
598.259	268.818
598.311	265.782
598.363	261.834
598.414	262.416
598.466	251.851
598.518	258.6
598.57	261.389
598.622	261.877
598.674	269.077
598.726	262.513
598.778	261.344
598.83	263.637
598.882	265.019
598.934	253.268
598.986	264.968
599.037	262.297
599.089	261.634
599.141	266.682
599.193	265.115
599.245	260.299
599.297	255.709
599.349	263.11
599.401	259.443
599.453	265.17
599.505	270.311
599.557	268.077
599.609	259.291
599.66	260.17
599.712	264.615
599.764	263.973
599.816	252.947
599.868	263.856
599.92	266.053
599.972	261.444
600.024	269.824
600.076	266.267
600.128	264.621
600.18	265.238
600.231	260.142
600.283	270.485
600.335	273.941
600.387	270.204
600.439	265.462
600.491	269.809
600.543	267.034
600.595	266.547
600.647	268.239
600.699	265.443
600.75	258.658
600.802	263.655
600.854	260.768
600.906	262.282
600.958	268.629
601.01	267.071
601.062	266.148
601.114	261.527
601.166	271.95
601.217	270.994
601.269	260.553
601.321	264.629
601.373	263.858
601.425	269.458
601.477	267.018
601.529	268.645
601.581	268.014
601.633	266.766
601.685	261.786
601.736	265.084
601.788	261.66
601.84	266.554
601.892	273.336
601.944	272.141
601.996	272.248
602.048	265.955
602.1	269.845
602.151	273.34
602.203	271.493
602.255	265.896
602.307	273.747
602.359	268.562
602.411	271.774
602.463	269.086
602.515	267.275
602.567	266.543
602.618	273.697
602.67	277.489
602.722	272.358
602.774	269.365
602.826	269.973
602.878	269.693
602.93	267.714
602.982	276.745
603.033	271.265
603.085	267.978
603.137	268.157
603.189	276.043
603.241	262.752
603.293	272.015
603.345	269.229
603.396	273.449
603.448	279.136
603.5	273.609
603.552	272.155
603.604	275.678
603.656	278.394
603.708	278.372
603.76	262.842
603.811	282.583
603.863	288.621
603.915	278.807
603.967	272.866
604.019	272.625
604.071	278.772
604.123	285.873
604.174	281.761
604.226	279.145
604.278	277.052
604.33	271.675
604.382	271.331
604.434	283.991
604.486	273.29
604.538	277.215
604.589	281.176
604.641	281.494
604.693	274.231
604.745	273.255
604.797	288.181
604.849	279.979
604.901	281.278
604.952	282.854
605.004	279.502
605.056	276.527
605.108	273.057
605.16	281.768
605.212	281.401
605.263	282.4
605.315	275.671
605.367	274.792
605.419	279.868
605.471	284.642
605.523	276.362
605.575	273.171
605.626	274.894
605.678	272.63
605.73	280.937
605.782	271.975
605.834	267.868
605.886	271.958
605.938	277.85
605.989	272.587
606.041	274.999
606.093	279.907
606.145	279.73
606.197	282.097
606.249	280.832
606.3	282.593
606.352	272.696
606.404	276.398
606.456	278.035
606.508	283.43
606.56	283.551
606.611	278.774
606.663	270.652
606.715	273.889
606.767	276.066
606.819	275.501
606.871	276.095
606.922	279.389
606.974	278.126
607.026	275.808
607.078	274.687
607.13	276.679
607.182	277.834
607.233	267.394
607.285	286.09
607.337	283.261
607.389	289.131
607.441	282.848
607.493	285.381
607.544	284.356
607.596	283.912
607.648	277.919
607.7	285.224
607.752	290.427
607.803	287.073
607.855	284.297
607.907	283.408
607.959	280.039
608.011	284.553
608.063	285.006
608.114	285.132
608.166	291.154
608.218	280.668
608.27	275.632
608.322	288.247
608.374	287.182
608.425	281.551
608.477	269.612
608.529	277.202
608.56	286.496
608.612	288.682
608.664	279.539
608.716	273.169
608.768	279.152
608.82	287.243
608.872	288.181
608.924	292.977
608.976	284.107
609.027	284.274
609.079	291.715
609.131	290.662
609.183	281.083
609.235	293.501
609.287	292.155
609.339	290.105
609.391	290.476
609.443	289.647
609.495	286.212
609.547	290.094
609.598	297.273
609.65	289.659
609.702	288.648
609.754	298.876
609.806	303.596
609.858	295.977
609.91	280.112
609.962	294.222
610.014	300.636
610.065	304.542
610.117	294.782
610.169	298.899
610.221	290.444
610.273	301.001
610.325	289.771
610.377	294.64
610.429	289.583
610.481	290.721
610.533	286.187
610.584	289.262
610.636	286.839
610.688	274.553
610.74	292.61
610.792	295.336
610.844	289.846
610.896	294.933
610.948	289.192
611	296.451
611.052	290.276
611.103	290.283
611.155	292.205
611.207	305.722
611.259	299.704
611.311	288.612
611.363	288.697
611.415	296.107
611.467	289.384
611.518	294.063
611.57	293.223
611.622	300.108
611.674	306.619
611.726	302.86
611.778	297.788
611.83	302.381
611.882	305.095
611.934	296.348
611.985	298.939
612.037	302.838
612.089	299.709
612.141	296.72
612.193	295.841
612.245	304.559
612.297	301.676
612.349	301.101
612.4	309.574
612.452	312.613
612.504	313.949
612.556	303.076
612.608	303.42
612.66	304.849
612.712	299.766
612.764	298.805
612.815	304.151
612.867	308.46
612.919	313.862
612.971	301.354
613.023	300.866
613.075	296.242
613.127	296.061
613.179	306.154
613.23	297.195
613.282	319.751
613.334	311.353
613.386	315.774
613.438	302.595
613.49	306.795
613.542	312.805
613.594	307.05
613.645	308.661
613.697	315.55
613.749	313.256
613.801	306.397
613.853	320.784
613.905	316.523
613.957	313.845
614.008	303.014
614.06	311.812
614.112	305.491
614.164	310.773
614.216	317.025
614.268	318.317
614.32	320.653
614.371	317.219
614.423	316.926
614.475	324.097
614.527	322.227
614.579	318.042
614.631	323.319
614.683	319.573
614.734	319.847
614.786	316.706
614.838	324.957
614.89	323.324
614.942	324.44
614.994	318.779
615.045	330.721
615.097	324.621
615.149	326.335
615.201	323.484
615.253	326.713
615.305	317.286
615.357	314.977
615.408	319.509
615.46	316.031
615.512	329.597
615.564	334.774
615.616	319.029
615.668	323.927
615.719	323.682
615.771	330.079
615.823	328.369
615.875	336.451
615.927	328.618
615.979	333.185
616.031	332.606
616.082	337.9
616.134	334.138
616.186	331.655
616.238	324.246
616.29	330.284
616.342	326.293
616.393	333.043
616.445	335.794
616.497	316.297
616.549	337.215
616.601	335.748
616.653	328.536
616.704	335.734
616.756	339.384
616.808	349.689
616.86	328.787
616.912	335.753
616.964	342.598
617.015	332.803
617.067	344.409
617.119	327.092
617.171	339.407
617.223	346.299
617.274	341.837
617.326	333.161
617.378	338.868
617.43	330.823
617.482	346.185
617.534	352.922
617.585	345.182
617.637	361.464
617.689	351.477
617.741	340.823
617.793	349.785
617.845	354.626
617.896	358.109
617.948	340.489
618	349.086
618.052	347.138
618.104	346.176
618.155	350.851
618.207	350.26
618.259	344.889
618.311	351.552
618.363	345.832
618.415	355.697
618.466	355.972
618.518	354.026
618.57	347.906
618.622	348.037
618.674	356.182
618.725	349.102
618.777	368.259
618.829	359.826
618.881	358.617
618.933	347.489
618.984	353.653
619.036	356.787
619.088	374.604
619.14	363.751
619.192	360.045
619.244	354.464
619.295	360.286
619.347	360.304
619.399	363.947
619.451	370.261
619.503	362.013
619.554	353.02
619.606	362.545
619.658	371.289
619.71	358.282
619.762	360.317
619.813	360.455
619.865	370.544
619.917	369.29
619.969	360
620.021	357.97
620.072	364.16
620.124	359.368
620.176	367.378
620.228	369.203
620.279	362.105
620.331	361.727
620.383	375.809
620.435	378.35
620.487	377.181
620.538	369.271
620.59	365.163
620.642	377.158
620.694	370.632
620.746	362.628
620.797	365.656
620.849	357.043
620.901	374.597
620.953	382.889
621.005	384.57
621.056	379.613
621.108	370.516
621.16	383.765
621.212	369.879
621.263	374.666
621.315	379.141
621.367	383.816
621.419	374.383
621.471	363.595
621.522	367.585
621.574	363.327
621.626	371.172
621.678	364.38
621.729	369.686
621.781	369.392
621.833	372.061
621.885	378.767
621.937	374.442
621.988	377.167
622.04	378.796
622.092	369.094
622.144	386.872
622.195	369.995
622.247	372.456
622.299	370.501
622.351	379.361
622.403	366.842
622.454	388.341
622.506	368.952
622.558	365.964
622.61	372.207
622.661	378.376
622.713	386.605
622.765	381.003
622.817	367.596
622.869	375.408
622.92	375.515
622.972	381.174
623.024	379.015
623.076	378.509
623.127	385.624
623.179	384.491
623.231	374.102
623.283	377.378
623.334	378.871
623.386	382.996
623.438	375.042
623.49	372.978
623.541	377.461
623.593	382.934
623.645	381.02
623.697	373.929
623.748	369.073
623.8	383.334
623.852	377.405
623.904	379.165
623.956	381.45
624.007	376.013
624.059	382.452
624.111	385.605
624.162	391.039
624.214	388.602
624.266	390.877
624.318	387.169
624.37	381.615
624.421	388.776
624.473	379.732
624.525	379.525
624.576	379.309
624.628	377.947
624.68	382.772
624.732	387
624.784	377.005
624.835	390.434
624.887	379.388
624.939	385.241
624.99	383.233
625.042	380.695
625.094	378.386
625.146	389.262
625.197	390.976
625.249	388.327
625.301	384.305
625.353	393.445
625.404	383.556
625.456	387.586
625.508	380.35
625.56	392.313
625.611	374.75
625.663	388.779
625.715	384.919
625.767	390.981
625.818	393.396
625.87	392.708
625.922	387.472
625.974	382.739
626.025	393.534
626.077	406.873
626.129	396.769
626.18	390.82
626.197	392.63
626.249	395.453
626.3	392.473
626.352	402.386
626.404	384.614
626.456	397.296
626.508	396.953
626.56	389.509
626.611	397.46
626.663	391.988
626.715	398.612
626.767	399.391
626.819	405.222
626.87	391.676
626.922	409.731
626.974	413.785
627.026	399.223
627.078	404.579
627.13	397.12
627.181	395.383
627.233	398.685
627.285	406.346
627.337	396.78
627.389	404.32
627.44	408.548
627.492	401.717
627.544	396.997
627.596	406.595
627.648	394.224
627.7	394.457
627.751	391.058
627.803	405.862
627.855	406.538
627.907	396.746
627.959	405.3
628.01	410.343
628.062	407.543
628.114	405.199
628.166	414.534
628.218	401.507
628.27	413.258
628.321	408.416
628.373	415.045
628.425	404.793
628.477	407.822
628.529	415.017
628.58	396.382
628.632	408.979
628.684	416.878
628.736	404.784
628.788	414.782
628.839	419.821
628.891	402.198
628.943	406.217
628.995	402.774
629.047	400.374
629.098	408.684
629.15	407.943
629.202	401.838
629.254	407.582
629.306	415.701
629.357	412.408
629.409	413.115
629.461	414.952
629.513	413.845
629.565	415.162
629.616	408.735
629.668	418.9
629.72	411.202
629.772	407.16
629.824	403.757
629.875	422.845
629.927	414.52
629.979	422.189
630.031	421.09
630.083	429.569
630.134	425.421
630.186	416.164
630.238	417.331
630.29	412.514
630.342	414.627
630.393	414.42
630.445	412.779
630.497	428.558
630.549	434.034
630.6	421.551
630.652	415.557
630.704	423.514
630.756	428.088
630.808	416.178
630.859	421.046
630.911	421.004
630.963	413.302
631.015	421.938
631.067	425.588
631.118	431.201
631.17	432.623
631.222	426.889
631.274	433.651
631.325	435.148
631.377	426.943
631.429	439.1
631.481	428.072
631.533	439.241
631.584	447.97
631.636	441.283
631.688	436.614
631.74	442.079
631.791	445.119
631.843	438.727
631.895	436.406
631.947	435.34
631.999	444.004
632.05	438.241
632.102	431.572
632.154	447.718
632.206	445.706
632.257	438.994
632.309	441.264
632.361	450.722
632.413	450.933
632.464	440.887
632.516	445.683
632.568	444.754
632.62	441.806
632.672	449.498
632.723	459.408
632.775	442.287
632.827	440.184
632.879	450.346
632.93	447.055
632.982	446.631
633.034	442.402
633.086	447.586
633.137	446.132
633.189	456.767
633.241	454.023
633.293	451.572
633.344	449.913
633.396	453.443
633.448	463.286
633.5	456.365
633.551	445.237
633.603	453.428
633.655	467.044
633.707	449.51
633.758	446.879
633.81	461.015
633.862	462.441
633.914	451.224
633.965	453.326
634.017	473.918
634.069	462.98
634.121	460.603
634.172	469.174
634.224	469.273
634.276	464.918
634.328	456.013
634.379	455.171
634.431	460.383
634.483	475.524
634.535	467.342
634.586	474.07
634.638	482.115
634.69	475.058
634.742	476.771
634.793	463.978
634.845	474.166
634.897	473.519
634.949	470.388
635	483.29
635.052	487.153
635.104	481.851
635.156	486.874
635.207	478.678
635.259	492.929
635.311	498.442
635.363	481.758
635.414	480.683
635.466	483.061
635.518	493.889
635.57	493.592
635.621	502.487
635.673	505.077
635.725	488.258
635.776	493.743
635.828	499.897
635.88	489.408
635.932	499.801
635.983	497.739
636.035	511.768
636.087	519.003
636.139	507.434
636.19	512.334
636.242	511.104
636.294	523.535
636.345	536.669
636.397	527.286
636.449	538.926
636.501	542.941
636.552	545.378
636.604	547.184
636.656	544.852
636.708	538.393
636.759	555.72
636.811	553.417
636.863	566.567
636.914	571.42
636.966	574.665
637.018	568.613
637.07	572.528
637.121	576.108
637.173	591.517
637.225	591.217
637.276	605.776
637.328	619.752
637.38	605.377
637.432	615.057
637.483	616.567
637.535	612.069
637.587	633.417
637.638	644.991
637.69	653.074
637.742	657.83
637.794	660.297
637.845	649.328
637.897	659.364
637.949	680.795
638	681.31
638.052	672.337
638.104	675.9
638.156	680.326
638.207	676.542
638.259	670.762
638.311	683.359
638.362	692.325
638.414	675.318
638.466	672.747
638.517	669.813
638.569	678.805
638.621	678.197
638.673	666.784
638.724	672.907
638.776	690.952
638.828	665.263
638.879	672.548
638.931	671.425
638.983	671.539
639.034	651.397
639.086	662.635
639.138	637.331
639.19	629.824
639.241	627.258
639.293	635.79
639.345	635.947
639.396	612.022
639.448	611.649
639.5	619.136
639.551	634.258
639.603	625.596
639.655	596.931
639.706	605.635
639.758	617.154
639.81	607.828
639.862	602.114
639.913	606.261
639.965	599.415
640.017	595.086
640.068	582.873
640.12	587.897
640.172	608.609
640.223	596.267
640.275	583.72
640.327	589.985
640.378	587.908
640.43	593.551
640.482	582.78
640.533	574.338
640.585	578.856
640.637	575.915
640.688	576.053
640.74	586.477
640.792	563.636
640.844	582.945
640.895	568.254
640.947	567.259
640.999	574.054
641.05	569.444
641.102	560.447
641.154	570.058
641.205	568.857
641.257	581.946
641.309	569.199
641.36	574.008
641.412	577.413
641.464	554.74
641.515	563.559
641.567	578.673
641.619	570.227
641.67	558.276
641.722	555.895
641.774	571.978
641.825	559.439
641.877	563.592
641.929	561.241
641.98	583.178
642.032	559.553
642.084	574.469
642.135	564.79
642.187	558.144
642.239	570.856
642.29	574.826
642.342	558.147
642.394	567.238
642.445	567.05
642.497	575.043
642.549	553.354
642.6	570.619
642.652	564.767
642.704	560.783
642.755	564.262
642.807	577.946
642.859	563.398
642.91	569.031
642.962	556.824
643.013	563
643.065	564.162
643.117	579.919
643.168	575.98
643.22	557.535
643.272	560.919
643.323	574.276
643.375	555.687
643.427	568.032
643.478	571.898
643.53	578.321
643.582	574.32
643.633	562.926
643.685	567.274
643.737	565.834
643.788	571.99
643.84	576.285
643.891	585.189
643.898	585.185
643.949	568.721
644.001	574.91
644.053	567.656
644.105	580.078
644.156	569.767
644.208	561.377
644.26	568.411
644.312	572.632
644.363	583.401
644.415	577.119
644.467	567.791
644.519	574.679
644.57	568.873
644.622	577.02
644.674	573.409
644.726	580.398
644.777	589.726
644.829	582.078
644.881	599.374
644.932	580.44
644.984	586.206
645.036	573.564
645.088	577.478
645.139	580.43
645.191	574.572
645.243	576.896
645.295	589.418
645.346	591.79
645.398	575.32
645.45	596.883
645.502	592.531
645.553	580.331
645.605	588.624
645.657	593.151
645.708	590.26
645.76	575.305
645.812	583.447
645.864	613.696
645.915	594.895
645.967	581.63
646.019	568.214
646.071	575.84
646.122	577.655
646.174	588.722
646.226	587.871
646.277	593.494
646.329	576.411
646.381	595.025
646.433	585.342
646.484	600.285
646.536	595.098
646.588	593.182
646.639	592.003
646.691	587.478
646.743	606.531
646.795	587.996
646.846	581.285
646.898	597.21
646.95	593.534
647.001	594.161
647.053	592.147
647.105	602.626
647.157	602.914
647.208	605.287
647.26	589.423
647.312	602.086
647.363	599.525
647.415	606.78
647.467	588.003
647.519	587.631
647.57	611.32
647.622	595.208
647.674	594.283
647.725	611.998
647.777	584.197
647.829	597.453
647.881	601.678
647.932	617.23
647.984	601.213
648.036	616.682
648.087	616.005
648.139	605.971
648.191	601.434
648.242	604.012
648.294	609.067
648.346	598.937
648.398	604.674
648.449	603.779
648.501	608.298
648.553	608.89
648.604	609.365
648.656	613.671
648.708	621.923
648.759	608.218
648.811	609.121
648.863	610.177
648.914	626.625
648.966	615.864
649.018	614.854
649.07	633.184
649.121	632.378
649.173	622.338
649.225	616.186
649.276	615.294
649.328	604.204
649.38	638.064
649.431	626.353
649.483	631.25
649.535	633.348
649.586	647.714
649.638	624.037
649.69	634.5
649.742	634.201
649.793	629.006
649.845	641.889
649.897	633.021
649.948	635.134
650	638.976
650.052	638.013
650.103	629.402
650.155	625.748
650.207	633.354
650.258	634.544
650.31	635.414
650.362	637.818
650.413	625.664
650.465	656.356
650.517	622.086
650.568	642.67
650.62	650.008
650.672	654.61
650.723	646.876
650.775	643.634
650.827	636.446
650.878	637.427
650.93	639.597
650.982	626.329
651.034	652.555
651.085	646.886
651.137	636.566
651.189	650.408
651.24	649.457
651.292	651.598
651.344	659.282
651.395	632.862
651.447	648.672
651.499	662.413
651.55	646.514
651.602	663.605
651.654	655.696
651.705	649.407
651.757	658.002
651.809	652.721
651.86	670.129
651.912	654.269
651.964	667.155
652.015	660.25
652.067	638.391
652.118	655.997
652.17	660.153
652.222	643.022
652.273	661.025
652.325	653.93
652.377	667.343
652.428	673.989
652.48	668.206
652.532	677.996
652.583	662.911
652.635	664.814
652.687	676.157
652.738	673.641
652.79	658.857
652.842	663.674
652.893	664.229
652.945	663.356
652.997	658.687
653.048	665.203
653.1	659.689
653.152	669.272
653.203	665.937
653.255	667.284
653.307	676.011
653.358	679.011
653.41	684.787
653.461	675.149
653.513	678.804
653.565	666.347
653.616	683.529
653.668	690.661
653.72	679.826
653.771	681.199
653.823	679.939
653.875	678.452
653.926	700.989
653.978	700.21
654.029	676.144
654.081	692.878
654.133	703.135
654.184	683.224
654.236	700.108
654.288	710.128
654.339	707.416
654.391	697.546
654.443	696.372
654.494	710.117
654.546	691.29
654.597	701.864
654.649	715.685
654.701	703.554
654.752	714.243
654.804	707.603
654.856	713.977
654.907	722.019
654.959	718.561
655.01	719.795
655.062	724.542
655.114	719.235
655.165	725.344
655.217	721.017
655.269	730.155
655.32	734.688
655.372	734.793
655.424	706.871
655.475	731.966
655.527	717.66
655.578	726.999
655.63	721.792
655.682	725.164
655.733	742.204
655.785	734.846
655.836	735.604
655.888	750.767
655.94	747.032
655.991	748.026
656.043	736.091
656.095	732.48
656.146	748.565
656.198	744.456
656.249	733.273
656.301	738.607
656.353	742.468
656.404	750.693
656.456	745.4
656.508	766.201
656.559	744.634
656.611	754.503
656.662	769.548
656.714	761.457
656.766	765.345
656.817	767.416
656.869	771.613
656.92	772.609
656.972	766.235
657.024	753.903
657.075	768.968
657.127	771.193
657.178	796.589
657.23	788.072
657.282	772.183
657.333	785.447
657.385	786.335
657.436	781.758
657.488	779.594
657.54	785.813
657.591	782.565
657.643	770.82
657.694	788.115
657.746	786.938
657.798	790.137
657.849	785.409
657.901	781.658
657.952	786.63
658.004	797.288
658.056	790.787
658.107	799.333
658.159	771.37
658.21	780.881
658.262	794.308
658.314	788.083
658.365	799.903
658.417	799.306
658.468	786.823
658.52	810.04
658.571	794.366
658.623	820.055
658.675	788.091
658.726	783.734
658.778	800.436
658.829	818.596
658.881	795.935
658.933	801.495
658.984	809.402
659.036	810.617
659.087	805.768
659.139	810.288
659.19	787.521
659.242	800.898
659.294	794.417
659.345	809.515
659.397	815.619
659.448	801.719
659.5	817.818
659.552	808.51
659.603	812.642
659.655	817.031
659.706	816.314
659.758	798.989
659.809	813.487
659.861	814.001
659.913	819.489
659.964	809.439
660.016	820.963
660.067	820.67
660.119	810.394
660.17	811.747
660.222	821.018
660.274	812.371
660.325	804.252
660.377	805.469
660.428	818.434
660.48	818.08
660.531	804.56
660.583	808.927
660.635	824.349
660.686	824.624
660.738	808.267
660.789	798.157
660.841	804.809
660.892	811.287
660.944	816.953
660.995	823.253
661.047	823.63
661.099	807.107
661.15	819.556
661.202	810.526
661.253	812.966
661.305	817.307
661.356	813.863
661.408	808.377
661.46	815.801
661.511	814.476
661.532	818.051
661.583	815.645
661.635	810.235
661.687	808.518
661.738	797.907
661.79	838.327
661.842	810.882
661.893	805.1
661.945	810.633
661.997	805.015
662.048	817.704
662.1	812.166
662.151	814.29
662.203	815.263
662.255	824.722
662.306	819.906
662.358	823.985
662.41	812.199
662.461	814.163
662.513	815.24
662.565	814.643
662.616	809.349
662.668	817.021
662.72	812.944
662.771	805.347
662.823	811.365
662.875	806.925
662.926	811.539
662.978	815.992
663.03	830.911
663.081	811.787
663.133	820.377
663.184	823.2
663.236	831.37
663.288	815.267
663.339	833.091
663.391	816.075
663.443	803.614
663.494	812.839
663.546	813.546
663.598	815.917
663.649	808.664
663.701	824.102
663.752	806.391
663.804	821.817
663.856	811.732
663.907	826.817
663.959	817.018
664.011	820.422
664.062	814.331
664.114	831.733
664.166	811.199
664.217	814.336
664.269	819.991
664.32	822.089
664.372	830.302
664.424	821.701
664.475	844.209
664.527	822.168
664.579	822.416
664.63	822.157
664.682	818.289
664.733	799.206
664.785	828.047
664.837	798.501
664.888	804.972
664.94	818.456
664.992	821.537
665.043	812.623
665.095	808.357
665.146	808.124
665.198	808.969
665.25	800.596
665.301	803.01
665.353	809.594
665.405	811.386
665.456	805.241
665.508	813.505
665.559	802.172
665.611	810.99
665.663	818.032
665.714	821.449
665.766	837.833
665.817	809.243
665.869	809.085
665.921	822.769
665.972	807.807
666.024	814.312
666.076	827.513
666.127	829.068
666.179	802.118
666.23	825.881
666.282	795.793
666.334	818.699
666.385	803.924
666.437	806.244
666.488	814.312
666.54	804.544
666.592	817.947
666.643	804.409
666.695	806.969
666.746	822.553
666.798	815.403
666.85	804.531
666.901	797.303
666.953	787.831
667.004	821.337
667.056	796.176
667.108	808.371
667.159	822.182
667.211	822.716
667.262	803.949
667.314	810.629
667.366	819.571
667.417	810.686
667.469	815.799
667.52	814.28
667.572	789.758
667.624	817.319
667.675	810.449
667.727	819.515
667.778	801.121
667.83	806.751
667.882	809.708
667.933	811.033
667.985	816.52
668.036	806.888
668.088	819.348
668.14	821.178
668.191	802.951
668.243	821.084
668.294	801.382
668.346	799.239
668.397	831.386
668.449	818.585
668.501	800.743
668.552	821.659
668.604	819.256
668.655	814.407
668.707	799.713
668.759	792.495
668.81	815.404
668.862	818.487
668.913	813.861
668.965	814.165
669.016	803.191
669.068	813.352
669.12	805.874
669.171	812.989
669.223	793.337
669.274	769.349
669.326	805.582
669.377	813.433
669.429	823.109
669.481	809.866
669.532	820.572
669.584	836.904
669.635	805.412
669.687	801.547
669.738	803.274
669.79	825.847
669.842	834.581
669.893	815.029
669.945	800.879
669.996	802.43
670.048	801.883
670.099	804.429
670.151	813.23
670.203	824.058
670.254	813.231
670.306	811.2
670.357	821.523
670.409	803.447
670.46	797.742
670.512	825.016
670.564	810.639
670.615	801.213
670.667	804.628
670.718	791.593
670.77	802.64
670.821	821.3
670.873	806.743
670.924	788.653
670.976	795.154
671.028	808.616
671.079	809.192
671.131	801.762
671.182	808.838
671.234	798.936
671.285	801.584
671.337	818.948
671.388	810.346
671.44	833.051
671.492	814.066
671.543	810.069
671.595	821.494
671.646	822.653
671.698	801.353
671.749	804.685
671.801	805.527
671.852	826.535
671.904	812.122
671.956	795.617
672.007	802.9
672.059	819.528
672.11	811.804
672.162	816.714
672.213	825.469
672.265	829.627
672.316	807.665
672.368	809.616
672.419	820.41
672.471	814.303
672.522	816.74
672.574	815.226
672.626	802.348
672.677	808.616
672.729	818.99
672.78	824.968
672.832	831.888
672.883	814.077
672.935	820.021
672.986	814.161
673.038	822.218
673.089	830.375
673.141	817.177
673.192	823.271
673.244	817.74
673.296	828.518
673.347	822.837
673.399	823.862
673.45	828.096
673.502	841.253
673.553	838.223
673.605	839.84
673.656	820.947
673.708	821.856
673.759	813.193
673.811	824.245
673.862	829.96
673.914	837.05
673.965	830.689
674.017	839.836
674.068	843.251
674.12	840.586
674.171	831.499
674.223	832.47
674.275	833.638
674.326	847.154
674.378	843.272
674.429	834.931
674.481	859.222
674.532	847.122
674.584	836.716
674.635	839.519
674.687	833.531
674.738	850.608
674.79	852.801
674.841	854.483
674.893	852.069
674.944	852.998
674.996	860.725
675.047	855.097
675.099	854.815
675.15	868.972
675.202	856.511
675.253	857.011
675.305	845.982
675.356	841.636
675.408	850.746
675.459	849.385
675.511	840.723
675.562	853.959
675.614	857.816
675.665	862.171
675.717	855.966
675.768	851.642
675.82	848.243
675.871	854.995
675.923	858.086
675.974	875.007
676.026	858.162
676.077	847.41
676.129	861.338
676.18	867.613
676.232	858.068
676.283	877.376
676.335	857.386
676.386	880.826
676.438	864.081
676.489	857.449
676.541	869.348
676.592	851.374
676.644	857.017
676.695	858.125
676.747	866.621
676.798	863.61
676.85	853.925
676.901	868.915
676.953	867.355
677.004	866.811
677.056	858.253
677.107	869.64
677.159	860.818
677.21	874.979
677.262	861.868
677.313	860.736
677.365	852.391
677.416	886.757
677.468	864.9
677.519	852.39
677.571	869.684
677.622	855.196
677.674	859.147
677.725	852.028
677.777	866.138
677.828	858.671
677.88	873.036
677.931	865.27
677.982	869.784
678.034	868.497
678.085	858.138
678.137	857.48
678.188	865.514
678.24	864.977
678.291	880.212
678.343	865.629
678.394	878.286
678.446	865.767
678.497	860.014
678.549	873.883
678.6	871.829
678.652	851.614
678.703	854.965
678.755	858.154
678.806	859.402
678.857	863.294
678.909	852.441
678.96	852.965
679.012	851.51
679.063	857.695
679.083	857.565
679.135	872.741
679.186	874.294
679.238	886.393
679.289	875.038
679.341	869.994
679.392	845.11
679.444	875.445
679.496	845.398
679.547	877.629
679.599	871.618
679.65	867.755
679.702	864.45
679.753	860.845
679.805	872.916
679.857	872.74
679.908	861.784
679.96	887.116
680.011	867.826
680.063	887.86
680.114	874.029
680.166	859.554
680.217	871.411
680.269	869.694
680.321	860.076
680.372	874.606
680.424	870.848
680.475	873.504
680.527	865.791
680.578	896.473
680.63	889.899
680.682	890.363
680.733	878.546
680.785	895.252
680.836	877.994
680.888	852.846
680.939	857.462
680.991	886
681.042	887.61
681.094	888.47
681.146	868.401
681.197	881.811
681.249	892.733
681.3	895.916
681.352	890.561
681.403	896.019
681.455	894.161
681.506	891.857
681.558	890.942
681.609	896.382
681.661	900.401
681.712	906.588
681.764	887.022
681.816	876.422
681.867	878.443
681.919	890.289
681.97	877.197
682.022	877.008
682.073	896.148
682.125	885.403
682.176	883.888
682.228	887.359
682.279	900.45
682.331	891.782
682.383	904.779
682.434	912.237
682.486	902.367
682.537	891.373
682.589	889.666
682.64	898.077
682.692	886.545
682.743	874.725
682.795	902.682
682.846	904.765
682.898	913.52
682.949	898.953
683.001	899.452
683.052	905.549
683.104	906.735
683.156	904.049
683.207	906.693
683.259	916.075
683.31	887.724
683.362	875.489
683.413	892.794
683.465	890.072
683.516	905.447
683.568	900.42
683.619	906.255
683.671	901.385
683.722	899.652
683.774	876.596
683.825	892.955
683.877	885.596
683.928	904.414
683.98	889.641
684.031	910.838
684.083	894.13
684.134	874.978
684.186	904.711
684.237	902.63
684.289	906.411
684.341	897.086
684.392	877.23
684.444	901.02
684.495	895.826
684.547	887.016
684.598	893.83
684.65	869.456
684.701	884.167
684.753	882.459
684.804	888.556
684.856	901.822
684.907	888.734
684.959	894.504
685.01	901.762
685.062	889.66
685.113	880.768
685.165	891.857
685.216	872.557
685.268	886.05
685.319	865.793
685.371	871.038
685.422	890.1
685.474	863.67
685.525	872.177
685.577	870.366
685.628	887.789
685.68	897.569
685.731	889.288
685.783	878.04
685.834	864.047
685.886	890.253
685.937	896.702
685.989	864.928
686.04	902.536
686.092	882.8
686.143	893.801
686.195	884.04
686.246	885.054
686.298	839.699
686.349	890.182
686.401	881.704
686.452	885.797
686.504	860.663
686.555	868.449
686.607	885.802
686.658	878.315
686.71	887.319
686.761	886.269
686.813	874.207
686.864	894.837
686.916	888.266
686.967	899.927
687.018	866.96
687.07	887.805
687.121	863.203
687.173	872.672
687.224	873.26
687.276	888.975
687.327	877.907
687.379	879.298
687.43	872.212
687.482	885.778
687.533	892.316
687.585	874.968
687.636	869.306
687.688	878.211
687.739	875.022
687.791	868.671
687.842	878.864
687.894	889.436
687.945	865.511
687.997	873.05
688.048	872.018
688.1	885.874
688.151	885.607
688.203	881.981
688.254	863.403
688.305	872.468
688.357	853.461
688.408	880.945
688.46	884.683
688.511	878.244
688.563	867.52
688.614	860.792
688.666	847.931
688.717	885.996
688.769	869.133
688.82	876.096
688.872	861.776
688.923	887.779
688.974	880.497
689.026	891.214
689.077	874.455
689.129	863.334
689.18	865.683
689.232	885.289
689.283	861.98
689.335	870.63
689.386	869.375
689.438	878.489
689.489	860.551
689.541	875.004
689.592	869.279
689.643	850.635
689.695	862.587
689.746	884.374
689.798	879.965
689.849	857.706
689.901	865.082
689.952	884.661
690.004	866.355
690.055	853.017
690.107	881.585
690.158	890.97
690.209	863.541
690.261	867.855
690.312	851.916
690.364	868.23
690.415	872.297
690.467	856.672
690.518	857.627
690.57	887.709
690.621	867.781
690.672	857.791
690.724	870.425
690.775	862.352
690.827	846.771
690.878	856.705
690.93	829.044
690.981	850.872
691.033	856.818
691.084	851.76
691.135	866.073
691.187	863.316
691.238	855.058
691.29	851.897
691.341	867.904
691.393	856.789
691.444	841.621
691.495	851.999
691.547	870.157
691.598	878.761
691.65	862.81
691.701	851.071
691.753	852.724
691.804	857.47
691.856	846.841
691.907	839.255
691.958	847.292
692.01	860.561
692.061	857.713
692.113	848.121
692.164	850.14
692.216	852.394
692.267	869.84
692.318	853.775
692.37	857.884
692.421	856.772
692.473	849.416
692.524	840.933
692.576	852.424
692.627	850.714
692.678	828.619
692.73	847.381
692.781	852.317
692.833	844.308
692.884	831.376
692.935	855.151
692.987	856.153
693.038	848.91
693.09	845.677
693.141	840.41
693.193	837.012
693.244	843.529
693.295	840.122
693.347	833.768
693.398	850.008
693.45	857.248
693.501	827.012
693.552	849.41
693.604	849.033
693.655	837.402
693.707	844.836
693.758	843.869
693.809	841.496
693.861	850.852
693.912	839.694
693.964	828.111
694.015	837.242
694.066	844.009
694.118	832.806
694.169	835.044
694.221	835.563
694.272	828.156
694.323	829.911
694.375	835.901
694.426	842.74
694.478	836.391
694.529	827.748
694.581	831.821
694.632	832.896
694.683	832.998
694.735	830.453
694.786	842.475
694.837	828.758
694.889	834.122
694.94	836.269
694.992	833.935
695.043	819.436
695.094	816.147
695.146	817.605
695.197	832.789
695.249	844.356
695.3	840.041
695.351	832.153
695.403	837.838
695.454	838.416
695.506	841.315
695.557	827.602
695.608	823.677
695.66	823.816
695.711	817.423
695.763	824.64
695.814	830.058
695.865	818.685
695.917	826.993
695.968	834.967
696.019	835.993
696.071	814.191
696.122	812.566
696.174	823.442
696.225	825.82
696.276	818.932
696.328	804.403
696.379	813.204
696.43	833.135
696.482	815.284
696.533	815.344
696.585	812.803
696.636	802.084
696.687	827.995
696.707	835.751
696.759	808.337
696.81	814.468
696.862	807.864
696.913	817.816
696.965	829.509
697.016	821.789
697.068	824.476
697.119	825.556
697.171	818.824
697.222	828.019
697.274	811.178
697.325	812.627
697.377	817.482
697.428	820.823
697.479	817.788
697.531	806.706
697.582	804.415
697.634	806.867
697.685	821.726
697.737	805.904
697.788	808.328
697.84	816.543
697.891	811.558
697.943	794.715
697.994	808.105
698.046	803.755
698.097	804.538
698.149	806.519
698.2	805.637
698.252	782.145
698.303	790.637
698.354	779.235
698.406	808.423
698.457	804.312
698.509	802.464
698.56	787.927
698.612	786.218
698.663	807.558
698.715	817.127
698.766	801.903
698.818	798.227
698.869	798.389
698.921	810.246
698.972	789.079
699.023	779.558
699.075	792.77
699.126	790.889
699.178	786.411
699.229	787.98
699.281	790.322
699.332	773.311
699.384	800.43
699.435	791.781
699.487	782.411
699.538	791.379
699.589	780.881
699.641	776.814
699.692	771.617
699.744	793.143
699.795	795.38
699.847	780.006
699.898	791.609
699.95	801.603
700.001	790.492
700.052	779.56
700.104	801.009
700.155	782.22
700.207	788.13
700.258	791.234
700.31	786.31
700.361	787.568
700.413	786.13
700.464	777.55
700.515	796.47
700.567	786.792
700.618	769.235
700.67	782.905
700.721	779.948
700.773	781.418
700.824	789.125
700.875	791.951
700.927	786.167
700.978	775.26
701.03	792.134
701.081	793.88
701.133	801.266
701.184	794.146
701.235	781.183
701.287	793.16
701.338	791.712
701.39	788.423
701.441	776.755
701.493	772.374
701.544	779.55
701.596	781.404
701.647	765.905
701.698	786.957
701.75	792.894
701.801	793.961
701.853	785.647
701.904	781.99
701.956	779.82
702.007	795.173
702.058	792.96
702.11	788.236
702.161	796.049
702.213	780.647
702.264	787.415
702.315	769.823
702.367	786.462
702.418	778.902
702.47	780.25
702.521	793.01
702.573	792.526
702.624	787.559
702.675	803.726
702.727	788.817
702.778	779.005
702.83	778.442
702.881	792.948
702.932	773.297
702.984	776.791
703.035	789.806
703.087	775.092
703.138	771.74
703.19	791.501
703.241	783.945
703.292	776.946
703.344	789.419
703.395	790.38
703.447	786.886
703.498	802.699
703.549	782.591
703.601	787.396
703.652	786.698
703.704	772.797
703.755	776.887
703.806	795.979
703.858	786.605
703.909	777.29
703.961	772.846
704.012	764.497
704.063	773.572
704.115	779.044
704.166	772.072
704.218	772.181
704.269	779.665
704.32	779.327
704.372	776.123
704.423	779.466
704.475	770.96
704.526	765.944
704.577	772.939
704.629	780.759
704.68	775.315
704.732	790.891
704.783	770.193
704.834	778.708
704.886	778.509
704.937	788.742
704.988	777.66
705.04	777.122
705.091	770.183
705.143	767.965
705.194	769.411
705.245	770.667
705.297	764.79
705.348	746.436
705.4	757.504
705.451	775.925
705.502	778.267
705.554	786.367
705.605	773.549
705.656	769.912
705.708	761.637
705.759	760.993
705.811	756.597
705.862	758.097
705.913	754.098
705.965	750.91
706.016	759.054
706.068	770.719
706.119	752.105
706.17	743.802
706.222	746.56
706.273	746.749
706.324	757.335
706.376	760.154
706.427	746.229
706.479	734.23
706.53	746.404
706.581	749.46
706.633	744.868
706.684	744.932
706.735	741.51
706.787	763.936
706.838	763.525
706.889	751.457
706.941	742.428
706.992	744.94
707.044	740.834
707.095	748.139
707.146	726.688
707.198	738.352
707.249	732.514
707.3	735.634
707.352	729.187
707.403	751.601
707.454	726.753
707.506	738.997
707.557	739.959
707.609	735.329
707.66	742.127
707.711	748.968
707.763	747.033
707.814	744.282
707.865	732.255
707.917	722.461
707.968	736.686
708.019	734.669
708.071	726.45
708.122	733.318
708.173	732.838
708.225	739.549
708.276	731.387
708.328	736.447
708.379	730.61
708.43	745.257
708.482	731.32
708.533	721.572
708.584	724.831
708.636	739.475
708.687	732.077
708.738	736.107
708.79	704.801
708.841	722.594
708.892	744.696
708.944	732.612
708.995	736.122
709.046	731.92
709.098	720.907
709.149	735.073
709.2	725.153
709.252	730.935
709.303	729.595
709.354	728.983
709.406	711.324
709.457	719.609
709.508	718.073
709.56	719.115
709.611	717.921
709.662	731.407
709.714	730.316
709.765	734.809
709.816	721.643
709.868	719.581
709.919	725.319
709.97	727.474
710.022	723.969
710.073	727.833
710.124	719.138
710.176	709.083
710.227	719.135
710.278	730.016
710.33	729.031
710.381	732.702
710.432	726.454
710.484	722.718
710.535	737.232
710.586	714.053
710.638	729.573
710.689	717.036
710.74	719.297
710.792	724.174
710.843	717.598
710.894	716.631
710.946	709.904
710.997	713.491
711.048	719.057
711.1	707.767
711.151	711.276
711.202	738.894
711.254	732.775
711.305	717.96
711.356	705.757
711.407	701.655
711.459	694.198
711.51	705.23
711.561	709.63
711.613	714.055
711.664	715.446
711.715	722.171
711.767	690.657
711.818	700.108
711.869	689.288
711.921	690.364
711.972	703.006
712.023	719.576
712.075	703.249
712.126	695.576
712.177	709.862
712.228	702.55
712.28	707.937
712.331	709.294
712.382	721.637
712.434	711.96
712.485	694.784
712.536	706.46
712.588	697.664
712.639	695.437
712.69	686.379
712.741	695.039
712.793	698.553
712.844	691.894
712.895	699.403
712.947	710.107
712.998	694.61
713.049	683.123
713.101	688.631
713.152	690.728
713.203	689.25
713.254	693.275
713.306	692.78
713.357	675.126
713.408	677.146
713.46	688.991
713.511	697.248
713.562	678.379
713.613	677.139
713.665	692.844
713.716	678.553
713.767	674.677
713.819	666.324
713.87	678.87
713.921	672.887
713.972	691.418
714.024	679.149
714.075	678.376
714.126	669.73
714.178	667.36
714.18	667.776
714.231	683.13
714.283	675.061
714.334	674.28
714.385	663.493
714.437	694.635
714.488	678.16
714.539	654.181
714.591	661.537
714.642	657.483
714.694	673.881
714.745	660.826
714.796	676.461
714.848	681.373
714.899	667.19
714.951	660.957
715.002	663.189
715.053	660.204
715.105	678.618
715.156	666.26
715.207	663.03
715.259	662.607
715.31	663.838
715.362	666.904
715.413	659.533
715.464	663.893
715.516	666.439
715.567	653.914
715.618	655.784
715.67	661.519
715.721	665.841
715.773	655.526
715.824	657.122
715.875	665.808
715.927	656.476
715.978	667.573
716.029	662.357
716.081	660.355
716.132	654.23
716.184	657.489
716.235	648.867
716.286	648.197
716.338	642.632
716.389	647.146
716.44	642.198
716.492	656.695
716.543	648.346
716.594	641.003
716.646	640.02
716.697	650.827
716.749	653.169
716.8	651.488
716.851	641.284
716.903	634.813
716.954	637.223
717.005	641.387
717.057	646.561
717.108	645.379
717.159	654.971
717.211	660.392
717.262	647.37
717.314	643.286
717.365	649.896
717.416	645.013
717.468	642.498
717.519	645.689
717.57	646.006
717.622	646.259
717.673	639.072
717.724	650.265
717.776	621.642
717.827	625.918
717.878	635.61
717.93	642.748
717.981	627.148
718.032	634.44
718.084	633.315
718.135	642.122
718.187	644.542
718.238	638.066
718.289	632.723
718.341	625.149
718.392	630.648
718.443	639.427
718.495	631.743
718.546	636.662
718.597	633.687
718.649	621.809
718.7	631.497
718.751	629.21
718.803	630.852
718.854	628.512
718.905	630.917
718.957	632.645
719.008	625.254
719.059	630.065
719.111	626.344
719.162	621.307
719.213	621.308
719.265	626.216
719.316	628.145
719.367	627.648
719.419	632.339
719.47	640.136
719.521	634.681
719.573	617.493
719.624	626.85
719.675	628.614
719.727	621.414
719.778	624.07
719.829	614.827
719.881	608.258
719.932	621.297
719.983	616.586
720.035	617.275
720.086	611.731
720.137	624.265
720.189	632.859
720.24	604.832
720.291	608.428
720.343	608.452
720.394	618.753
720.445	619.744
720.496	609.439
720.548	612.519
720.599	610.974
720.65	597.261
720.702	602.938
720.753	619.753
720.804	614.978
720.856	613.3
720.907	605.949
720.958	605.717
721.01	585.053
721.061	594.228
721.112	603.714
721.164	605.947
721.215	609.172
721.266	600.958
721.318	608.612
721.369	600.436
721.42	598.816
721.471	584.713
721.523	601.281
721.574	605.708
721.625	601.058
721.677	596.639
721.728	592.113
721.779	590.471
721.831	592.781
721.882	602.52
721.933	593.123
721.984	600.471
722.036	595.592
722.087	605.989
722.138	598.999
722.19	597.075
722.241	591.96
722.292	602.68
722.344	590.787
722.395	594.674
722.446	593.088
722.497	590.218
722.549	591.779
722.6	591.623
722.651	584.446
722.703	595.96
722.754	599.453
722.805	586.238
722.857	582.043
722.908	590.743
722.959	591.4
723.01	592.972
723.062	587.38
723.113	589.906
723.164	589.175
723.216	579.987
723.267	572.235
723.318	570.705
723.369	585.957
723.421	574.017
723.472	590.753
723.523	593.717
723.575	597.464
723.626	590.538
723.677	579.036
723.728	585.446
723.78	572.446
723.831	568.695
723.882	569.836
723.934	581.023
723.985	582.736
724.036	574.93
724.087	578.313
724.139	587.754
724.19	589.432
724.241	579.288
724.292	569.678
724.344	563.04
724.395	563.021
724.446	569.053
724.498	565.729
724.549	565.618
724.6	564.913
724.651	568.523
724.703	574.533
724.754	578.756
724.805	583.632
724.856	566.448
724.908	577.599
724.959	565.959
725.01	558.659
725.062	574.268
725.113	568.323
725.164	569.307
725.215	566.642
725.267	568.497
725.318	568.833
725.369	572.632
725.42	578.67
725.472	574.535
725.523	554.873
725.574	555.636
725.625	558.463
725.677	575.72
725.728	566.545
725.779	573.009
725.83	568.179
725.882	570.255
725.933	563.298
725.984	575.881
726.036	574.011
726.087	560.436
726.138	554.702
726.189	569.864
726.241	562.748
726.292	557.816
726.343	564.002
726.394	561.864
726.445	576.124
726.497	557.26
726.548	554.796
726.599	562.156
726.651	544.537
726.702	565.007
726.753	564.728
726.804	546.364
726.855	556.359
726.907	567.742
726.958	560.325
727.009	546.712
727.06	547.483
727.112	554.78
727.163	548.839
727.214	560.628
727.265	557.627
727.317	556.395
727.368	570.794
727.419	558.911
727.47	548.824
727.522	540.331
727.573	547.678
727.624	557.66
727.675	531.623
727.727	550.92
727.778	543.449
727.829	535.712
727.88	536.744
727.932	531.666
727.983	536.54
728.034	540.758
728.085	541.476
728.136	530.039
728.188	546.105
728.239	536.45
728.29	534.423
728.341	537.901
728.393	538.917
728.444	525.419
728.495	555.045
728.546	536.219
728.597	525.48
728.649	532.444
728.7	549.393
728.751	537.705
728.802	531.269
728.854	516.16
728.905	520.008
728.956	521.118
729.007	536.233
729.058	538.928
729.11	508.284
729.161	515.519
729.212	530.755
729.263	536.763
729.315	513.414
729.366	520.355
729.417	522.852
729.468	530.616
729.519	524.78
729.571	522.21
729.622	530.354
729.673	543.509
729.724	512.852
729.775	512.604
729.827	514.28
729.878	507.537
729.929	542.92
729.98	522.095
730.031	513.001
730.083	518.745
730.134	514.891
730.185	507.044
730.236	530.739
730.288	523.995
730.339	512.31
730.39	514.648
730.441	503.174
730.492	517.902
730.544	509.883
730.595	516.036
730.646	524.521
730.697	504.717
730.748	506.758
730.8	520.667
730.851	519.477
730.902	515.111
730.953	504.185
731.004	514.623
731.056	511.727
731.107	498.581
731.158	512.155
731.209	504.989
731.26	493.246
731.312	507.708
731.363	518.972
731.414	519.599
731.465	509.974
731.516	494.987
731.567	496.11
731.619	487.821
731.622	487.215
731.673	522.52
731.725	516.889
731.776	510.832
731.827	505.87
731.878	520.044
731.93	518.819
731.981	500.567
732.032	510.701
732.084	507.119
732.135	517.375
732.186	496.638
732.237	501.715
732.289	511.509
732.34	492.43
732.391	515.124
732.443	513.023
732.494	518.237
732.545	496.417
732.597	485.069
732.648	494.366
732.699	498.138
732.75	500.762
732.802	498.664
732.853	504.799
732.904	499.311
732.956	498.318
733.007	485.543
733.058	503.259
733.109	490.076
733.161	491.764
733.212	491.583
733.263	498.228
733.315	502.865
733.366	498.816
733.417	497.51
733.468	510.899
733.52	508.862
733.571	501.922
733.622	496.552
733.673	489.384
733.725	510.063
733.776	497.096
733.827	495.189
733.879	501.73
733.93	487.605
733.981	493.118
734.032	490.699
734.084	497.545
734.135	508.242
734.186	481.198
734.237	491.834
734.289	492.841
734.34	495.316
734.391	494.788
734.443	503.744
734.494	513.793
734.545	494.891
734.596	492.307
734.648	514.479
734.699	497.507
734.75	495.943
734.801	505.168
734.853	501.701
734.904	498.814
734.955	503.599
735.006	493.609
735.058	500.062
735.109	514.199
735.16	509.334
735.211	502.331
735.263	512.847
735.314	504.732
735.365	514.57
735.417	505.245
735.468	514.571
735.519	518.407
735.57	530.68
735.622	518.111
735.673	514.853
735.724	517.146
735.775	511.877
735.827	516.076
735.878	508.636
735.929	509.036
735.98	518.053
736.032	525.47
736.083	516.055
736.134	530.842
736.185	539.808
736.237	534.384
736.288	522.66
736.339	531.774
736.39	525.506
736.442	522.572
736.493	532.739
736.544	528.393
736.595	528.944
736.646	547.015
736.698	544.321
736.749	548.376
736.8	546.672
736.851	535.456
736.903	545.427
736.954	536.155
737.005	535.154
737.056	540.528
737.108	555.652
737.159	540.203
737.21	534.127
737.261	541.881
737.313	537.441
737.364	551.577
737.415	551.314
737.466	551.002
737.518	562.587
737.569	574.21
737.62	571.654
737.671	571.711
737.722	578.742
737.774	570.744
737.825	562.244
737.876	567.064
737.927	559.811
737.979	568.35
738.03	577.568
738.081	580.549
738.132	583.571
738.183	573.822
738.235	577.514
738.286	572.139
738.337	574.724
738.388	576.186
738.44	571.734
738.491	568.925
738.542	574.759
738.593	573.775
738.644	573.972
738.696	562.479
738.747	573.722
738.798	563.389
738.849	573.896
738.901	566.498
738.952	552.4
739.003	559.641
739.054	551.043
739.105	557.88
739.157	559.425
739.208	551.579
739.259	548.361
739.31	558.972
739.361	558.87
739.413	550.992
739.464	540.326
739.515	534.009
739.566	543.603
739.617	549.742
739.669	544.551
739.72	530.789
739.771	530.427
739.822	521.617
739.874	533.578
739.925	531.507
739.976	528.661
740.027	526.507
740.078	516.244
740.13	515.828
740.181	513.839
740.232	514.392
740.283	513.153
740.334	509.624
740.385	516.464
740.437	510.136
740.488	501.751
740.539	507.638
740.59	495.718
740.641	495.943
740.693	501.855
740.744	501.572
740.795	496.472
740.846	495
740.897	496.727
740.949	491.032
741	498.269
741.051	497.746
741.102	484.429
741.153	484.757
741.205	476.157
741.256	484.754
741.307	485.18
741.358	495.758
741.409	493.898
741.461	487.073
741.512	481.384
741.563	482.182
741.614	474.979
741.665	469.052
741.716	466.11
741.768	471.843
741.819	472.27
741.87	474.68
741.921	471.129
741.972	475.076
742.024	477.271
742.075	465.192
742.126	464.603
742.177	468.224
742.228	467.509
742.279	464.796
742.331	467.055
742.382	467.37
742.433	461.638
742.484	470.083
742.535	461.558
742.586	459.082
742.638	463.276
742.689	461.585
742.74	457.844
742.791	460.508
742.842	467.923
742.893	464.701
742.945	449.028
742.996	447.767
743.047	452.846
743.098	457.426
743.149	457.848
743.201	460.914
743.252	454.682
743.303	459.677
743.354	442.229
743.405	441.5
743.456	446.885
743.507	443.969
743.559	452.219
743.61	451.528
743.661	449.688
743.712	438.995
743.763	441.178
743.814	445.036
743.866	442.724
743.917	449.357
743.968	437.822
744.019	437.034
744.07	437.02
744.121	437.858
744.172	440.318
744.224	434.586
744.275	437.255
744.326	439.931
744.377	435.403
744.428	433.565
744.479	438.061
744.531	436.856
744.582	428.313
744.633	434.032
744.684	438.623
744.735	440.967
744.786	432.735
744.837	431.75
744.889	429.169
744.94	430.294
744.991	431.035
745.042	439.754
745.093	437.697
745.144	427.13
745.195	424.127
745.247	422.857
745.298	430.77
745.349	425.711
745.4	425.752
745.451	429.763
745.502	429.11
745.553	422.512
745.605	420.723
745.656	425.906
745.707	411.067
745.758	419.54
745.809	427.693
745.86	413.104
745.911	423.302
745.962	422.733
746.014	424.767
746.065	415.042
746.116	415.715
746.167	420.658
746.218	416.314
746.269	421.253
746.32	420.012
746.372	418.706
746.423	427.132
746.474	420.455
746.525	415.331
746.576	415.008
746.627	420.703
746.678	423.654
746.729	422.464
746.78	412.838
746.832	406.75
746.883	414.927
746.934	409.403
746.985	414.654
747.036	409.263
747.087	414.417
747.138	414.553
747.189	412.198
747.241	417.791
747.292	413.646
747.343	414.574
747.394	419.889
747.445	420.841
747.496	417.381
747.547	411.985
747.598	418.324
747.649	418.757
747.701	413.719
747.752	412.501
747.803	411.959
747.854	403.98
747.905	404.48
747.956	413.064
748.007	399.084
748.058	397.168
748.109	405.405
748.161	406.636
748.212	388.223
748.263	406.888
748.314	405.946
748.365	392.889
748.416	386.735
748.467	401.745
748.518	406.791
748.569	398.971
748.62	400.18
748.672	400.534
748.723	398.42
748.774	396.937
748.825	395.123
748.876	403.008
748.927	399.002
748.978	395.548
749.029	406.482
749.08	413.388
749.131	404.747
749.173	395.165
749.224	395.199
749.275	392.131
749.326	401.034
749.378	410.214
749.429	417.65
749.48	398.056
749.531	401.8
749.582	395.717
749.634	392.885
749.685	390.486
749.736	402.078
749.787	387.929
749.838	400.53
749.89	403.582
749.941	387.589
749.992	386.83
750.043	398.639
750.094	394.225
750.146	392.07
750.197	398.835
750.248	392.889
750.299	399.26
750.35	396.122
750.401	394.496
750.453	400.126
750.504	400.257
750.555	394.584
750.606	388.588
750.657	377.666
750.709	384.731
750.76	383.107
750.811	403.882
750.862	380.706
750.913	383.426
750.964	384.766
751.016	383.891
751.067	387.451
751.118	393.414
751.169	384.38
751.22	383.748
751.272	375.893
751.323	394.103
751.374	383.934
751.425	377.795
751.476	379.837
751.528	380.711
751.579	358.192
751.63	376.244
751.681	365.276
751.732	373.827
751.783	391.239
751.835	380.881
751.886	362.524
751.937	368.342
751.988	374.221
752.039	376.708
752.09	367.005
752.142	377.744
752.193	377.411
752.244	367.433
752.295	387.095
752.346	360.611
752.397	370.166
752.449	385.829
752.5	364.839
752.551	373.157
752.602	370.148
752.653	367.917
752.704	377.236
752.756	364.537
752.807	365.952
752.858	358.125
752.909	374.012
752.96	363.15
753.011	372.788
753.063	357.391
753.114	386.46
753.165	366.25
753.216	354.733
753.267	371.805
753.318	370.012
753.37	364.7
753.421	360.621
753.472	356.79
753.523	376.303
753.574	366.653
753.625	371.471
753.676	363.921
753.728	368.365
753.779	366.128
753.83	362.479
753.881	362.519
753.932	369.953
753.983	364.519
754.034	367.404
754.086	366.072
754.137	365.055
754.188	352.422
754.239	358.852
754.29	354.645
754.341	359.343
754.393	352.72
754.444	365.551
754.495	354.171
754.546	356.657
754.597	355.055
754.648	353.433
754.699	372.08
754.75	365.547
754.802	349.803
754.853	358.797
754.904	350.272
754.955	348.36
755.006	368.883
755.057	354.281
755.108	363.807
755.16	345.923
755.211	347.874
755.262	362.862
755.313	359.784
755.364	339.367
755.415	354.621
755.466	355.017
755.518	352.371
755.569	350.448
755.62	351.694
755.671	350.765
755.722	340.579
755.773	348.8
755.824	354.513
755.875	348.389
755.927	345.199
755.978	354.315
756.029	327.213
756.08	344.033
756.131	349.461
756.182	342.673
756.233	348.971
756.284	334.763
756.336	350.696
756.387	351.348
756.438	340.364
756.489	337.584
756.54	328.999
756.591	335.347
756.642	332.182
756.693	339.468
756.745	345.245
756.796	340.862
756.847	350.8
756.898	337.382
756.949	348.743
757	337.683
757.051	354.358
757.102	340.721
757.153	350.761
757.205	330.764
757.256	327.258
757.307	334.681
757.358	334.765
757.409	343.653
757.46	337.341
757.511	343.453
757.562	338.25
757.613	332.72
757.664	335.413
757.716	322.909
757.767	335.832
757.818	345.276
757.869	326.343
757.92	321.173
757.971	339.807
758.022	328.064
758.073	332.701
758.124	330.541
758.175	333.554
758.227	322.652
758.278	335.335
758.329	324.503
758.38	330.735
758.431	340.87
758.482	328.927
758.533	327.087
758.584	325.903
758.635	321.378
758.686	330
758.738	330.573
758.789	327.009
758.84	338.769
758.891	321.406
758.942	329.825
758.993	322.213
759.044	329.824
759.095	330.888
759.146	322.451
759.197	321.915
759.248	326.173
759.3	326.972
759.351	324.853
759.402	316.807
759.453	329
759.504	324.271
759.555	317.218
759.606	321.898
759.657	324.71
759.708	332
759.759	323.009
759.81	324.596
759.861	322.416
759.913	321.278
759.964	319.465
760.015	318.37
760.066	317.265
760.117	314.183
760.168	311.075
760.219	315.239
760.27	308.014
760.321	310.467
760.372	319.382
760.423	316.842
760.474	322.804
760.525	322.621
760.576	313.154
760.628	318.372
760.679	317.268
760.73	310.238
760.781	316.861
760.832	318.867
760.883	307.971
760.934	318.216
760.985	312.879
761.036	308.984
761.087	311.939
761.138	309.978
761.189	308.796
761.24	300.801
761.291	306.08
761.342	317.346
761.393	318.684
761.445	309.382
761.496	311.005
761.547	307.126
761.598	300.329
761.649	306.482
761.7	306.737
761.751	315.963
761.802	311.42
761.853	306.802
761.904	301.105
761.955	303.996
762.006	306.654
762.057	304.256
762.108	303.929
762.159	307.423
762.21	300.258
762.261	303.888
762.313	306.939
762.364	308.732
762.415	301.089
762.466	299.772
762.517	310.51
762.568	304.985
762.619	297.352
762.67	297.59
762.721	301.163
762.772	305.333
762.823	310.203
762.874	313.69
762.925	309.413
762.976	301.799
763.027	293.849
763.078	295.267
763.129	304.021
763.18	299.501
763.231	294.151
763.282	296.11
763.333	297.528
763.384	296.691
763.435	291.31
763.486	294.4
763.537	303.179
763.589	308.194
763.64	300.885
763.691	300.594
763.742	296.995
763.793	294.173
763.844	296.08
763.895	295.552
763.946	296.959
763.997	289.803
764.048	286.88
764.099	286.415
764.15	298.035
764.201	299.815
764.252	290.849
764.303	299.849
764.354	298.733
764.405	294.523
764.456	289.714
764.507	288.791
764.558	291.056
764.609	290.839
764.66	284.216
764.711	284.276
764.762	288.169
764.813	292.142
764.864	295.117
764.915	293.849
764.966	296.404
765.017	295.084
765.068	292.116
765.119	294.283
765.17	294.38
765.221	288.501
765.272	284.175
765.323	284.432
765.374	283.996
765.425	282.985
765.476	286.19
765.527	292.642
765.578	289.359
765.629	282.534
765.68	278.929
765.731	273.995
765.782	279.178
765.833	281.671
765.884	283.15
765.935	283.791
765.986	277.421
766.037	274.629
766.088	275.158
766.139	283.788
766.19	293.474
766.241	285.43
766.292	276.532
766.343	285.662
766.394	290.743
766.445	284.543
766.496	278.832
766.547	281.897
766.598	285.312
766.649	288.037
766.677	281.475
766.729	282.964
766.78	271.671
766.831	289.905
766.882	276.665
766.933	285.537
766.984	274.311
767.035	274.632
767.086	277.847
767.137	290.439
767.188	278.814
767.24	278.452
767.291	267.728
767.342	260.652
767.393	270.476
767.444	275.833
767.495	282.13
767.546	272.63
767.597	273.83
767.648	262.711
767.7	272.444
767.751	279.412
767.802	275.322
767.853	269.135
767.904	276.407
767.955	270.151
768.006	263.019
768.057	274.942
768.108	258.324
768.159	270.955
768.21	265.964
768.262	267.719
768.313	267.249
768.364	273.917
768.415	271.203
768.466	266.767
768.517	264.249
768.568	267.901
768.619	266.39
768.67	270.547
768.721	262.03
768.772	276.554
768.823	260.408
768.875	259.749
768.926	268.933
768.977	272.881
769.028	257.026
769.079	264.952
769.13	264.829
769.181	265.103
769.232	262.881
769.283	261.234
769.334	261.448
769.385	265.584
769.436	261.381
769.488	250.094
769.539	263.527
769.59	254.273
769.641	255.008
769.692	252.701
769.743	262.708
769.794	259.147
769.845	250.214
769.896	262.734
769.947	254.851
769.998	253.156
770.049	252.388
770.1	255.473
770.151	249.343
770.203	260.149
770.254	253.274
770.305	248.408
770.356	253.574
770.407	258.514
770.458	249.776
770.509	251.842
770.56	254.245
770.611	251.921
770.662	251.868
770.713	247.578
770.764	249.068
770.815	243.99
770.866	253.667
770.917	249.011
770.968	247.178
771.02	253.683
771.071	253.274
771.122	255.618
771.173	256.637
771.224	257.521
771.275	252.043
771.326	239.938
771.377	238.445
771.428	246.22
771.479	235.41
771.53	244.103
771.581	239.792
771.632	245.456
771.683	246.553
771.734	241.498
771.785	248.875
771.836	241.432
771.887	239.913
771.938	235.67
771.99	249.603
772.041	237.158
772.092	243.916
772.143	247.57
772.194	234.725
772.245	241.366
772.296	244.999
772.347	244.726
772.398	250.398
772.449	242.376
772.5	242.457
772.551	241.702
772.602	242.663
772.653	233.212
772.704	238.703
772.755	238.148
772.806	245.414
772.857	238.873
772.908	234.782
772.959	229.944
773.01	235.366
773.061	226.955
773.112	234.529
773.163	231.205
773.214	237.665
773.265	231.271
773.316	233.498
773.367	235.341
773.419	234.007
773.47	234.551
773.521	231.879
773.572	237.923
773.623	234.583
773.674	230.119
773.725	237.585
773.776	233.852
773.827	232.49
773.878	231.496
773.929	229.386
773.98	231.904
774.031	229.982
774.082	225.509
774.133	232.368
774.184	233.635
774.235	232.402
774.286	225.793
774.337	228.165
774.388	228.641
774.439	233.638
774.49	229.116
774.541	238.302
774.592	235.864
774.643	227.434
774.694	227.35
774.745	222.988
774.796	227.174
774.847	226.558
774.898	224.585
774.949	224.316
775	230.715
775.051	231.663
775.102	230.543
775.153	229.075
775.204	222.338
775.255	220.559
775.306	226.733
775.357	218.607
775.408	225.673
775.459	223.412
775.51	223.316
775.561	224.741
775.612	223.577
775.663	231.288
775.714	224.216
775.765	219.245
775.816	224.904
775.867	225.928
775.918	220.701
775.969	223.31
776.02	219.073
776.071	224.61
776.122	215.275
776.173	214.936
776.224	215.722
776.275	215.175
776.326	219.908
776.377	218.551
776.428	215.294
776.479	213.132
776.53	216.507
776.581	219.611
776.632	219.713
776.683	210.741
776.734	211.496
776.785	217.184
776.836	212.661
776.887	211.89
776.938	214.739
776.989	215.557
777.04	218.732
777.091	222.527
777.142	215.631
777.193	215.256
777.244	220.191
777.295	216.33
777.346	219.879
777.397	217.625
777.448	216.625
777.499	214.518
777.55	212.704
777.601	212.631
777.652	208.71
777.703	206.174
777.754	207.428
777.805	210.109
777.856	209.961
777.907	205.006
777.958	205.045
778.009	211.033
778.06	211.757
778.111	205.093
778.161	213.481
778.212	215.313
778.263	212.658
778.314	205.281
778.365	209.623
778.416	206.611
778.467	205.776
778.518	210.044
778.569	202.707
778.62	206.406
778.671	208.738
778.722	204.299
778.773	203.037
778.824	199.09
778.875	204.711
778.926	209.062
778.977	207.74
779.028	201.492
779.079	202.74
779.13	208.113
779.181	205.416
779.232	197.291
779.283	195.009
779.334	201.901
779.385	201.758
779.436	202.871
779.487	204.14
779.537	205.192
779.588	203.843
779.639	197.066
779.69	197.963
779.741	195.569
779.792	199.197
779.843	205.578
779.894	199.926
779.945	199.359
779.996	197.046
780.047	196.241
780.098	196.837
780.149	196.897
780.2	196.997
780.251	197.181
780.302	200.918
780.353	202.248
780.404	197.939
780.455	199.858
780.505	200.549
780.556	199.753
780.607	201.659
780.658	197.442
780.709	203.288
780.76	192.775
780.811	196.116
780.862	197.402
780.913	192.481
780.964	190.905
781.015	190.945
781.066	195.411
781.117	192.005
781.168	186.125
781.219	194.947
781.27	195.268
781.32	191.205
781.371	186.63
781.422	192.217
781.473	198.105
781.524	193.496
781.575	193.91
781.626	191
781.677	181.711
781.728	193.048
781.779	191.07
781.83	185.706
781.881	191.342
781.932	191.378
781.983	184.842
782.033	190.89
782.084	195.262
782.135	188.666
782.186	185.898
782.237	182.971
782.288	179.976
782.339	184.417
782.39	190.486
782.441	189.05
782.492	190.488
782.543	192.201
782.594	193.03
782.644	191.559
782.695	183.877
782.746	185.969
782.797	188.341
782.848	190.744
782.899	189.097
782.95	180.464
783.001	178.822
783.052	185.75
783.103	184.25
783.154	173.697
783.204	180.133
783.255	184.567
783.306	183.682
783.357	183.579
783.408	182.17
783.459	188.388
783.51	187.503
783.561	188.414
783.612	183.296
783.663	173.629
783.714	179.655
783.764	175.54
783.815	178.219
783.866	181.523
783.917	189.648
783.968	181.693
784.019	174.919
784.07	182.168
784.109	193.723
784.16	168.675
784.211	179.706
784.262	184.744
784.313	184.208
784.364	182.012
784.415	176.188
784.466	179.562
784.517	187.447
784.568	183.308
784.619	180.652
784.67	173.595
784.721	178.563
784.772	172.137
784.823	174.957
784.874	163.796
784.925	184.388
784.976	164.999
785.027	179.652
785.078	177.07
785.129	183.26
785.18	169.853
785.231	179.519
785.282	174.882
785.333	172.568
785.384	170.271
785.435	176.421
785.486	169.834
785.537	179.405
785.588	173.055
785.639	183.089
785.69	168.829
785.741	173.548
785.792	170.047
785.843	180.879
785.894	168.075
785.945	182.328
785.996	175.972
786.047	173.067
786.098	166.371
786.149	175.882
786.2	161.038
786.251	168.667
786.302	168.32
786.353	166.36
786.404	171.982
786.455	171.064
786.506	172.077
786.557	171.439
786.608	174.998
786.659	172.042
786.71	169.75
786.761	166.392
786.812	162.783
786.863	171.124
786.914	173.876
786.965	166.741
787.016	160.639
787.067	167.083
787.118	173.634
787.169	170.874
787.22	174.484
787.271	163.268
787.322	159.978
787.373	163.872
787.424	167.692
787.475	165.639
787.526	177.165
787.576	161.785
787.627	166.296
787.678	165.281
787.729	164.484
787.78	156.408
787.831	167.561
787.882	158.092
787.933	167.297
787.984	159.252
788.035	160.234
788.086	163.411
788.137	164.481
788.188	160.573
788.239	156.823
788.29	156.147
788.341	166.448
788.392	167.813
788.443	164.33
788.494	168.734
788.545	164.213
788.596	164.292
788.647	158.607
788.698	155.612
788.749	161.052
788.8	157.335
788.851	163.902
788.901	153.963
788.952	158.713
789.003	152.672
789.054	151.64
789.105	155.761
789.156	161.25
789.207	155.812
789.258	156.797
789.309	154.293
789.36	165.45
789.411	157.505
789.462	155.428
789.513	157.399
789.564	154.571
789.615	160.705
789.666	164.041
789.717	158.903
789.768	154.342
789.819	156.513
789.87	156.054
789.92	152.889
789.971	154.771
790.022	152.018
790.073	158.631
790.124	155.954
790.175	158.625
790.226	152.964
790.277	162.172
790.328	152.915
790.379	153.398
790.43	152.632
790.481	149.332
790.532	151.507
790.583	148.621
790.634	147.652
790.685	147.372
790.735	151.581
790.786	158.244
790.837	157.775
790.888	141.978
790.939	144.59
790.99	151.569
791.041	150.853
791.092	150.348
791.143	149.199
791.194	157.909
791.245	153.768
791.296	151.692
791.347	149.902
791.397	141.047
791.448	154.798
791.499	154.098
791.55	153.738
791.601	155.079
791.652	143.13
791.703	148.152
791.754	150.817
791.805	145.489
791.856	147.271
791.907	143.296
791.958	148.036
792.008	147.555
792.059	143.059
792.11	143.205
792.161	147.863
792.212	147.405
792.263	141.868
792.314	143.017
792.365	143.94
792.416	147.475
792.467	148.975
792.518	145.883
792.569	144.098
792.619	146.445
792.67	141.882
792.721	143.725
792.772	145.461
792.823	149.312
792.874	149.508
792.925	144.097
792.976	141.024
793.027	142.504
793.078	140.228
793.128	139.143
793.179	145.151
793.23	141.975
793.281	147.126
793.332	137.573
793.383	137.503
793.434	140.582
793.485	143.351
793.536	145.577
793.587	143.225
793.638	134.888
793.688	144.544
793.739	143.327
793.79	141.493
793.841	140.818
793.892	140.076
793.943	146.234
793.994	143.26
794.045	143.684
794.096	137.148
794.146	140.257
794.197	143.651
794.248	142.358
794.299	139.789
794.35	134.437
794.401	141.062
794.452	148.644
794.503	144.191
794.554	135.68
794.604	142.588
794.655	142.889
794.706	138.224
794.757	131.109
794.808	140.34
794.859	141.522
794.91	141.634
794.961	136.227
795.011	140.507
795.062	136.944
795.113	141.36
795.164	140.27
795.215	135.698
795.266	136.796
795.317	138.814
795.368	137.113
795.418	139.968
795.469	135.4
795.52	138.812
795.571	135.739
795.622	135.311
795.673	135.556
795.724	134.464
795.775	134.522
795.825	132.788
795.876	129.302
795.927	131.769
795.978	135.7
796.029	131.226
796.08	131.329
796.131	129.403
796.181	139.591
796.232	133.819
796.283	132.162
796.334	137.953
796.385	134.591
796.436	133.012
796.487	125.869
796.537	127.112
796.588	127.308
796.639	128.222
796.69	128.681
796.741	125.139
796.792	132.6
796.843	135.293
796.893	128.152
796.944	128.321
796.995	127.772
797.046	132.771
797.097	131.22
797.148	129.989
797.199	130.064
797.249	132.039
797.3	129.895
797.351	129.248
797.402	131.21
797.453	129.326
797.504	131.858
797.555	128.85
797.605	128.249
797.656	125.217
797.707	128.795
797.758	130.869
797.809	129.934
797.86	131.378
797.91	129.026
797.961	129.863
798.012	130.233
798.063	129.814
798.114	127.82
798.165	123.689
798.216	124.883
798.266	122.088
798.317	129.863
798.368	128.551
798.419	125.47
798.47	125.204
798.521	124.242
798.571	126.969
798.622	131.213
798.673	126.842
798.724	126.373
798.775	125.496
798.826	129.947
798.876	124.87
798.927	121.252
798.978	127.157
799.029	127.053
799.08	130.581
799.13	127.036
799.181	125.891
799.232	127.874
799.283	120.077
799.334	121.832
799.385	122.803
799.435	128.05
799.486	126.66
799.537	126.653
799.588	123.666
799.639	125.146
799.69	123.443
799.74	119.742
799.791	115.831
799.842	124.586
799.893	121.633
799.944	122.418
799.994	127.772
800.045	128.49
800.096	125.399
800.147	127.697
800.198	132.027
800.248	131.003
800.299	116.128
800.35	113.041
800.401	120.357
800.452	122.101
800.503	127.077
800.553	123.364
800.604	120.691
800.655	121.878
800.706	118.477
800.757	115.721
800.807	119.077
800.858	115.084
800.909	118.278
800.96	120.151
801.011	112.941
801.061	121.182
801.112	120.594
801.163	122.181
801.214	120.313
801.265	120.603
801.315	122.308
801.366	119.692
801.417	119.769
801.457	120
801.508	115.495
801.558	110.262
801.609	118.496
801.66	114.059
801.711	119.422
801.762	121.026
801.813	114.5
801.864	115.107
801.915	108.959
801.966	114.793
802.017	106.702
802.068	111.641
802.118	120.839
802.169	107.942
802.22	116.892
802.271	118.373
802.322	122.095
802.373	113.617
802.424	115.117
802.475	113.294
802.526	118.756
802.577	116.138
802.627	115.831
802.678	113.333
802.729	117.759
802.78	113.089
802.831	112.344
802.882	123.259
802.933	120.343
802.984	109.751
803.035	111.325
803.086	98.4386
803.136	111.92
803.187	114.086
803.238	116.126
803.289	114.977
803.34	115.337
803.391	108.566
803.442	106.889
803.493	117.546
803.544	114.065
803.594	113.447
803.645	104.777
803.696	103.217
803.747	108.982
803.798	109.498
803.849	107.361
803.9	111.865
803.951	110.498
804.002	109.728
804.052	113.795
804.103	111.637
804.154	104.738
804.205	105.768
804.256	111.581
804.307	107.088
804.358	107.843
804.409	112.157
804.459	109.759
804.51	113.28
804.561	109.555
804.612	120.614
804.663	110.262
804.714	107.911
804.765	107.44
804.816	108.477
804.866	109.325
804.917	115.047
804.968	112.715
805.019	107.833
805.07	103.399
805.121	108.702
805.172	103.159
805.223	109.24
805.273	109.456
805.324	107.017
805.375	100.963
805.426	110.289
805.477	99.9059
805.528	109.917
805.579	109.784
805.629	115.752
805.68	106.501
805.731	105.78
805.782	105.798
805.833	106.337
805.884	104.328
805.935	110.308
805.985	108.202
806.036	111.954
806.087	103.521
806.138	101.41
806.189	99.4818
806.24	98.1351
806.291	107.476
806.341	106.686
806.392	103.644
806.443	97.9212
806.494	110.698
806.545	106.878
806.596	104.103
806.647	101.098
806.697	99.5546
806.748	107.15
806.799	106.357
806.85	107.153
806.901	95.4533
806.952	104.318
807.003	100.576
807.053	101.578
807.104	104.512
807.155	97.2786
807.206	105.435
807.257	108.644
807.308	104.418
807.358	103.847
807.409	102.748
807.46	101.924
807.511	104.232
807.562	108.403
807.613	95.0221
807.663	102.196
807.714	108.988
807.765	104.559
807.816	101.977
807.867	101.312
807.918	102.422
807.969	104.417
808.019	97.405
808.07	93.1365
808.121	101.969
808.172	96.995
808.223	95.8155
808.273	101.642
808.324	112.525
808.375	100.324
808.426	97.3972
808.477	91.7636
808.528	98.7422
808.578	100.411
808.629	106.737
808.68	100.597
808.731	105.107
808.782	93.7067
808.833	93.9725
808.883	98.1948
808.934	97.6971
808.985	101.33
809.036	103.05
809.087	96.6427
809.138	99.1919
809.188	95.5773
809.239	104.015
809.29	101.631
809.341	100.974
809.392	95.8919
809.442	99.8794
809.493	98.1142
809.544	99.1909
809.595	98.7632
809.646	97.7814
809.696	98.0819
809.747	98.1552
809.798	101.28
809.849	102.258
809.9	94.9167
809.951	98.4423
810.001	101.755
810.052	103.249
810.103	94.0866
810.154	100.042
810.205	97.6896
810.255	94.8157
810.306	98.9582
810.357	98.3989
810.408	95.095
810.459	100.043
810.509	98.1216
810.56	98.6916
810.611	104.056
810.662	99.3989
810.713	95.2056
810.763	98.6448
810.814	92.6266
810.865	91.5363
810.916	94.5365
810.967	94.0721
811.017	97.7415
811.068	100.163
811.119	93.6954
811.17	95.2957
811.221	99.7847
811.271	92.8117
811.322	97.5182
811.373	99.0945
811.424	93.2599
811.474	92.9827
811.525	92.0763
811.576	94.9876
811.627	94.9487
811.678	95.1932
811.728	92.8542
811.779	95.8106
811.83	100.867
811.881	93.5907
811.932	91.2857
811.982	92.3559
812.033	94.2148
812.084	95.1741
812.135	93.0572
812.185	92.2027
812.236	95.3855
812.287	93.5466
812.338	92.2732
812.389	92.2758
812.439	95.2332
812.49	94.8831
812.541	90.542
812.592	91.9733
812.642	88.975
812.693	85.9229
812.744	86.391
812.795	90.6261
812.846	99.5196
812.896	90.6139
812.947	90.8746
812.998	90.568
813.049	86.8838
813.099	88.5798
813.15	97.0468
813.201	91.493
813.252	96.2814
813.302	89.0331
813.353	89.025
813.404	90.5521
813.455	94.1504
813.506	88.9414
813.556	86.3532
813.607	91.2765
813.658	93.5784
813.709	91.2746
813.759	96.5057
813.81	89.6371
813.861	93.9949
813.912	90.6002
813.962	92.6524
814.013	87.7878
814.064	95.0948
814.115	94.0383
814.165	94.8862
814.216	91.3286
814.267	91.3743
814.318	90.399
814.368	90.2324
814.419	90.7841
814.47	90.8946
814.521	91.7039
814.571	92.3275
814.622	95.5719
814.673	91.2569
814.724	93.0744
814.774	92.6968
814.825	86.6575
814.876	86.4311
814.927	93.0367
814.977	93.8862
815.028	95.4013
815.079	86.8864
815.13	89.5399
815.18	89.8461
815.231	88.3228
815.282	86.4847
815.333	87.6368
815.383	89.4537
815.434	88.5715
815.485	85.5156
815.536	86.7122
815.586	85.5
815.637	85.2031
815.688	83.4443
815.739	89.6805
815.789	84.4723
815.84	86.1787
815.891	85.8298
815.941	90.5209
815.992	88.6516
816.043	87.9852
816.094	90.0955
816.144	91.2704
816.195	87.8364
816.246	86.7109
816.297	84.6432
816.347	86.1337
816.398	83.75
816.449	82.8736
816.499	82.1947
816.55	85.9556
816.601	83.5756
816.652	87.4828
816.702	86.0034
816.753	87.6841
816.804	85.9105
816.855	83.5245
816.905	79.4342
816.956	86.1725
817.007	85.6478
817.057	85.8805
817.108	86.1992
817.159	82.1025
817.21	82.3676
817.26	82.9748
817.311	81.909
817.362	85.3027
817.412	80.1343
817.463	83.9154
817.514	82.7696
817.565	83.687
817.615	86.8188
817.666	84.5445
817.717	83.0569
817.767	84.0501
817.818	82.3897
817.869	80.4305
817.919	81.6354
817.97	83.9204
818.021	84.0445
818.072	84.6857
818.122	79.4925
818.173	83.3363
818.224	86.3931
818.274	85.7984
818.325	84.9511
818.376	88.0236
818.427	82.1913
818.477	82.5837
818.528	78.0073
818.579	77.4433
818.629	79.241
818.68	84.2218
818.731	84.5402
818.781	80.5258
818.806	77.5803
818.857	83.1478
818.908	79.9466
818.959	80.1951
819.01	82.2444
819.06	76.563
819.111	77.898
819.162	82.8287
819.213	76.8665
819.264	79.1795
819.315	79.2318
819.365	80.7466
819.416	83.5675
819.467	80.8713
819.518	80.8735
819.569	86.6544
819.619	76.4791
819.67	76.9651
819.721	84.9898
819.772	78.33
819.823	76.3994
819.873	78.5908
819.924	78.5012
819.975	77.2289
820.026	75.0989
820.077	83.7252
820.127	84.6459
820.178	83.5897
820.229	77.6948
820.28	77.0815
820.331	81.7216
820.381	84.0877
820.432	71.9491
820.483	83.6905
820.534	84.2402
820.585	85.1849
820.635	82.1042
820.686	81.2904
820.737	79.1742
820.788	82.1253
820.839	76.4916
820.889	75.3845
820.94	74.08
820.991	79.5238
821.042	77.6684
821.092	83.3986
821.143	76.8846
821.194	76.8159
821.245	72.9286
821.296	78.0953
821.346	81.9219
821.397	76.6704
821.448	74.1988
821.499	74.626
821.549	77.256
821.6	75.1122
821.651	72.3501
821.702	78.4528
821.753	76.2277
821.803	76.6291
821.854	72.0542
821.905	78.1323
821.956	76.6824
822.006	75.5664
822.057	78.1603
822.108	72.762
822.159	73.0807
822.21	73.7672
822.26	76.3561
822.311	77.9149
822.362	75.2206
822.413	71.5545
822.463	70.8329
822.514	76.9436
822.565	76.9455
822.616	73.7363
822.667	74.0634
822.717	70.8301
822.768	73.3184
822.819	77.6367
822.87	68.6224
822.92	70.5961
822.971	73.9237
823.022	80.3666
823.073	75.3703
823.123	76.2374
823.174	77.5812
823.225	76.194
823.276	70.4196
823.326	72.2204
823.377	75.8622
823.428	72.7085
823.479	68.451
823.529	71.583
823.58	71.523
823.631	73.5071
823.682	71.6514
823.732	73.7492
823.783	74.3187
823.834	69.6858
823.885	73.7889
823.935	70.6523
823.986	72.182
824.037	67.4869
824.088	69.1193
824.138	71.3886
824.189	74.0106
824.24	67.0956
824.291	74.7144
824.341	71.4413
824.392	73.7449
824.443	76.4223
824.494	74.7741
824.544	73.7629
824.595	75.8039
824.646	67.7087
824.697	75.2635
824.747	71.5998
824.798	72.1553
824.849	73.2595
824.9	73.6784
824.95	75.8914
825.001	79.7388
825.052	71.1105
825.103	67.8797
825.153	68.3515
825.204	74.8108
825.255	70.6889
825.305	73.5528
825.356	71.9972
825.407	71.6129
825.458	73.881
825.508	72.9057
825.559	72.0154
825.61	74.4535
825.661	68.402
825.711	68.0295
825.762	71.5915
825.813	71.629
825.864	71.7359
825.914	65.5895
825.965	76.5581
826.016	81.3186
826.066	72.3235
826.117	74.6303
826.168	72.4714
826.219	70.9073
826.269	65.3958
826.32	65.8061
826.371	70.9901
826.421	69.2537
826.472	70.0228
826.523	68.9565
826.574	65.6858
826.624	70.177
826.675	74.2444
826.726	66.7096
826.776	70.5549
826.827	66.6702
826.878	67.6393
826.929	67.9825
826.979	69.9226
827.03	71.4522
827.081	74.9157
827.131	71.7779
827.182	73.4753
827.233	65.621
827.284	70.5861
827.334	66.4206
827.385	66.1559
827.436	65.192
827.486	69.6157
827.537	70.2779
827.588	73.1417
827.638	66.4038
827.689	65.8547
827.74	69.0179
827.791	72.1452
827.841	70.0144
827.892	68.9762
827.943	67.9314
827.993	74.9366
828.044	70.2965
828.095	72.5672
828.146	70.5337
828.196	71.0269
828.247	65.8277
828.298	68.9707
828.348	64.8319
828.399	72.7402
828.45	69.3404
828.5	68.6042
828.551	66.0533
828.602	71.1891
828.652	66.9858
828.703	69.0112
828.754	67.2848
828.805	70.5828
828.855	62.4174
828.906	67.6706
828.957	66.6686
829.007	69.8921
829.058	62.8684
829.109	65.7516
829.159	65.9417
829.21	66.9201
829.261	64.2827
829.311	68.1142
829.362	67.7371
829.413	65.7346
829.463	60.9513
829.514	66.615
829.565	67.6408
829.615	67.2852
829.666	65.2349
829.717	66.88
829.767	67.1506
829.818	64.968
829.869	61.3095
829.919	67.4507
829.97	68.1335
830.021	65.1452
830.071	65.8646
830.122	70.9919
830.173	69.4572
830.224	67.8236
830.274	64.2438
830.325	65.0417
830.376	66.8275
830.426	67.136
830.477	69.1426
830.528	67.6584
830.578	68.5091
830.629	66.9038
830.68	64.4823
830.73	67.5874
830.781	69.0064
830.831	63.029
830.882	64.4088
830.933	68.5732
830.983	63.3165
831.034	61.9304
831.085	60.3155
831.135	61.6872
831.186	64.006
831.237	65.5368
831.287	65.48
831.338	65.1006
831.389	68.4267
831.439	61.2335
831.49	65.6434
831.541	58.8149
831.591	69.2811
831.642	66.3446
831.693	66.9317
831.743	61.7892
831.794	70.1505
831.845	65.567
831.895	61.2656
831.946	64.5535
831.997	71.7158
832.047	65.5331
832.098	65.8675
832.148	64.8061
832.199	59.1664
832.25	58.8869
832.3	62.7391
832.351	64.1872
832.402	70.6414
832.452	67.6902
832.503	65.7607
832.554	66.7349
832.604	67.3414
832.655	67.2963
832.706	62.7559
832.756	61.3405
832.807	64.3491
832.857	58.4785
832.908	63.6549
832.959	66.6312
833.009	62.6182
833.06	60.6999
833.111	64.7741
833.161	69.1466
833.212	67.8778
833.263	59.9056
833.313	62.6969
833.364	61.0522
833.414	64.4607
833.465	62.4301
833.516	71.0988
833.566	65.9866
833.617	66.9411
833.668	61.6592
833.718	62.0964
833.769	65.0527
833.819	59.9384
833.87	59.7817
833.921	62.5012
833.971	61.1974
834.022	67.4661
834.073	65.5493
834.123	58.2413
834.174	58.4384
834.224	63.1514
834.275	65.8512
834.326	68.3032
834.376	64.4825
834.427	61.9486
834.477	63.7714
834.528	63.2784
834.579	63.1998
834.629	62.9287
834.68	65.8767
834.73	58.4361
834.781	67.6991
834.832	61.2122
834.882	64.1507
834.933	62.3418
834.984	68.5517
835.034	59.6485
835.085	58.7772
835.135	60.2499
835.186	67.171
835.237	60.7097
835.287	63.8309
835.338	57.5823
835.388	61.7068
835.439	56.7049
835.49	63.0611
835.54	59.8026
835.591	62.0443
835.641	61.0605
835.692	64.8468
835.743	62.9814
835.793	66.8698
835.844	59.2512
835.894	61.8995
835.945	60.9377
835.996	63.9237
836.046	54.3151
836.097	62.6532
836.099	62.888
836.15	61.1388
836.201	65.0015
836.251	57.9193
836.302	58.9687
836.353	62.9329
836.404	58.0206
836.454	54.1684
836.505	61.8743
836.556	53.1428
836.606	61.8751
836.657	59.9892
836.708	56.9106
836.758	53.0472
836.809	63.9507
836.86	52.9047
836.911	67.1398
836.961	64.9189
837.012	60.3065
837.063	52.153
837.113	52.097
837.164	60.2263
837.215	58.909
837.265	62.8676
837.316	60.1214
837.367	61.7555
837.418	58.926
837.468	63.4976
837.519	59.0341
837.57	57.073
837.62	61.8965
837.671	54.51
837.722	65.4128
837.772	57.3375
837.823	65.4951
837.874	51.4111
837.924	55.9917
837.975	58.8602
838.026	57.2139
838.077	55.1204
838.127	52.3927
838.178	52.829
838.229	53.2864
838.279	57.0956
838.33	57.5952
838.381	59.3404
838.431	58.9766
838.482	56.9267
838.533	62.1427
838.583	62.5694
838.634	64.1608
838.685	58.655
838.735	59.1442
838.786	58.6621
838.837	58.9238
838.888	58.7512
838.938	54.4299
838.989	61.2543
839.04	60.0102
839.09	58.3356
839.141	56.8621
839.192	59.9349
839.242	62.6457
839.293	59.1772
839.344	50.4293
839.394	59.902
839.445	57.7522
839.496	54.5095
839.546	59.0294
839.597	55.2776
839.648	59.11
839.698	56.9426
839.749	61.0092
839.8	62.8787
839.85	52.3093
839.901	59.8955
839.952	58.1823
840.002	58.5191
840.053	57.4499
840.104	58.1793
840.154	55.0205
840.205	63.3758
840.256	59.8634
840.306	57.7809
840.357	52.5542
840.408	62.4226
840.458	61.5778
840.509	55.1898
840.56	59.4362
840.61	60.1976
840.661	58.9948
840.711	51.9743
840.762	56.4252
840.813	55.5913
840.863	55.986
840.914	53.4328
840.965	59.1853
841.015	61.1529
841.066	56.9867
841.117	60.8988
841.167	62.0571
841.218	55.2491
841.269	54.4186
841.319	61.6827
841.37	58.2149
841.421	57.7816
841.471	56.447
841.522	57.1112
841.573	59.3482
841.623	52.7162
841.674	57.1083
841.724	55.9043
841.775	56.104
841.826	57.6332
841.876	56.5339
841.927	55.3341
841.978	59.2183
842.028	57.9437
842.079	51.0207
842.13	52.5924
842.18	57.4293
842.231	54.7275
842.281	57.4074
842.332	58.3246
842.383	54.822
842.433	60.0112
842.484	58.6394
842.535	57.9074
842.585	55.8565
842.636	53.2024
842.687	60.673
842.737	58.6962
842.788	55.8502
842.838	54.4718
842.889	57.7645
842.94	56.8609
842.99	51.3788
843.041	53.4509
843.092	56.4493
843.142	55.1125
843.193	56.5648
843.243	54.9998
843.294	56.5051
843.345	55.3709
843.395	59.9737
843.446	61.1145
843.497	58.309
843.547	54.2049
843.598	52.7862
843.648	54.1622
843.699	53.6993
843.75	51.2281
843.8	53.4959
843.851	58.7647
843.901	54.4662
843.952	48.1634
844.003	54.9552
844.053	51.5103
844.104	55.2367
844.155	56.2135
844.205	54.7738
844.256	54.5681
844.306	53.4069
844.357	50.0491
844.408	54.1417
844.458	51.3187
844.509	55.314
844.559	56.3676
844.61	54.4574
844.661	50.68
844.711	51.3112
844.762	51.4353
844.812	56.5487
844.863	51.0979
844.914	52.2537
844.964	53.817
845.015	54.3424
845.065	52.363
845.116	52.6896
845.167	54.8409
845.217	54.9789
845.268	57.3641
845.318	59.6583
845.369	53.1194
845.42	52.1761
845.47	51.9986
845.521	48.9922
845.571	49.8563
845.622	54.3269
845.673	52.4096
845.723	54.3148
845.774	57.1689
845.824	58.2579
845.875	53.6848
845.926	52.5359
845.976	56.8104
846.027	54.4209
846.077	53.7318
846.128	55.1091
846.178	53.8893
846.229	51.3553
846.28	54.2809
846.33	55.7588
846.381	56.3228
846.431	55.022
846.482	55.5313
846.533	52.372
846.583	52.3521
846.634	52.4214
846.684	49.2599
846.735	51.6187
846.785	55.047
846.836	56.0475
846.887	53.6277
846.937	51.1624
846.988	55.2192
847.038	49.4082
847.089	48.2905
847.139	49.7055
847.19	55.7664
847.241	54.7382
847.291	52.6851
847.342	50.272
847.392	55.8506
847.443	55.038
847.493	53.8172
847.544	51.7893
847.595	52.1932
847.645	50.1318
847.696	53.9092
847.746	52.2907
847.797	53.9579
847.847	51.125
847.898	46.8784
847.948	48.1011
847.999	54.7677
848.05	55.3314
848.1	53.0279
848.151	48.5564
848.201	51.1688
848.252	48.6972
848.302	50.467
848.353	51.7501
848.404	55.6335
848.454	50.0821
848.505	45.4788
848.555	50.5912
848.606	51.379
848.656	52.2864
848.707	51.5339
848.757	53.0689
848.808	46.5985
848.859	51.6079
848.909	51.1698
848.96	54.4675
849.01	52.3536
849.061	50.0387
849.111	49.1818
849.162	52.6547
849.212	53.1047
849.263	54.071
849.313	48.8853
849.364	50.3177
849.414	53.9196
849.465	54.0461
849.516	52.2913
849.566	49.6407
849.617	51.4964
849.667	55.2941
849.718	51.2821
849.768	51.9156
849.819	48.6323
849.869	51.0576
849.92	50.9537
849.97	48.0249
850.021	50.9754
850.071	48.0385
850.122	47.7826
850.173	47.8304
850.223	48.7248
850.274	52.4333
850.324	46.8197
850.375	48.7071
850.425	50.1006
850.476	49.1205
850.526	48.5953
850.577	48.9302
850.627	47.7213
850.678	47.2153
850.728	47.6034
850.779	50.31
850.829	50.0665
850.88	52.6127
850.93	50.9902
850.981	50.145
851.031	52.4278
851.082	50.928
851.133	50.2846
851.183	53.2936
851.234	50.3936
851.284	47.201
851.335	48.6611
851.385	49.255
851.436	50.4172
851.486	47.19
851.537	51.2616
851.587	50.1277
851.638	55.1175
851.688	55.1749
851.739	51.9884
851.789	48.8892
851.84	49.7935
851.89	49.3703
851.941	48.4954
851.991	51.5388
852.042	48.6482
852.092	48.987
852.143	52.3034
852.193	52.8397
852.244	53.373
852.294	46.8464
852.345	47.7269
852.395	49.7773
852.446	50.3772
852.496	49.7094
852.547	50.1578
852.597	50.6094
852.648	53.3241
852.698	47.2416
852.749	52.5161
852.799	47.398
852.85	51.2743
852.9	46.1429
852.951	48.6211
853.001	44.6978
853.052	48.1426
853.102	46.1365
853.153	46.8058
853.203	47.884
853.254	51.151
853.304	44.9205
853.355	48.2665
853.405	52.6012
853.443	54.3003
853.493	48.739
853.544	50.4126
853.594	47.837
853.645	51.1286
853.696	49.3939
853.746	51.639
853.797	51.946
853.847	47.1272
853.898	46.0715
853.949	45.6901
853.999	49.9359
854.05	52.1896
854.1	48.4903
854.151	45.9575
854.202	48.8723
854.252	54.5605
854.303	51.4781
854.353	49.6831
854.404	50.2437
854.455	53.3742
854.505	49.0675
854.556	51.6355
854.606	50.3555
854.657	47.8791
854.708	50.5149
854.758	51.1497
854.809	48.1735
854.859	49.8104
854.91	48.5452
854.961	52.1396
855.011	50.4179
855.062	49.5297
855.112	43.572
855.163	48.1302
855.214	49.4661
855.264	49.5162
855.315	46.9239
855.365	48.3496
855.416	43.3149
855.466	49.2095
855.517	48.5718
855.568	46.5313
855.618	49.3068
855.669	46.0703
855.719	45.9422
855.77	43.1343
855.821	47.9283
855.871	46.3475
855.922	48.1181
855.972	46.1469
856.023	46.689
856.073	47.7484
856.124	46.0077
856.175	41.9451
856.225	49.6312
856.276	47.9331
856.326	49.7156
856.377	47.4953
856.427	56.5718
856.478	49.2189
856.529	44.5564
856.579	42.612
856.63	47.896
856.68	41.8725
856.731	48.9777
856.781	43.9493
856.832	47.9913
856.883	47.6273
856.933	44.9037
856.984	43.3699
857.034	48.2401
857.085	49.7518
857.135	46.6072
857.186	43.9036
857.237	49.0221
857.287	43.0997
857.338	49.1715
857.388	47.0516
857.439	49.2219
857.489	46.7286
857.54	49.8935
857.59	44.2118
857.641	50.867
857.692	45.1548
857.742	44.5007
857.793	45.0367
857.843	45.5772
857.894	45.6833
857.944	44.5671
857.995	46.3102
858.045	47.566
858.096	47.5067
858.147	44.3843
858.197	46.2292
858.248	47.7503
858.298	47.4389
858.349	44.1904
858.399	48.0164
858.45	49.8797
858.5	43.9491
858.551	46.081
858.601	47.9747
858.652	48.5869
858.703	51.7259
858.753	46.5238
858.804	44.394
858.854	43.765
858.905	43.4565
858.955	43.1042
859.006	45.984
859.056	49.9548
859.107	43.9977
859.157	45.2771
859.208	47.7256
859.258	42.2826
859.309	42.9328
859.36	43.4448
859.41	46.1503
859.461	50.5518
859.511	48.8755
859.562	37.7222
859.612	47.6828
859.663	46.5221
859.713	45.0487
859.764	48.6477
859.814	47.561
859.865	50.6997
859.915	50.0242
859.966	44.8345
860.016	43.2255
860.067	46.3772
860.117	43.5273
860.168	46.5851
860.219	43.3092
860.269	46.7493
860.32	44.4618
860.37	43.5124
860.421	42.846
860.471	43.0229
860.522	41.2809
860.572	45.9391
860.623	45.8503
860.673	42.5428
860.724	38.4084
860.774	44.0724
860.825	51.4628
860.875	45.1156
860.926	41.091
860.976	37.6963
861.027	42.8593
861.077	41.8763
861.128	47.1915
861.178	40.74
861.229	46.7882
861.279	48.0627
861.33	50.4496
861.38	40.3929
861.431	46.5908
861.481	43.4125
861.532	43.0804
861.582	41.4007
861.633	46.8861
861.683	44.9094
861.734	44.4227
861.784	41.3127
861.835	44.5398
861.885	42.9788
861.936	45.0168
861.986	40.3988
862.037	42.5781
862.087	46.4581
862.138	40.6463
862.188	47.5027
862.239	44.6681
862.289	44.4121
862.34	46.0956
862.39	37.1015
862.441	41.6021
862.491	39.9158
862.542	46.4099
862.592	39.4694
862.643	44.3565
862.693	44.8784
862.744	41.4265
862.794	38.8318
862.845	47.7825
862.895	41.3294
862.946	38.208
862.996	41.5749
863.047	46.477
863.097	41.4026
863.148	47.0442
863.198	45.6546
863.249	40.5677
863.299	42.8588
863.35	46.0596
863.4	43.4678
863.451	46.3799
863.501	43.0568
863.552	44.1086
863.602	37.8889
863.653	45.912
863.703	46.3087
863.754	44.947
863.804	45.5438
863.854	40.2674
863.905	39.9355
863.955	47.5831
864.006	46.2863
864.056	42.1407
864.107	40.8805
864.157	43.5079
864.208	43.7376
864.258	47.6742
864.309	49.7061
864.359	48.3459
864.41	44.8943
864.46	41.34
864.511	44.7362
864.561	46.6401
864.612	42.8781
864.662	43.62
864.712	40.0201
864.763	44.2833
864.813	42.526
864.864	48.0484
864.914	42.6481
864.965	41.0758
865.015	40.7764
865.066	43.5173
865.116	42.731
865.167	41.8536
865.217	37.7141
865.268	43.1596
865.318	42.4833
865.368	38.4197
865.419	41.5978
865.469	44.2115
865.52	39.8144
865.57	40.639
865.621	42.5742
865.671	43.1165
865.722	33.0022
865.772	42.2685
865.823	44.353
865.873	40.8871
865.923	41.6329
865.974	37.4489
866.024	41.5377
866.075	42.5243
866.125	40.2845
866.176	42.4645
866.226	38.5821
866.276	43.5988
866.327	43.9137
866.377	41.265
866.428	41.8812
866.478	41.5128
866.529	41.7128
866.579	40.6471
866.63	38.5854
866.68	43.3962
866.73	43.0277
866.781	39.378
866.831	41.0069
866.882	44.806
866.932	45.9758
866.983	44.9971
867.033	41.3983
867.083	36.9552
867.134	45.695
867.184	45.8025
867.235	43.012
867.285	43.6744
867.336	39.1407
867.386	42.8141
867.436	38.4092
867.487	41.2207
867.537	46.4485
867.588	41.6211
867.638	38.7811
867.689	41.7123
867.739	44.7727
867.789	37.9026
867.84	40.1732
867.89	40.3409
867.941	42.2358
867.991	37.2936
868.042	40.8777
868.092	41.481
868.142	39.5515
868.193	41.838
868.243	45.655
868.294	45.848
868.344	41.7678
868.394	36.1164
868.445	38.858
868.495	39.9922
868.546	42.9888
868.596	43.4134
868.647	42.4628
868.697	43.7012
868.747	38.8061
868.798	39.895
868.848	40.0638
868.899	47.6037
868.949	43.9078
868.999	43.3773
869.05	41.2567
869.1	42.6197
869.151	41.0438
869.201	44.1602
869.251	40.833
869.302	37.9432
869.352	39.6029
869.403	43.5271
869.453	41.2997
869.503	40.2124
869.554	39.725
869.604	39.1464
869.655	40.5008
869.705	46.3559
869.755	42.865
869.806	38.7841
869.856	40.473
869.907	37.6155
869.957	42.3921
870.007	44.8511
870.058	40.3211
870.108	45.116
870.159	40.3766
870.209	42.5773
870.259	40.2826
870.31	41.4236
870.36	40.7491
870.41	39.2514
870.461	40.436
870.511	43.5502
870.562	39.7491
870.612	40.1768
870.662	38.6951
870.713	42.3567
870.731	41.287
870.782	43.0604
870.832	41.9104
870.883	38.424
870.933	40.2316
870.984	37.2311
871.034	35.0674
871.085	39.4057
871.135	39.6441
871.186	36.27
871.236	38.2109
871.287	44.1425
871.337	41.9583
871.388	41.4077
871.438	42.2348
871.489	39.6273
871.539	40.8934
871.59	43.2812
871.64	38.4863
871.691	38.4951
871.741	44.5338
871.792	45.3154
871.842	38.3794
871.893	45.6848
871.943	42.274
871.994	38.2491
872.044	40.573
872.095	44.3014
872.145	41.9502
872.196	37.2321
872.246	40.0416
872.297	37.1792
872.347	38.2791
872.397	42.6084
872.448	43.7262
872.498	41.6578
872.549	44.2394
872.599	42.0084
872.65	43.3121
872.7	41.1495
872.751	43.3904
872.801	42.2566
872.852	40.3803
872.902	38.3999
872.953	40.2859
873.003	38.8296
873.054	38.2798
873.104	39.9441
873.155	37.5957
873.205	38.9832
873.256	37.6512
873.306	35.3486
873.357	47.4311
873.407	41.5218
873.458	37.8236
873.508	39.44
873.558	41.082
873.609	36.9323
873.659	40.0825
873.71	36.3482
873.76	39.4892
873.811	41.0635
873.861	35.8443
873.912	43.1834
873.962	42.5543
874.013	40.3323
874.063	39.6408
874.114	44.4184
874.164	40.0562
874.215	37.3745
874.265	42.2536
874.315	41.5313
874.366	41.1334
874.416	42.905
874.467	37.2014
874.517	39.802
874.568	44.8423
874.618	41.2913
874.669	40.2366
874.719	45.3711
874.77	34.9233
874.82	40.599
874.87	39.9431
874.921	41.261
874.971	41.0083
875.022	42.9922
875.072	39.9016
875.123	38.9281
875.173	35.398
875.224	37.265
875.274	36.0323
875.324	37.2631
875.375	41.4798
875.425	40.5377
875.476	38.7599
875.526	42.755
875.577	33.9106
875.627	36.3667
875.678	39.7572
875.728	37.3352
875.779	40.1806
875.829	38.2455
875.879	41.7941
875.93	43.3173
875.98	39.9009
876.031	39.8799
876.081	43.4125
876.132	40.7938
876.182	37.8709
876.232	39.7307
876.283	37.5094
876.333	41.5361
876.384	36.5951
876.434	36.429
876.485	39.4125
876.535	38.9439
876.585	40.8376
876.636	40.7237
876.686	38.7357
876.737	41.2645
876.787	35.2851
876.838	35.3712
876.888	43.9759
876.938	42.0295
876.989	40.866
877.039	38.258
877.09	40.1023
877.14	34.1959
877.191	36.2448
877.241	40.8563
877.291	40.6021
877.342	42.3085
877.392	38.9396
877.443	36.0132
877.493	35.2594
877.544	41.3216
877.594	39.6363
877.644	35.3649
877.695	40.8947
877.745	42.2136
877.796	40.8995
877.846	38.2693
877.896	40.7953
877.947	42.3345
877.997	38.7983
878.048	38.8204
878.098	37.8041
878.148	38.291
878.199	39.6362
878.249	37.4928
878.3	33.2762
878.35	39.5808
878.4	39.1733
878.451	41.2288
878.501	37.0948
878.552	38.7044
878.602	39.0895
878.653	32.1752
878.703	34.8726
878.753	38.1064
878.804	39.9614
878.854	38.2265
878.904	40.5954
878.955	40.2509
879.005	37.452
879.056	39.2087
879.106	38.2825
879.156	46.2633
879.207	40.9954
879.257	41.0492
879.308	40.934
879.358	37.1179
879.408	37.8522
879.459	42.0568
879.509	38.1208
879.56	44.2515
879.61	39.3024
879.66	42.3474
879.711	40.9129
879.761	38.2583
879.812	38.1544
879.862	43.2519
879.912	34.321
879.963	40.4901
880.013	36.6868
880.063	37.3729
880.114	38.4735
880.164	43.1191
880.215	36.1625
880.265	38.5457
880.315	39.7516
880.366	44.049
880.416	34.8087
880.467	39.3724
880.517	37.1173
880.567	36.6892
880.618	37.5194
880.668	42.4379
880.718	36.5137
880.769	39.8637
880.819	34.188
880.87	37.1673
880.92	38.411
880.97	42.1562
881.021	37.3695
881.071	37.9242
881.121	41.4609
881.172	37.7136
881.222	36.1195
881.273	36.7027
881.323	33.4531
881.373	39.974
881.424	36.6932
881.474	36.5698
881.524	39.3964
881.575	35.2599
881.625	36.7224
881.675	36.6096
881.726	38.4508
881.776	39.1084
881.826	38.3489
881.877	38.1904
881.927	40.5852
881.978	38.8725
882.028	36.4658
882.078	38.5339
882.129	41.6535
882.179	33.8939
882.229	33.5343
882.28	38.3986
882.33	39.372
882.38	34.7837
882.431	36.5849
882.481	39.8768
882.531	41.0368
882.582	39.998
882.632	37.4372
882.682	36.0676
882.733	36.9399
882.783	39.2058
882.834	39.669
882.884	36.5167
882.934	39.8549
882.985	37.9342
883.035	35.76
883.085	33.908
883.136	36.9635
883.186	35.4419
883.236	37.2136
883.287	36.5949
883.337	40.0629
883.387	35.4422
883.438	36.7691
883.488	37.8319
883.538	35.2855
883.589	36.9473
883.639	36.2214
883.689	33.761
883.74	37.6232
883.79	36.1653
883.84	35.4138
883.891	36.5896
883.941	37.1067
883.991	35.3021
884.042	38.8428
884.092	36.7978
884.142	41.1722
884.193	34.0987
884.243	35.5083
884.293	34.8369
884.344	36.8674
884.394	36.1332
884.444	39.5087
884.495	39.2531
884.545	39.6823
884.595	34.5585
884.646	36.9035
884.696	37.5935
884.746	33.3645
884.797	33.834
884.847	36.9665
884.897	37.6978
884.947	36.7785
884.998	35.9143
885.048	32.3546
885.098	36.8112
885.149	33.1306
885.199	32.891
885.249	39.2814
885.3	40.5278
885.35	36.6198
885.4	36.5554
885.451	36.1847
885.501	36.8585
885.551	38.6006
885.602	38.6802
885.652	37.4289
885.702	35.5588
885.752	34.747
885.803	36.3403
885.853	31.4509
885.903	35.1152
885.954	37.2181
886.004	33.2716
886.054	35.63
886.105	35.2054
886.155	35.0562
886.205	35.3615
886.255	35.7425
886.306	40.5037
886.356	38.7299
886.406	37.8138
886.457	38.165
886.507	37.5824
886.557	32.757
886.608	36.3344
886.658	35.4296
886.708	35.6294
886.758	36.5018
886.809	35.6932
886.859	36.2539
886.909	35.249
886.96	34.2102
887.01	34.9627
887.06	38.403
887.11	38.5798
887.161	39.7055
887.211	35.1478
887.261	36.1123
887.312	34.9681
887.362	33.177
887.412	34.683
887.462	35.7277
887.513	34.2626
887.563	39.1324
887.613	35.2794
887.664	36.8495
887.714	34.2359
887.764	34.3272
887.814	35.0773
887.865	35.0627
887.915	35.8827
887.965	35.4161
887.987	31.0868
888.038	35.6076
888.088	38.3181
888.138	36.3189
888.189	32.3584
888.239	37.0663
888.289	36.3784
888.34	34.5171
888.39	35.3576
888.441	36.4922
888.491	34.3329
888.542	32.9543
888.592	34.62
888.642	37.8813
888.693	36.8348
888.743	37.4623
888.793	31.9621
888.844	35.2603
888.894	35.1083
888.945	36.3405
888.995	38.1402
889.045	37.608
889.096	33.8762
889.146	32.3801
889.197	33.116
889.247	39.9084
889.297	40.2033
889.348	39.7442
889.398	34.7261
889.448	37.1576
889.499	35.2504
889.549	37.6443
889.6	33.2125
889.65	31.3688
889.7	36.3009
889.751	36.7498
889.801	34.436
889.851	32.2457
889.902	38.5872
889.952	32.3359
890.003	33.5768
890.053	33.6344
890.103	40.9817
890.154	36.4268
890.204	40.7105
890.254	39.6168
890.305	34.2494
890.355	32.5655
890.406	34.6101
890.456	32.4215
890.506	38.3955
890.557	32.2757
890.607	32.2068
890.657	31.497
890.708	33.7233
890.758	34.5171
890.808	37.3535
890.859	34.9752
890.909	35.1879
890.96	33.5514
891.01	34.6286
891.06	33.7298
891.111	35.6205
891.161	33.2023
891.211	39.6395
891.262	33.8928
891.312	34.5812
891.362	30.7874
891.413	33.7815
891.463	33.9709
891.513	33.0067
891.564	34.1394
891.614	40.4638
891.665	31.9784
891.715	33.5403
891.765	33.8768
891.816	32.49
891.866	32.7864
891.916	37.4634
891.967	37.7112
892.017	37.1485
892.067	34.9299
892.118	33.5579
892.168	31.8472
892.218	37.9717
892.269	39.3021
892.319	37.592
892.369	34.1511
892.42	36.0045
892.47	34.3488
892.52	35.1675
892.571	33.3535
892.621	31.4385
892.671	36.1092
892.722	34.4839
892.772	33.5997
892.822	33.9857
892.873	32.1384
892.923	33.8393
892.973	32.2102
893.024	37.7765
893.074	34.7834
893.124	31.6449
893.175	35.0506
893.225	36.1678
893.275	33.9035
893.326	32.6025
893.376	32.9151
893.426	35.1153
893.477	35.2967
893.527	35.4894
893.577	34.1973
893.628	39.1233
893.678	32.6075
893.728	32.2101
893.779	32.5434
893.829	32.3103
893.879	33.3084
893.93	32.2801
893.98	32.5926
894.03	34.2843
894.081	33.6496
894.131	33.4091
894.181	33.1612
894.232	33.7234
894.282	30.7324
894.332	29.3671
894.383	34.975
894.433	30.7628
894.483	31.137
894.533	32.2885
894.584	36.8732
894.634	35.0113
894.684	35.4075
894.735	34.2946
894.785	33.3405
894.835	33.3326
894.886	34.1388
894.936	31.3172
894.986	36.0239
895.037	37.0673
895.087	34.0531
895.137	34.5507
895.188	34.8046
895.238	33.8788
895.288	29.8269
895.338	32.6297
895.389	34.9283
895.439	30.4461
895.489	30.1822
895.54	33.0195
895.59	36.4844
895.64	35.2939
895.69	37.2783
895.741	34.1285
895.791	34.5349
895.841	34.4891
895.892	31.9019
895.942	29.7815
895.992	31.3427
896.043	32.1954
896.093	32.9197
896.143	32.1822
896.193	35.613
896.244	30.8063
896.294	34.4116
896.344	32.4008
896.395	31.2844
896.445	33.1055
896.495	33.4361
896.545	34.3589
896.596	35.1249
896.646	36.5768
896.696	35.1244
896.747	36.3482
896.797	31.4569
896.847	35.52
896.897	35.2029
896.948	35.2257
896.998	36.5221
897.048	33.717
897.099	34.1598
897.149	36.5926
897.199	33.7767
897.249	33.8411
897.3	33.1725
897.35	33.9846
897.4	40.1786
897.451	31.5144
897.501	31.2296
897.551	35.9068
897.601	34.1314
897.652	36.8506
897.702	31.5242
897.752	35.0335
897.802	32.724
897.853	31.821
897.903	34.769
897.953	31.8734
898.003	33.7308
898.054	35.7097
898.104	33.3362
898.154	34.5399
898.204	35.8792
898.255	33.9919
898.305	30.9743
898.355	35.562
898.406	33.3072
898.456	35.3598
898.506	30.9061
898.556	34.48
898.607	32.9394
898.657	31.8205
898.707	31.3671
898.757	36.381
898.808	35.546
898.858	32.1677
898.908	30.2206
898.958	35.4115
899.009	32.8835
899.059	32.2152
899.109	31.018
899.159	31.8716
899.21	34.7762
899.26	31.639
899.31	36.6592
899.36	40.2968
899.411	33.2507
899.461	32.5818
899.511	29.3094
899.561	35.7386
899.612	35.569
899.662	34.8218
899.712	29.0817
899.762	32.1658
899.813	34.4993
899.863	31.3567
899.913	30.6354
899.963	32
