#Acq. time (s)=	2
#Accumulations=	3
#Range (nm)=	520...900
#Windows=	24
#Auto scanning=	On
#Autofocus=	Off
#AutoExposure=	Off
#Spike filter=	Multiple accum.
#Delay time (s)=	0
#Binning=	1
#Readout mode=	Signal
#DeNoise=	Off
#ICS correction=	Off
#Dark correction=	Off
#Inst. Process=	Off
#Detector temperature (°C)=	-59.98
#Instrument=	LabRAM HR Evol
#Detector=	Syncerity OE
#Objective=	x50_VIS
#Grating=	600 (500nm)
#ND Filter=	10%
#Laser=	514nm_Edge
#Hole=	199.981
#Range=	Auto
#StageXY=	Marzhauser
#StageZ=	Marzhauser
#X (µm)=	23190.1
#Y (µm)=	2761.6
#Z (µm)=	27.7
#Full time(mm:ss)=	3:04
#Project=	
#Sample=	
#Site=	
#Title=	M6_140224
#Remark=	
#Date=	19.02.2024 14:38
#Acquired=	19.02.2024 14:38:56
520.013	28.6948
520.065	23.6678
520.117	25.5703
520.17	26.8119
520.222	27.5883
520.274	23.7175
520.327	31.324
520.379	28
520.431	26.1632
520.483	21.7563
520.536	25.3955
520.588	25.5928
520.64	25.1717
520.693	23.1603
520.745	25.6115
520.797	28.1151
520.85	22.9548
520.902	22.7622
520.954	27.7043
521.007	26.2043
521.059	25.3333
521.111	24.9293
521.163	27.3333
521.216	29.7258
521.268	25.7516
521.32	22.6977
521.373	25.537
521.425	27.8026
521.477	23.0891
521.529	25.1432
521.582	30.7616
521.634	31.5827
521.686	24.9633
521.739	23.9239
521.791	31.8466
521.843	29.2974
521.896	25.3838
521.948	27.5028
522	28.832
522.052	28.7244
522.105	25.3908
522.157	27.9883
522.209	30.712
522.262	26.9212
522.314	25.9535
522.366	24.4612
522.418	25.7671
522.471	30.4681
522.523	23.7309
522.575	27.6534
522.628	27.9627
522.68	25.9485
522.732	22.1275
522.784	26.4163
522.837	26.4852
522.889	24.6519
522.941	24.1174
522.994	26.6327
523.046	29.6164
523.098	25.7433
523.15	23.8377
523.203	25.1558
523.255	29.1367
523.307	26.3736
523.36	22.7668
523.412	25.9019
523.464	29.7366
523.516	25.5961
523.569	22.3283
523.621	24.5079
523.673	27.5224
523.726	28.4223
523.778	20.2709
523.83	25.723
523.882	27.6301
523.935	24.1136
523.987	23.6485
524.039	30.2206
524.091	29.819
524.144	28.1259
524.196	24.8856
524.248	28.7991
524.301	33.021
524.353	27.9616
524.405	27.1866
524.457	30.1968
524.51	29.5627
524.562	29.0845
524.614	24.8558
524.666	23.8822
524.719	27.5483
524.771	22.7413
524.823	25.547
524.875	24.8421
524.928	29.3269
524.98	27.3504
525.032	23.9814
525.085	26.3392
525.137	28.1602
525.189	26.3605
525.241	22.8359
525.294	29.2614
525.346	28.2246
525.398	26.5111
525.45	24.6631
525.503	27.7444
525.555	26.9074
525.607	23.397
525.659	24.4183
525.712	29.292
525.764	27.4965
525.816	22.5439
525.868	27.6621
525.921	27.4786
525.973	27.6084
526.025	24.1648
526.077	24.0898
526.13	26.5875
526.182	24.8507
526.234	25.951
526.286	25.287
526.339	26.8508
526.391	26.6142
526.443	26.1624
526.495	27.3844
526.548	30.2427
526.6	31.7912
526.652	27.6629
526.704	27.6263
526.757	27.894
526.809	27.5335
526.861	25.182
526.913	26.5529
526.966	27.1469
527.018	26.603
527.07	27.1565
527.122	23.3823
527.175	26.659
527.227	27.8271
527.279	28.2661
527.331	26.3234
527.384	27.5219
527.436	24.9996
527.488	25.8228
527.54	29.3209
527.593	28.4
527.645	25.627
527.697	25.5496
527.749	26.7269
527.802	27.3333
527.854	28.2657
527.906	26.6212
527.958	27.0016
528.011	30.3739
528.063	25.9887
528.115	22.3352
528.167	24.9094
528.219	27.3118
528.272	25.3376
528.324	22.6595
528.376	26.0963
528.428	28.6687
528.481	28.2771
528.533	26.7838
528.585	28.4656
528.637	26
528.69	26.5201
528.742	24.0712
528.794	26.623
528.846	27.7212
528.898	25.3284
528.951	27.0144
529.003	27.0499
529.055	26.4652
529.107	24.9722
529.16	26.9214
529.212	29.7023
529.264	27.6983
529.316	24.8984
529.369	26.6448
529.421	28.4849
529.473	27.509
529.525	25.9258
529.577	23.2419
529.63	26.5933
529.682	24.4458
529.734	25.6795
529.786	25.3704
529.839	27.3401
529.891	27.6188
529.943	29.1325
529.995	24.0663
530.047	26.4582
530.1	25.7691
530.152	28.6971
530.204	26.356
530.256	24.7917
530.308	25.6987
530.361	25.3002
530.413	23.7158
530.465	25.6646
530.517	23.8667
530.57	25.802
530.622	26.3834
530.674	26.0203
530.726	26.4783
530.778	28.4028
530.831	23.7796
530.883	25.2607
530.935	29.8476
530.987	29.8144
531.039	25.6464
531.092	25.3591
531.144	22.4845
531.196	25.2278
531.248	23.3119
531.3	27.0908
531.353	24.3924
531.405	28.7251
531.457	25.9762
531.509	28.5978
531.561	28.2341
531.614	25.5162
531.666	28.3942
531.718	30.535
531.77	28.824
531.822	28.7782
531.875	22.5357
531.927	29.24
531.979	26.3218
532.031	24.6713
532.083	21.5798
532.136	27.0259
532.188	27.6863
532.24	25.3155
532.292	23.8877
532.344	30.6792
532.397	28.2411
532.449	26.0319
532.501	23.502
532.553	30.9312
532.605	25.7415
532.658	26.0621
532.71	25.2958
532.762	26.6651
532.814	27.7127
532.866	26.7023
532.919	27.9381
532.971	27.8566
533.023	26.7094
533.075	23.9419
533.127	24.6346
533.179	26.2769
533.232	27.3355
533.284	25.853
533.336	22.1428
533.388	21.8901
533.44	25.7101
533.493	23.5701
533.545	24.7769
533.597	27.4364
533.649	28.5595
533.701	28.4468
533.753	29.0719
533.806	29.4649
533.858	30.2418
533.91	21.9034
533.962	24.3191
534.014	30.3607
534.067	30.0245
534.119	26.9677
534.171	29.963
534.223	28.5492
534.275	30.4057
534.327	21.4776
534.38	27.2828
534.432	26.947
534.484	31.7647
534.536	26.3992
534.588	27.5211
534.641	26.3521
534.693	30.6904
534.745	23.5059
534.797	25.641
534.849	27.1584
534.901	27.6687
534.953	25.9086
535.006	28.8246
535.058	28.0601
535.11	29.9436
535.162	21.8563
535.214	28.79
535.267	23.443
535.319	29.1699
535.371	24.526
535.423	24.6632
535.475	30.8372
535.527	27.6839
535.58	22.1343
535.632	27.8765
535.684	29.2811
535.736	26.2911
535.788	18.9007
535.84	32.7478
535.892	23.5887
535.945	27.8929
535.997	23.0745
536.049	29.2817
536.101	28.4119
536.153	29.0828
536.205	23.046
536.258	30.6349
536.31	28.9021
536.362	27.2159
536.414	26.0596
536.466	31.1874
536.518	29.8961
536.57	30.8929
536.623	28.5082
536.675	33.0515
536.727	33.3428
536.779	25.8185
536.831	27.5502
536.883	26.6239
536.936	31.1687
536.988	24.267
537.04	22.8248
537.092	30.152
537.144	27.043
537.196	25.2065
537.248	24.3311
537.301	27.2901
537.353	25.7416
537.405	21.3373
537.457	27.4203
537.509	28.6396
537.561	27.1234
537.613	24.3159
537.666	23.9346
537.718	27.9556
537.77	29.4575
537.778	29.6164
537.831	24.4736
537.883	23.5301
537.935	30.4777
537.987	26.1537
538.04	19.4203
538.092	30.1844
538.144	27.3313
538.196	30.8594
538.249	20.5921
538.301	24.8327
538.353	27.2497
538.405	24.9637
538.457	24.8454
538.51	29.4711
538.562	29.863
538.614	27.0523
538.666	22.3084
538.719	29.9536
538.771	28.2246
538.823	33.7085
538.875	23.6904
538.927	29.8851
538.98	24.5918
539.032	28.9002
539.084	26.9988
539.136	27.9621
539.189	27.3376
539.241	31.654
539.293	23.5999
539.345	26.0013
539.397	26.0291
539.45	26.4764
539.502	26.0619
539.554	30.2744
539.606	28.6974
539.659	27.8173
539.711	21.7945
539.763	30.691
539.815	28.4157
539.867	22.745
539.92	22.5682
539.972	32.2775
540.024	25.335
540.076	25.6376
540.128	21.2375
540.181	28.2719
540.233	26.1114
540.285	25.0031
540.337	25.1614
540.39	29.7876
540.442	30.2377
540.494	26.4951
540.546	24.3327
540.598	28.0558
540.651	23.2813
540.703	21.486
540.755	23.9949
540.807	23.7441
540.859	31.6584
540.912	24.3213
540.964	26.6438
541.016	28.9016
541.068	27.5145
541.12	24.9592
541.173	25.445
541.225	27.6906
541.277	22.9531
541.329	26.0279
541.381	25.9801
541.434	30.9828
541.486	27.8163
541.538	24.5941
541.59	25.5645
541.642	26.8552
541.695	29.7705
541.747	23.6487
541.799	28.5915
541.851	32.1232
541.903	30.4218
541.956	23.0306
542.008	25.5998
542.06	24.4997
542.112	26.1515
542.164	27.5958
542.217	32.4513
542.269	26.9876
542.321	28.5188
542.373	21.9744
542.425	29.6879
542.478	27.617
542.53	23.355
542.582	23.5087
542.634	26.9771
542.686	26.4181
542.738	25.3088
542.791	24.7347
542.843	27.939
542.895	26.8927
542.947	27.1419
542.999	19.7132
543.052	29.7091
543.104	31.6149
543.156	24.0529
543.208	23.9856
543.26	31.9227
543.313	24.7727
543.365	24.6267
543.417	23.097
543.469	29.2869
543.521	26.9653
543.573	26.3239
543.626	22.7286
543.678	33.7186
543.73	27.5102
543.782	28.2031
543.834	27.5783
543.886	30.5035
543.939	29.1826
543.991	26.7304
544.043	21.5668
544.095	34.7194
544.147	26.7807
544.2	31.1314
544.252	22.0678
544.304	29.7885
544.356	30.8229
544.408	27.6981
544.46	23.5376
544.513	24.2957
544.565	26.6616
544.617	23.9769
544.669	23.603
544.721	31.4855
544.773	24.1573
544.826	25.5776
544.878	24.1052
544.93	29.5591
544.982	28.6174
545.034	23.9109
545.086	27.8189
545.139	31.6244
545.191	31.3593
545.243	26.6952
545.295	26.2169
545.347	33.7844
545.399	29.0176
545.452	21.6135
545.504	27.8578
545.556	29.2834
545.608	28.0793
545.66	24.9525
545.712	23.8705
545.765	30.5392
545.817	31.5159
545.869	28.8857
545.921	25.4176
545.973	30.4617
546.025	28.0547
546.077	22.1692
546.13	26.3107
546.182	27.6091
546.234	25.6712
546.286	22.4538
546.338	30.0631
546.39	31.9185
546.443	32.7091
546.495	23.3757
546.547	29.3308
546.599	33.089
546.651	33.1644
546.703	25.3884
546.755	30.7578
546.808	32.3629
546.86	30.007
546.912	23.6995
546.964	27.1088
547.016	32.9108
547.068	28.2647
547.12	21.2494
547.173	24.4897
547.225	28.9613
547.277	28.8883
547.329	20.8204
547.381	28.1988
547.433	29.7905
547.485	32.4005
547.538	27.7775
547.59	27.3881
547.642	27.4318
547.694	30.0649
547.746	23.1683
547.798	33.1201
547.85	33.0404
547.903	31.333
547.955	25.71
548.007	28.933
548.059	29.49
548.111	25.3168
548.163	25.1964
548.215	29.9945
548.268	30.1198
548.32	27.9426
548.372	28.0415
548.424	31.1045
548.476	26.09
548.528	30.7539
548.58	26.2575
548.633	29.6492
548.685	28.275
548.737	30.6399
548.789	25.0447
548.841	35.0161
548.893	32.4583
548.945	24.2975
548.997	24.622
549.049	30.4783
549.102	30.8897
549.154	24.5807
549.206	26.6282
549.258	32.6162
549.31	30.8729
549.362	28.598
549.414	24.1141
549.467	30.9805
549.519	31.4768
549.571	26.3913
549.623	30.0715
549.675	33.1708
549.727	33.556
549.779	27.4916
549.831	26.3377
549.883	30.5775
549.936	32.5163
549.988	24.9146
550.04	31.2576
550.092	33.8664
550.144	36.0578
550.196	28.8793
550.248	31.8367
550.3	32.905
550.353	29.7771
550.405	27.4915
550.457	31.5696
550.509	38.327
550.561	34.5043
550.613	25.5777
550.665	31.0484
550.717	32.7384
550.769	30.467
550.822	25.687
550.874	34.3586
550.926	36.7427
550.978	35.9057
551.03	28.6683
551.082	34.5892
551.134	33.6874
551.186	35.349
551.238	33.8257
551.291	38.5141
551.343	39.3391
551.395	36.092
551.447	38.2897
551.499	44.5331
551.551	43.4232
551.603	43.2023
551.655	40.4012
551.707	49.3065
551.759	47.4399
551.812	50.7758
551.864	47.5456
551.916	56.4357
551.968	60.8602
552.02	61.1497
552.072	67.2618
552.124	76.9615
552.176	84.6691
552.228	98.6778
552.28	123.943
552.332	165.143
552.385	258.421
552.437	521.13
552.489	1113.25
552.541	2100.71
552.593	3690.4
552.645	6235.95
552.697	7573.43
552.749	5441.17
552.801	2690.55
552.853	1052.26
552.905	411.399
552.958	230.998
553.01	161.101
553.062	118.876
553.114	89.7343
553.166	78.923
553.218	72.4934
553.27	60.7653
553.322	58.298
553.374	57.5976
553.426	49.8583
553.478	43.2523
553.531	44.2357
553.583	44.8627
553.635	44.0193
553.687	42.8552
553.739	40.4274
553.791	39.7508
553.843	40.8783
553.895	33.4897
553.947	35.4647
553.999	39.29
554.051	36.1039
554.103	30.4236
554.155	29.4376
554.208	34.8101
554.26	34.1977
554.312	27.7773
554.364	33.548
554.416	38.4914
554.468	36.1179
554.52	31.4646
554.572	31.9828
554.624	32.3534
554.676	35.2618
554.728	27.8675
554.78	30.66
554.832	32.6613
554.884	31.4568
554.937	28.2158
554.989	32.2871
555.041	31.6499
555.093	29.4929
555.145	26.87
555.197	28.1303
555.249	28.7846
555.301	27.9643
555.353	28.0025
555.405	29.8279
555.457	29.7471
555.509	29.0446
555.529	29.0474
555.582	26.0264
555.634	29.9214
555.686	28.0599
555.738	31.8609
555.79	25.0724
555.842	34.6303
555.895	32.0272
555.947	29.1388
555.999	25.1052
556.051	33.8372
556.103	31.8776
556.155	30.8953
556.207	29.9475
556.26	32.5269
556.312	30.9411
556.364	31.1096
556.416	22.405
556.468	31.6356
556.52	29.0019
556.573	24.7542
556.625	28.7697
556.677	28.868
556.729	30.3086
556.781	28.3761
556.833	26.3081
556.885	31.7172
556.938	26.191
556.99	23.1429
557.042	27.3819
557.094	32.3652
557.146	32.458
557.198	27.8089
557.25	31.2739
557.302	30.0519
557.355	31.5835
557.407	26.8583
557.459	26.7736
557.511	31.146
557.563	33.6267
557.615	29.5106
557.667	31.6415
557.72	29.1812
557.772	26.9678
557.824	25.2762
557.876	35.7001
557.928	34.602
557.98	33.5559
558.032	23.6616
558.085	29.981
558.137	30.593
558.189	31.0083
558.241	27.9192
558.293	29.9687
558.345	30.5391
558.397	32.5416
558.449	26.8783
558.502	29.767
558.554	30.0264
558.606	28.1574
558.658	26.8317
558.71	30.7082
558.762	28.8739
558.814	30.9261
558.866	23.3219
558.919	31.2017
558.971	29.771
559.023	28.5114
559.075	25.7953
559.127	31.2875
559.179	32.8343
559.231	26.2476
559.283	24.3116
559.336	30.2
559.388	33.2889
559.44	33.0004
559.492	24.5664
559.544	30.0174
559.596	31.9777
559.648	28.7895
559.7	20.6133
559.753	29.6266
559.805	33.4233
559.857	28.3768
559.909	28.0186
559.961	30.0037
560.013	31.6024
560.065	26.9529
560.117	27.5905
560.169	34.0424
560.222	31.8612
560.274	27.0361
560.326	24.9685
560.378	29.3587
560.43	31.8513
560.482	27.3776
560.534	21.8908
560.586	29.8049
560.638	30.3315
560.69	30.1787
560.743	28.785
560.795	30.7181
560.847	30.5861
560.899	27.7525
560.951	28.6489
561.003	30.8027
561.055	31.1624
561.107	26.2036
561.159	28.0554
561.212	29.5118
561.264	31.8327
561.316	25.2749
561.368	30.5446
561.42	32.985
561.472	33.2945
561.524	25.8249
561.576	29.4896
561.628	30.2768
561.68	31.5993
561.733	29.4957
561.785	28.2974
561.837	31.8148
561.889	32.3003
561.941	27.9754
561.993	32.2707
562.045	30.471
562.097	31.2716
562.149	25.8433
562.201	29.9112
562.253	28.1006
562.306	30.2372
562.358	25.6617
562.41	29.8482
562.462	32.3967
562.514	31.9509
562.566	26.3957
562.618	30.7251
562.67	31.4997
562.722	32.791
562.774	25.4833
562.826	32.055
562.879	31.0395
562.931	33.8751
562.983	27.6978
563.035	28.4095
563.087	30.0309
563.139	30.385
563.191	27.0746
563.243	32.0347
563.295	35.297
563.347	30.695
563.399	26.9052
563.451	29.3665
563.504	32.6955
563.556	31.1613
563.608	29.3109
563.66	29.8635
563.712	31.9588
563.764	30.3315
563.816	28.8806
563.868	32.3938
563.92	32.8959
563.972	29.8964
564.024	26.3665
564.076	34.0738
564.128	32.0996
564.181	36.4413
564.233	33.0098
564.285	31.0905
564.337	29.9454
564.389	26.6136
564.441	27.5195
564.493	32.0111
564.545	33.9203
564.597	30.3043
564.649	27.8697
564.701	32.7014
564.753	33.6151
564.805	31.8428
564.857	28.2932
564.909	29.1366
564.962	35.0364
565.014	30.9775
565.066	30.6457
565.118	32.64
565.17	32.5046
565.222	30.7999
565.274	29.7042
565.326	30.9338
565.378	33.8636
565.43	31.5997
565.482	31.7953
565.534	35.0083
565.586	34.8415
565.638	28.7465
565.69	27.0005
565.742	27.6156
565.795	32.3296
565.847	33.2799
565.899	31.8905
565.951	34.5754
566.003	32.3293
566.055	31.0124
566.107	31.0168
566.159	31.5293
566.211	33.8038
566.263	29.5094
566.315	29.5126
566.367	31.1538
566.419	32.6539
566.471	26.7447
566.523	31.9831
566.575	33.5096
566.627	32.7972
566.679	30.1238
566.732	27.856
566.784	29.5015
566.836	28.3343
566.888	28.024
566.94	34.1519
566.992	34.4444
567.044	32.1404
567.096	30.381
567.148	28.5151
567.2	30.2675
567.252	32.8276
567.304	30.5589
567.356	32.5145
567.408	34.9243
567.46	31.1069
567.512	29.8896
567.564	33.2786
567.616	32.8795
567.668	30.8746
567.72	28.7548
567.772	34.0652
567.824	34.6306
567.876	32.2168
567.928	30.508
567.98	32.8087
568.033	33.6063
568.085	33.3111
568.137	31.6706
568.189	34.0593
568.241	35.1982
568.293	32.7382
568.345	29.9011
568.397	32.8042
568.449	34.5727
568.501	34.0939
568.553	31.1669
568.605	31.8173
568.657	34.1291
568.709	32.8601
568.761	30.7735
568.813	31.76
568.865	33.4667
568.917	33.7962
568.969	32.5845
569.021	31.9572
569.073	32.0662
569.125	30.2946
569.177	29.928
569.229	29.3035
569.281	29.8488
569.333	30.8989
569.385	30.5099
569.437	31.694
569.489	31.783
569.541	29.9229
569.593	29.1061
569.645	31.4301
569.697	35.3773
569.749	33.4935
569.801	28.9693
569.853	32.3292
569.905	32.5083
569.957	29.2203
570.009	30.4938
570.061	29.9421
570.113	30.7998
570.165	32.7674
570.217	33.2696
570.269	35.6164
570.321	34.9776
570.374	33.04
570.426	35.5476
570.478	34.1574
570.53	34.1007
570.582	33.9728
570.634	34.3116
570.686	32.3586
570.738	34.6565
570.79	35.153
570.842	35.574
570.894	34.4684
570.946	30.6908
570.998	30.0225
571.05	31.6962
571.102	31.2933
571.154	35.2302
571.206	34.4971
571.258	33.9636
571.31	33.7537
571.362	36.7338
571.414	37.0022
571.466	33.5224
571.518	32.7334
571.57	36.6308
571.622	33.3272
571.674	33.7981
571.726	34.0096
571.778	34.1799
571.83	33.8649
571.882	33.6402
571.934	33.8379
571.986	35.1834
572.038	35.5732
572.09	34.9301
572.142	33.567
572.194	31.4917
572.246	31.4531
572.298	32.1284
572.349	32.0566
572.401	37.2341
572.453	38.8348
572.505	35.2556
572.557	34.6567
572.609	35.9675
572.661	36.074
572.713	32.7042
572.765	32.2258
572.817	35.7005
572.869	33.8424
572.921	36.9329
572.973	35.8881
573.025	35.804
573.077	37.7215
573.129	35.2074
573.181	35.3257
573.212	41.2318
573.264	36.0422
573.316	41.4386
573.368	41.375
573.421	34.9669
573.473	36.1838
573.525	34.8472
573.577	31.2532
573.629	39.0801
573.681	36.8396
573.733	34.3942
573.785	38.1641
573.837	41.1987
573.889	40.0655
573.941	38.9365
573.993	37.194
574.045	40.704
574.097	39.9475
574.15	38.4999
574.202	37.0958
574.254	38.8613
574.306	40.7263
574.358	40.5512
574.41	38.2706
574.462	40.9936
574.514	39.2413
574.566	42.092
574.618	43.7276
574.67	44.0252
574.722	39.0981
574.774	43.6794
574.826	38.8678
574.878	39.5695
574.931	36.7689
574.983	40.8759
575.035	41.6404
575.087	42.2772
575.139	42.6622
575.191	45.2316
575.243	44.472
575.295	38.782
575.347	44.2738
575.399	42.0392
575.451	43.6705
575.503	44.9039
575.555	43.2815
575.607	44.0075
575.659	42.7157
575.711	45.9202
575.763	43.4643
575.815	39.9333
575.868	40.3929
575.92	40.478
575.972	47.7354
576.024	44.9478
576.076	41.4747
576.128	40.697
576.18	44.2461
576.232	43.3072
576.284	42.2123
576.336	43.3765
576.388	44.2214
576.44	42.2954
576.492	42.266
576.544	40.0789
576.596	40.3701
576.648	40.9614
576.7	39.8213
576.752	39.0314
576.804	42.4392
576.856	44.0951
576.909	40.2791
576.961	40.3675
577.013	37.4584
577.065	38.489
577.117	45.9501
577.169	43.0858
577.221	40.9567
577.273	41.4252
577.325	40.5441
577.377	41.7846
577.429	40.5559
577.481	40.2984
577.533	44.2718
577.585	41.2785
577.637	37.9766
577.689	37.7279
577.741	37.1245
577.793	39.7467
577.845	41.4944
577.897	36.6777
577.949	39.7163
578.001	41.3712
578.053	40.9481
578.105	39.2496
578.157	35.3408
578.209	37.7915
578.261	37.2875
578.313	39.6131
578.365	43.4234
578.417	43.5304
578.469	40.8477
578.522	40.4435
578.574	39.2295
578.626	38.0422
578.678	41.151
578.73	39.4356
578.782	35.6627
578.834	36.1464
578.886	39.168
578.938	37.4976
578.99	41.1758
579.042	39.4647
579.094	37.4981
579.146	38.3311
579.198	42.1971
579.25	42.0188
579.302	39.371
579.354	41.6899
579.406	41.6848
579.458	40.1483
579.51	43.0174
579.562	44.2183
579.614	42.0943
579.666	41.6699
579.718	43.742
579.77	44.3803
579.822	41.8225
579.874	45.1496
579.926	44.5053
579.978	42.9951
580.03	41.097
580.082	41.2753
580.134	41.8786
580.186	45.7379
580.238	43.8648
580.29	42.5222
580.342	42.4962
580.394	42.3016
580.446	39.5666
580.498	40.5616
580.55	39.6982
580.602	43.0044
580.654	41.3282
580.706	41.5061
580.758	41.1127
580.81	40.9627
580.862	41.4063
580.914	43.0209
580.966	43.9631
581.018	43.5328
581.07	42.3837
581.122	42.43
581.174	44.1629
581.226	47.2989
581.278	44.3895
581.33	42.273
581.382	43.2251
581.434	42.8446
581.486	43.1876
581.538	42.6177
581.59	44.3518
581.642	44.2607
581.694	47.4559
581.746	48.2138
581.798	46.4142
581.85	45.5524
581.902	46.9106
581.954	44.4828
582.006	49.4626
582.058	46.9854
582.11	47.434
582.162	47.2797
582.214	48.2018
582.266	51.6909
582.318	47.6456
582.37	46.115
582.422	45.8424
582.474	44.9746
582.526	47.9363
582.578	48.2252
582.63	46.2409
582.682	50.4944
582.734	50.1362
582.786	51.1573
582.838	47.0527
582.89	45.9381
582.942	50.178
582.994	52.2815
583.046	47.9396
583.098	46.7749
583.15	51.3049
583.202	53.3203
583.254	50.2249
583.306	54.1024
583.358	46.4747
583.41	47.6557
583.462	52.1749
583.514	50.3909
583.566	50.0401
583.618	50.9734
583.67	49.3832
583.721	52.477
583.773	50.5618
583.825	49.3931
583.877	48.4229
583.929	50.5932
583.981	51.9701
584.033	53.8104
584.085	54.2033
584.137	53.9038
584.189	50.6439
584.241	50.3653
584.293	51.9221
584.345	50.1282
584.397	51.5601
584.449	55.1074
584.501	52.955
584.553	56.9275
584.605	54.9885
584.657	55.4496
584.709	53.0775
584.761	53.3744
584.813	54.3702
584.865	54.8078
584.917	56.5084
584.969	58.5434
585.021	55.5149
585.073	52.9748
585.125	53.8466
585.177	62.6982
585.229	59.4653
585.281	54.8928
585.332	56.9458
585.384	59.4049
585.436	59.3658
585.488	58.1854
585.54	58.0266
585.592	56.3678
585.644	58.3675
585.696	57.8626
585.748	60.3298
585.8	60.3558
585.852	56.8843
585.904	58.328
585.956	59.7836
586.008	59.7609
586.06	60.7374
586.112	57.5618
586.164	56.1738
586.216	56.5663
586.268	59.1617
586.32	59.0452
586.371	58.7029
586.423	59.0989
586.475	63.4687
586.527	61.7443
586.579	58.1013
586.631	60.1209
586.683	57.4123
586.735	57.8632
586.787	56.1375
586.839	59.0802
586.891	64.0598
586.943	61.9869
586.995	62.1686
587.047	59.3829
587.099	64.4522
587.151	60.8581
587.203	65.1116
587.255	60.4489
587.306	61.8509
587.358	62.8409
587.41	65.4172
587.462	60.8039
587.514	60.47
587.566	61.8422
587.618	63.9423
587.67	62.5527
587.722	63.1054
587.774	62.645
587.826	61.6045
587.878	60.8422
587.93	62.0606
587.982	66.0091
588.034	68.7906
588.085	67.7509
588.137	71.7903
588.189	68.2826
588.241	66.7937
588.293	65.9728
588.345	62.664
588.397	66.0196
588.449	70.4892
588.501	66.4554
588.553	65.4002
588.605	67.0856
588.657	64.0731
588.709	63.6278
588.76	66.9024
588.812	71.5585
588.864	73.3815
588.916	73.4867
588.968	67.5569
589.02	68.6971
589.072	74.8779
589.124	71.4168
589.176	73.268
589.228	77.8823
589.28	79.8205
589.332	73.6994
589.383	73.5491
589.435	77.5453
589.487	79.6908
589.539	79.6312
589.591	78.4448
589.643	79.8628
589.695	74.9778
589.747	75.1319
589.799	70.3597
589.851	69.1857
589.903	74.5747
589.955	74.8314
590.006	73.7244
590.058	72.9339
590.11	73.629
590.162	71.9436
590.214	71.184
590.266	70.134
590.318	73.1277
590.37	67.8819
590.422	71.0928
590.474	74.8869
590.525	73.5446
590.577	67.64
590.629	71.2772
590.681	75.8813
590.733	70.3327
590.785	67.3858
590.837	69.9778
590.889	74.2873
590.932	71.0157
590.984	59.0509
591.036	70.9169
591.088	63.0263
591.14	65.9569
591.192	66.9778
591.244	70.0085
591.296	67.9094
591.348	66.9271
591.4	60.0946
591.452	64.839
591.504	66.578
591.556	62.8198
591.608	64.8372
591.66	58.1308
591.712	64.836
591.764	64.8529
591.816	55.2843
591.868	60.7907
591.92	63.8907
591.972	64.8157
592.024	54.3324
592.076	59.8572
592.128	58.8022
592.18	56.053
592.232	60.1526
592.284	54.2728
592.336	61.4623
592.388	56.3644
592.44	59.0782
592.492	56.225
592.544	54.1792
592.596	55.0143
592.648	55.8919
592.7	60.9249
592.752	58.27
592.804	59.6821
592.856	48.5744
592.908	56.6705
592.96	57.7712
593.012	52.7998
593.064	53.4818
593.116	57.3637
593.168	61.844
593.22	59.707
593.272	59.0239
593.324	60.8717
593.376	58.0696
593.428	56.1811
593.479	56.7176
593.531	58.6678
593.583	58.348
593.635	53.7352
593.687	54.4037
593.739	57.8209
593.791	51.3746
593.843	54.9574
593.895	55.4656
593.947	59.6917
593.999	57.2414
594.051	55.4372
594.103	53.8398
594.155	50.6953
594.207	54.5559
594.259	58.0183
594.311	58.6102
594.363	58.56
594.415	52.9676
594.467	57.3063
594.519	59.8574
594.571	55.4848
594.623	60.2329
594.675	50.7812
594.727	56.5011
594.779	56.6359
594.831	56.2207
594.883	52.938
594.935	54.7266
594.986	59.7245
595.038	57.9587
595.09	50.908
595.142	57.2474
595.194	61.5121
595.246	51.1026
595.298	55.5784
595.35	58.9551
595.402	55.3575
595.454	53.8365
595.506	55.1362
595.558	53.9104
595.61	64.1935
595.662	58.1693
595.714	57.2467
595.766	57.0444
595.818	56.8881
595.87	57.8051
595.922	58.2691
595.974	57.873
596.026	65.0492
596.077	60.5529
596.129	53.1174
596.181	62.3743
596.233	66.0978
596.285	63.6395
596.337	62.4322
596.389	59.9383
596.441	70.3777
596.493	65.9744
596.545	61.2325
596.597	67.4918
596.649	73.9937
596.701	64.0635
596.753	68.9956
596.805	64.7701
596.857	64.7517
596.909	60.9592
596.96	57.9538
597.012	56.9043
597.064	61.1507
597.116	54.2226
597.168	52.0732
597.22	58.013
597.272	55.6905
597.324	54.888
597.376	54.5948
597.428	57.2421
597.48	52.8198
597.532	55.6998
597.584	53.465
597.636	51.2229
597.688	49.4856
597.739	49.9293
597.791	52.1931
597.843	55.5448
597.895	56.3438
597.947	52.4667
597.999	52.6382
598.051	57.3582
598.103	49.883
598.155	52.2983
598.207	55.1504
598.259	56.7743
598.311	56.8703
598.363	52.286
598.414	51.1775
598.466	52.8297
598.518	48.0126
598.57	50.3733
598.622	51.0681
598.674	53.1109
598.726	47.3661
598.778	52.4419
598.83	52.3501
598.882	53.0509
598.934	50.2336
598.986	49.2545
599.037	48.1397
599.089	49.3894
599.141	49.6544
599.193	50.3756
599.245	51.6956
599.297	52.9033
599.349	52.2959
599.401	53.1593
599.453	44.6868
599.505	47.3075
599.557	48.7561
599.609	50.1732
599.66	47.4838
599.712	50.4415
599.764	43.8132
599.816	49.9007
599.868	50.3802
599.92	48.8443
599.972	50.1452
600.024	51.0037
600.076	49.8909
600.128	51.0035
600.18	49.2144
600.231	49.1367
600.283	46.7058
600.335	50.2811
600.387	44.636
600.439	42.2347
600.491	50.9902
600.543	53.5358
600.595	47.4598
600.647	45.5558
600.699	48.2756
600.75	48.5856
600.802	48.9632
600.854	51.4769
600.906	51.1677
600.958	46.5332
601.01	46.6683
601.062	49.9818
601.114	47.2259
601.166	49.8186
601.217	47.1075
601.269	47.5691
601.321	50.4443
601.373	50.4442
601.425	48.0506
601.477	49.2975
601.529	48.9988
601.581	49.1906
601.633	49.7071
601.685	49.2701
601.736	49.8648
601.788	50.1196
601.84	50.4383
601.892	48.5841
601.944	51.6806
601.996	51.0736
602.048	49.2079
602.1	49.2613
602.151	49.1235
602.203	43.9108
602.255	48.9327
602.307	48.2576
602.359	49.8859
602.411	49.8877
602.463	51.6198
602.515	53.3056
602.567	49.8884
602.618	49.8705
602.67	48.6826
602.722	45.5752
602.774	48.3951
602.826	52.0365
602.878	49.725
602.93	47.781
602.982	52.0905
603.033	48.2024
603.085	48.8122
603.137	50.6448
603.189	52.4762
603.241	52.0571
603.293	50.2364
603.345	49.0596
603.396	48.2723
603.448	50.3907
603.5	50.7507
603.552	45.6742
603.604	48.8332
603.656	51.1352
603.708	52.5956
603.76	49.2578
603.811	52.4014
603.863	54.4322
603.915	50.477
603.967	46.6735
604.019	51.6371
604.071	52.8357
604.123	50.9403
604.174	51.6372
604.226	50.6141
604.278	51.7167
604.33	50.1704
604.382	51.6134
604.434	52.7267
604.486	53.8063
604.538	50.0504
604.589	54.0451
604.641	55.1637
604.693	51.8314
604.745	49.3845
604.797	53.5332
604.849	48.0252
604.901	51.2683
604.952	47.199
605.004	45.8898
605.056	50.506
605.108	52.6174
605.16	52.7315
605.212	53.5168
605.263	52.3782
605.315	51.7832
605.367	53.0066
605.419	50.4269
605.471	52.3848
605.523	52.8498
605.575	52.8375
605.626	51.4707
605.678	48.3983
605.73	52.487
605.782	49.3063
605.834	50.5193
605.886	44.9001
605.938	49.9857
605.989	50.5713
606.041	54.5566
606.093	53.0794
606.145	53.4499
606.197	53.2931
606.249	49.5666
606.3	49.2277
606.352	53.4839
606.404	54.596
606.456	53.8259
606.508	50.9293
606.56	50.8547
606.611	50.2956
606.663	56.1928
606.715	56.596
606.767	48.6962
606.819	54.8304
606.871	54.3639
606.922	48.5184
606.974	49.7812
607.026	50.0294
607.078	53.358
607.13	56.4914
607.182	51.458
607.233	49.1646
607.285	52.4366
607.337	48.76
607.389	45.8086
607.441	55.9377
607.493	51.2132
607.544	50.7071
607.596	51.0675
607.648	50.7479
607.7	49.619
607.752	47.5295
607.803	50.4509
607.855	50.7484
607.907	53.6458
607.959	58.4168
608.011	49.695
608.063	45.742
608.114	48.8527
608.166	47.7584
608.218	49.7731
608.27	50.9193
608.322	50.7424
608.374	55.1483
608.425	53.1462
608.477	52.096
608.529	51.5016
608.56	50.9003
608.612	51.4179
608.664	47.3359
608.716	56.2476
608.768	53.0343
608.82	53.1258
608.872	52.139
608.924	53.2758
608.976	53.2415
609.027	57.1558
609.079	52.7029
609.131	52.523
609.183	51.9508
609.235	50.4581
609.287	51.9801
609.339	52.9566
609.391	55.6574
609.443	58.76
609.495	52.0795
609.547	54.225
609.598	56.3261
609.65	54.2067
609.702	54.1649
609.754	50.2208
609.806	53.6867
609.858	46.7137
609.91	53.9168
609.962	48.5673
610.014	49.7599
610.065	53.3592
610.117	58.8099
610.169	47.5963
610.221	57.0618
610.273	57.0832
610.325	51.5008
610.377	52.8165
610.429	50.2394
610.481	53.4035
610.533	56.4033
610.584	54.4414
610.636	50.7034
610.688	58.7003
610.74	57.3391
610.792	51.101
610.844	54.7281
610.896	55.191
610.948	54.8176
611	51.4132
611.052	47.8047
611.103	52.9843
611.155	55.6058
611.207	55.5935
611.259	56.471
611.311	54.1124
611.363	57.4643
611.415	52.6538
611.467	52.8027
611.518	61.4214
611.57	58.7833
611.622	53.8648
611.674	56.2367
611.726	55.4955
611.778	58.4815
611.83	58.3394
611.882	56.6623
611.934	54.5273
611.985	58.1357
612.037	52.5232
612.089	52.4078
612.141	53.3399
612.193	51.9206
612.245	51.0717
612.297	59.4188
612.349	59.7458
612.4	53.0147
612.452	45.2342
612.504	49.9425
612.556	54.6893
612.608	50.3586
612.66	49.0821
612.712	53.9906
612.764	49.5379
612.815	54.6721
612.867	51.4558
612.919	56.8993
612.971	56.4084
613.023	53.0272
613.075	53.3872
613.127	58.4458
613.179	56.0604
613.23	56.4728
613.282	52.8389
613.334	55.1515
613.386	55.9964
613.438	57.0668
613.49	50.5681
613.542	53.7781
613.594	56.6369
613.645	51.9416
613.697	54.0077
613.749	54.1688
613.801	55.7005
613.853	54.9934
613.905	57.8285
613.957	58.4849
614.008	56.5918
614.06	55.3944
614.112	58.1559
614.164	59.0291
614.216	56.8163
614.268	50.0023
614.32	53.583
614.371	56.6224
614.423	61.9913
614.475	51.4949
614.527	57.6988
614.579	58.5433
614.631	57.6161
614.683	53.4656
614.734	58.435
614.786	57.1684
614.838	51.9127
614.89	48.6976
614.942	62.3668
614.994	60.5395
615.045	58.6974
615.097	51.5086
615.149	56.9014
615.201	60.324
615.253	55.0926
615.305	55.6752
615.357	56.1928
615.408	56.8275
615.46	64.1784
615.512	52.5016
615.564	55.0388
615.616	58.7379
615.668	52.7653
615.719	56.1538
615.771	60.3033
615.823	58.3256
615.875	55.4889
615.927	59.944
615.979	58.448
616.031	56.0462
616.082	59.0108
616.134	54.2007
616.186	54.7024
616.238	52.7262
616.29	58.7235
616.342	57.6834
616.393	62.19
616.445	59.5906
616.497	59.6638
616.549	53.8657
616.601	59.5131
616.653	58.9409
616.704	57.7805
616.756	57.408
616.808	52.4084
616.86	60.1971
616.912	56.6613
616.964	53.3305
617.015	59.6487
617.067	62.0154
617.119	51.8722
617.171	54.1809
617.223	60.6307
617.274	60.659
617.326	54.6824
617.378	58.3173
617.43	56.5498
617.482	56.9987
617.534	56.018
617.585	61.3525
617.637	58.5149
617.689	59.5743
617.741	49.3507
617.793	57.259
617.845	54.9393
617.896	58.4134
617.948	59.432
618	53.495
618.052	64.4421
618.104	60.1808
618.155	54.6692
618.207	57.2018
618.259	61.3813
618.311	63.8556
618.363	55.6632
618.415	59.2437
618.466	55.7777
618.518	66.7414
618.57	52.4104
618.622	61.8317
618.674	61.9034
618.725	57.7091
618.777	56.7942
618.829	62.7424
618.881	62.0785
618.933	58.8021
618.984	55.621
619.036	62.2715
619.088	57.8164
619.14	62.1364
619.192	51.8257
619.244	61.9447
619.295	62.8793
619.347	58.1848
619.399	58.1035
619.451	55.1497
619.503	56.5254
619.554	65.6941
619.606	58.9765
619.658	58.695
619.71	54.199
619.762	55.8429
619.813	57.9931
619.865	60.9558
619.917	57.4347
619.969	62.3737
620.021	52.5893
620.072	61.5181
620.124	60.9784
620.176	54.0909
620.228	48.6332
620.279	60.9815
620.331	62.0539
620.383	55.9832
620.435	49.8272
620.487	61.5437
620.538	61.7257
620.59	53.4011
620.642	58.1358
620.694	62.1051
620.746	59.9621
620.797	55.8376
620.849	58.3789
620.901	55.9832
620.953	58.3243
621.005	57.2486
621.056	59.2362
621.108	62.9084
621.16	60.676
621.212	56.3204
621.263	59.0632
621.315	59.2045
621.367	56.5513
621.419	56.3721
621.471	54.7172
621.522	63.4946
621.574	63.7246
621.626	60.1694
621.678	59.1557
621.729	57.9277
621.781	56.81
621.833	57.6307
621.885	60.683
621.937	63.488
621.988	63.3648
622.04	56.8838
622.092	57.7712
622.144	61.9823
622.195	62.7894
622.247	62.2136
622.299	60.8392
622.351	59.524
622.403	61.0883
622.454	58.0107
622.506	55.1954
622.558	60.2737
622.61	58.912
622.661	56.5243
622.713	60.1444
622.765	61.3102
622.817	59.4956
622.869	56.32
622.92	60.874
622.972	63.4881
623.024	58.6112
623.076	55.6952
623.127	61.96
623.179	65.5304
623.231	61.7186
623.283	58.4129
623.334	57.9214
623.386	61.6352
623.438	60.9349
623.49	58.5455
623.541	58.4422
623.593	62.8417
623.645	60.5201
623.697	56.2764
623.748	60.8708
623.8	65.4801
623.852	60.7545
623.904	53.8191
623.956	57.0746
624.007	55.0571
624.059	57.3
624.111	59.7161
624.162	57.7481
624.214	60.0285
624.266	57.7353
624.318	57.1802
624.37	57.897
624.421	58.4976
624.473	57.8989
624.525	61.0485
624.576	58.7175
624.628	58.79
624.68	55.0026
624.732	54.3601
624.784	60.5338
624.835	60.4628
624.887	59.1633
624.939	57.7729
624.99	57.0704
625.042	61.83
625.094	61.1077
625.146	57.5803
625.197	58.3451
625.249	63.9074
625.301	59.4794
625.353	58.1906
625.404	65.1894
625.456	65.5999
625.508	59.6261
625.56	57.792
625.611	59.0145
625.663	60.0594
625.715	56.9323
625.767	59.368
625.818	59.8704
625.87	62.9674
625.922	62.8497
625.974	55.6113
626.025	56.6726
626.077	60.5305
626.129	57.9686
626.18	55.5262
626.197	58.0258
626.249	61.5168
626.3	62.5098
626.352	61.462
626.404	62.8759
626.456	58.9167
626.508	64.8747
626.56	62.0164
626.611	61.3836
626.663	61.9168
626.715	64.388
626.767	55.6402
626.819	59.2542
626.87	59.4074
626.922	57.9553
626.974	61.8082
627.026	56.5009
627.078	56.325
627.13	57.6515
627.181	55.2505
627.233	60.9245
627.285	59.488
627.337	62.11
627.389	59.1287
627.44	62.1314
627.492	62.8388
627.544	60.5759
627.596	57.0173
627.648	65.2115
627.7	61.7662
627.751	63.765
627.803	61.43
627.855	61.4938
627.907	63.1639
627.959	62.7275
628.01	57.2053
628.062	57.7184
628.114	66.0779
628.166	62.7168
628.218	59.133
628.27	60.2651
628.321	59.8626
628.373	59.1285
628.425	60.3913
628.477	62.2032
628.529	59.7319
628.58	61.478
628.632	61.6063
628.684	61.7346
628.736	64.1925
628.788	60.5575
628.839	54.7244
628.891	56.4882
628.943	62.4992
628.995	62.8502
629.047	59.6646
629.098	60.0259
629.15	64.4395
629.202	61.2151
629.254	57.6721
629.306	60.9585
629.357	64.5316
629.409	60.1027
629.461	60.919
629.513	60.9151
629.565	63.8065
629.616	58.1986
629.668	57.9276
629.72	59.7985
629.772	65.0357
629.824	61.2321
629.875	59.5357
629.927	61.9793
629.979	59.6884
630.031	59.1083
630.083	63.5777
630.134	57.2492
630.186	59.8476
630.238	57.1742
630.29	59.8433
630.342	59.1628
630.393	60.5944
630.445	61.3022
630.497	64.4654
630.549	69.2025
630.6	67.3562
630.652	61.555
630.704	59.1608
630.756	61.2832
630.808	63.5159
630.859	60.9834
630.911	63.6624
630.963	67.8612
631.015	63.9474
631.067	61.5062
631.118	61.9418
631.17	61.5191
631.222	61.5162
631.274	58.9777
631.325	58.1785
631.377	58.8801
631.429	59.6298
631.481	55.2499
631.533	52.6556
631.584	56.8298
631.636	58.6127
631.688	58.3052
631.74	62.4535
631.791	60.7892
631.843	60.6318
631.895	56.6795
631.947	61.0017
631.999	59.6449
632.05	60.6484
632.102	63.7083
632.154	57.5984
632.206	61.0387
632.257	63.2089
632.309	57.6609
632.361	58.3579
632.413	65.3124
632.464	66.2956
632.516	63.2632
632.568	62.9303
632.62	64.3652
632.672	65.1622
632.723	62.0236
632.775	63.8853
632.827	64.7486
632.879	59.7164
632.93	60.2648
632.982	58.9542
633.034	64.8313
633.086	67.0449
633.137	62.5163
633.189	61.8858
633.241	65.9976
633.293	63.1553
633.344	64.4571
633.396	59.5473
633.448	60.5246
633.5	60.0166
633.551	66.9683
633.603	62.7146
633.655	63.5317
633.707	60.1473
633.758	60.6234
633.81	58.7924
633.862	67.6329
633.914	61.0397
633.965	61.1618
634.017	63.7827
634.069	66.0165
634.121	63.3111
634.172	66.9022
634.224	62.3774
634.276	65.129
634.328	65.0084
634.379	64.8979
634.431	60.7638
634.483	68.6278
634.535	61.8207
634.586	58.1707
634.638	60.672
634.69	60.6987
634.742	70.9687
634.793	66.6188
634.845	65.1638
634.897	60.729
634.949	66.3756
635	63.0899
635.052	64.364
635.104	63.4048
635.156	64.3059
635.207	64.7205
635.259	64.1576
635.311	72.2653
635.363	62.726
635.414	60.1762
635.466	60.1917
635.518	67.8921
635.57	64.1829
635.621	63.9719
635.673	65.4146
635.725	65.9899
635.776	63.13
635.828	65.455
635.88	63.3303
635.932	69.582
635.983	67.9775
636.035	65.6535
636.087	63.9847
636.139	72.1807
636.19	66.3709
636.242	59.5643
636.294	59.8228
636.345	70.1103
636.397	74.0014
636.449	65.4708
636.501	60.4185
636.552	62.1971
636.604	62.8816
636.656	63.3799
636.708	60.9007
636.759	67.1757
636.811	66.8496
636.863	64.5607
636.914	65.919
636.966	65.5308
637.018	68.3748
637.07	70.8038
637.121	66.9313
637.173	68.1246
637.225	72.4035
637.276	64.4634
637.328	62.8402
637.38	68.3195
637.432	73.7854
637.483	65.9165
637.535	71.965
637.587	73.6666
637.638	70.3257
637.69	66.7618
637.742	69.7849
637.794	78.3897
637.845	69.6997
637.897	68.338
637.949	70.472
638	69.8889
638.052	68.1831
638.104	67.3472
638.156	68.9958
638.207	76.0005
638.259	73.9752
638.311	71.0754
638.362	69.8758
638.414	72.119
638.466	69.558
638.517	70.6967
638.569	67.8177
638.621	69.235
638.673	76.4674
638.724	72.4603
638.776	70.6303
638.828	67.4262
638.879	69.1708
638.931	65.6859
638.983	67.5687
639.034	74.213
639.086	68.6734
639.138	64.1677
639.19	75.9213
639.241	66.8252
639.293	67.6037
639.345	57.7748
639.396	61.1062
639.448	66.3827
639.5	66.0657
639.551	59.4488
639.603	70.4983
639.655	63.7158
639.706	67.6483
639.758	66.1824
639.81	64.3325
639.862	69.1294
639.913	62.473
639.965	61.749
640.017	70.8473
640.068	64.9568
640.12	65.8968
640.172	60.6883
640.223	68.5166
640.275	68.7204
640.327	70.8494
640.378	60.0631
640.43	63.5292
640.482	69.6507
640.533	67.6028
640.585	65.607
640.637	56.4437
640.688	69.027
640.74	64.8133
640.792	64.6695
640.844	68.9344
640.895	68.7763
640.947	62.8036
640.999	60.1148
641.05	70.3533
641.102	70.3513
641.154	67.4729
641.205	66.1121
641.257	66.9654
641.309	63.4464
641.36	65.6598
641.412	60.9861
641.464	69.7168
641.515	66.7073
641.567	65.0422
641.619	63.8498
641.67	68.4292
641.722	65.4412
641.774	62.952
641.825	68.1972
641.877	70.9228
641.929	61.0546
641.98	65.7993
642.032	61.0522
642.084	59.434
642.135	63.2972
642.187	57.0879
642.239	62.3733
642.29	66.4321
642.342	59.834
642.394	62.4793
642.445	63.9439
642.497	66.2407
642.549	67.3758
642.6	64.5178
642.652	69.7694
642.704	59.4039
642.755	67.9604
642.807	60.6587
642.859	66.4353
642.91	66.1728
642.962	63.1067
643.013	63.982
643.065	67.2893
643.117	67.3286
643.168	69.8467
643.22	68.1662
643.272	69.7883
643.323	65.8528
643.375	63.9431
643.427	62.4195
643.478	69.1019
643.53	65.6744
643.582	65.0141
643.633	62.4635
643.685	68.0983
643.737	63.8634
643.788	61.4995
643.84	66.6641
643.891	68.7513
643.898	68.7605
643.949	62.2527
644.001	69.5055
644.053	64.4771
644.105	64.1231
644.156	61.3709
644.208	67.8212
644.26	65.5581
644.312	72.7588
644.363	62.6232
644.415	66.4962
644.467	59.5482
644.519	70.4064
644.57	69.2351
644.622	65.946
644.674	60.9907
644.726	66.6772
644.777	67.471
644.829	59.0722
644.881	59.56
644.932	64.1234
644.984	62.7831
645.036	64.8561
645.088	64.1972
645.139	67.7331
645.191	66.9767
645.243	59.5875
645.295	64.0141
645.346	62.2617
645.398	71.662
645.45	66.0961
645.502	65.8481
645.553	69.1403
645.605	72.494
645.657	59.4605
645.708	65.081
645.76	63.2617
645.812	66.0621
645.864	66.9303
645.915	64.2792
645.967	70.4446
646.019	63.594
646.071	64.5873
646.122	59.0157
646.174	66.2927
646.226	72.8599
646.277	63.5062
646.329	65.3163
646.381	72.0191
646.433	63.7617
646.484	60.0547
646.536	58.2765
646.588	61.5778
646.639	67.7771
646.691	56.6233
646.743	58.2229
646.795	62.4964
646.846	64.7897
646.898	57.1421
646.95	64.9025
647.001	60.2472
647.053	68.8106
647.105	63.4484
647.157	69.3326
647.208	69.0406
647.26	70.9894
647.312	63.1577
647.363	63.6855
647.415	62.2449
647.467	60.6812
647.519	62.4043
647.57	65.3124
647.622	58.0608
647.674	64.2121
647.725	60.3466
647.777	62.2758
647.829	67.0513
647.881	61.6666
647.932	61.8028
647.984	66.3903
648.036	63.1296
648.087	68.8798
648.139	59.4813
648.191	68.9291
648.242	57.995
648.294	66.5475
648.346	64.6667
648.398	69.1263
648.449	61.6864
648.501	73.0273
648.553	59.3324
648.604	70.1479
648.656	68.4617
648.708	64.0505
648.759	59.7521
648.811	70.1351
648.863	63.5402
648.914	62.5806
648.966	58.1643
649.018	66.7985
649.07	63.5524
649.121	65.6248
649.173	60.8322
649.225	66.2713
649.276	65.78
649.328	63.7645
649.38	66.4448
649.431	66.1436
649.483	67.6412
649.535	62.947
649.586	63.3662
649.638	66.0033
649.69	65.7117
649.742	63.4688
649.793	62.3094
649.845	66.6132
649.897	64.3533
649.948	62.5848
650	65.0278
650.052	70.9299
650.103	65.364
650.155	61.4915
650.207	63.2715
650.258	64.8041
650.31	71.9766
650.362	69.1252
650.413	64.5502
650.465	65.2746
650.517	60.584
650.568	68.0017
650.62	63.8956
650.672	66.0453
650.723	72.2783
650.775	61.1221
650.827	71.867
650.878	67.0335
650.93	62.8493
650.982	57.0092
651.034	64.0183
651.085	65.4569
651.137	66.0535
651.189	66.732
651.24	65.2571
651.292	54.4105
651.344	67.7657
651.395	65.8457
651.447	66.2869
651.499	64.0937
651.55	66.3166
651.602	63.2302
651.654	66.5256
651.705	66.4746
651.757	71.6527
651.809	71.6062
651.86	70.1781
651.912	61.7535
651.964	68.5645
652.015	59.4598
652.067	67.5269
652.118	66.1609
652.17	67.9427
652.222	62.2649
652.273	67.5548
652.325	59.0947
652.377	68.9803
652.428	65.8864
652.48	64.1777
652.532	62.5004
652.583	72.6651
652.635	71.9494
652.687	67.7447
652.738	65.2865
652.79	66.5764
652.842	65.1174
652.893	71.3774
652.945	67.1604
652.997	68.2419
653.048	62.1911
653.1	66.1963
653.152	67.6527
653.203	70.756
653.255	64.0934
653.307	69.6302
653.358	66.0496
653.41	70.1808
653.461	69.4206
653.513	64.8624
653.565	63.753
653.616	67.7868
653.668	62.9121
653.72	66.0934
653.771	67.2132
653.823	73.5076
653.875	66.5634
653.926	63.4237
653.978	67.3053
654.029	67.4301
654.081	65.2366
654.133	66.2013
654.184	68.3326
654.236	65.8447
654.288	66.0274
654.339	61.8488
654.391	62.9353
654.443	71.2225
654.494	68.9825
654.546	66.8407
654.597	68.1564
654.649	66.4981
654.701	67.1442
654.752	68.7945
654.804	70.3857
654.856	56.7035
654.907	66.1208
654.959	63.0697
655.01	64.6435
655.062	67.912
655.114	71.1322
655.165	69.8239
655.217	72.6753
655.269	67.8728
655.32	71.7922
655.372	69.5063
655.424	70.9583
655.475	67.8946
655.527	68.7092
655.578	69.0797
655.63	73.8838
655.682	63.0647
655.733	68.0518
655.785	68.4942
655.836	66.9441
655.888	66.2407
655.94	71.3676
655.991	68.5306
656.043	74.6044
656.095	65.8875
656.146	72.3139
656.198	67.3799
656.249	71.1323
656.301	73.575
656.353	73.42
656.404	68.6414
656.456	72.4199
656.508	70.5
656.559	70.5962
656.611	68.7739
656.662	68.0612
656.714	61.5739
656.766	65.8225
656.817	68.4282
656.869	64.894
656.92	65.0681
656.972	68.8508
657.024	66.9262
657.075	69.7
657.127	68.2909
657.178	66.8472
657.23	63.768
657.282	65.0088
657.333	68.2108
657.385	70.1562
657.436	67.8739
657.488	64.4891
657.54	68.5564
657.591	68.4606
657.643	71.1206
657.694	66.145
657.746	71.2347
657.798	73.0114
657.849	66.886
657.901	71.4207
657.952	71.2815
658.004	69.2974
658.056	69.5293
658.107	69.8428
658.159	69.9215
658.21	69.1811
658.262	67.908
658.314	63.6959
658.365	68.842
658.417	69.9917
658.468	67.6257
658.52	74.0573
658.571	69.8606
658.623	67.9812
658.675	73.3713
658.726	70.4241
658.778	70.1142
658.829	70.9869
658.881	72.4739
658.933	69.5701
658.984	67.7575
659.036	68.7683
659.087	73.7944
659.139	64.6481
659.19	67.9122
659.242	67.9865
659.294	68.4642
659.345	67.2952
659.397	68.8754
659.448	66.5734
659.5	72.1258
659.552	72.8851
659.603	69.9896
659.655	68.2072
659.706	74.2048
659.758	69.0274
659.809	71.2217
659.861	67.4574
659.913	70.8123
659.964	73.8095
660.016	72.1447
660.067	71.0753
660.119	71.6617
660.17	69.1461
660.222	72.8856
660.274	69.507
660.325	69.4542
660.377	70.3655
660.428	75.8398
660.48	70.2277
660.531	75.0249
660.583	69.3577
660.635	63.7824
660.686	63.5043
660.738	66.1207
660.789	73.3443
660.841	71.8439
660.892	71.0533
660.944	74.6827
660.995	69.9924
661.047	66.8918
661.099	66.7498
661.15	63.9108
661.202	68.4302
661.253	64.8793
661.305	74.6358
661.356	72.6952
661.408	69.5829
661.46	68.7355
661.511	67.4562
661.532	64.9453
661.583	67.0588
661.635	73.2182
661.687	70.2095
661.738	73.1973
661.79	67.9175
661.842	69.6492
661.893	70.987
661.945	67.0169
661.997	70.2191
662.048	69.6821
662.1	70.5964
662.151	63.4569
662.203	60.2766
662.255	68.5085
662.306	63.0463
662.358	65.2722
662.41	66.1617
662.461	75.1912
662.513	74.1766
662.565	73.476
662.616	70.7172
662.668	75.1304
662.72	66.1686
662.771	69.8484
662.823	63.3162
662.875	75.4001
662.926	66.6887
662.978	72.4174
663.03	64.1937
663.081	71.4351
663.133	68.9548
663.184	69.6454
663.236	65.3573
663.288	74.0589
663.339	65.7483
663.391	67.7684
663.443	67.0694
663.494	66.4189
663.546	63.5744
663.598	67.4879
663.649	69.7386
663.701	73.3635
663.752	66.9072
663.804	69.0814
663.856	70.223
663.907	71.6553
663.959	69.0343
664.011	71.7698
664.062	66.854
664.114	71.3875
664.166	68.2371
664.217	68.7853
664.269	69.6527
664.32	67.829
664.372	68.2894
664.424	67.6693
664.475	62.2366
664.527	63.3709
664.579	65.2335
664.63	64.4287
664.682	63.2432
664.733	69.9138
664.785	63.0201
664.837	63.7871
664.888	70.0541
664.94	71.0787
664.992	70.3156
665.043	67.8081
665.095	68.7221
665.146	65.0937
665.198	67.1103
665.25	67.4752
665.301	69.4834
665.353	65.7196
665.405	66.5454
665.456	68.0323
665.508	70.9186
665.559	70.4953
665.611	66.2439
665.663	67.9367
665.714	70.9902
665.766	67.7393
665.817	74.9425
665.869	71.0894
665.921	63.8099
665.972	65.6951
666.024	68.6613
666.076	67.857
666.127	69.1486
666.179	66.275
666.23	67.0425
666.282	64.8956
666.334	70.7182
666.385	71.884
666.437	69.3765
666.488	61.4421
666.54	66.4707
666.592	70.0911
666.643	68.9854
666.695	67.0253
666.746	71.1031
666.798	65.4731
666.85	66.6709
666.901	66.9744
666.953	71.778
667.004	64.623
667.056	67.6746
667.108	58.9517
667.159	70.1389
667.211	67.3091
667.262	65.7789
667.314	66.913
667.366	71.6927
667.417	69.0477
667.469	69.3421
667.52	58.8775
667.572	65.7194
667.624	62.6974
667.675	70.3299
667.727	67.1302
667.778	72.9244
667.83	67.4702
667.882	68.6177
667.933	69.3411
667.985	64.6076
668.036	66.1883
668.088	69.9913
668.14	63.8319
668.191	65.5117
668.243	65.2815
668.294	61.8531
668.346	67.0502
668.397	71.6334
668.449	67.3596
668.501	68.0754
668.552	69.3739
668.604	74.7275
668.655	62.5017
668.707	68.0637
668.759	62.2355
668.81	72.6312
668.862	64.157
668.913	59.4828
668.965	66.7373
669.016	72.2663
669.068	61.5346
669.12	65.7457
669.171	67.112
669.223	69.3051
669.274	69.168
669.326	66.0888
669.377	61.3682
669.429	63.7072
669.481	64.5751
669.532	60.3243
669.584	66.9653
669.635	68.8884
669.687	68.4864
669.738	68.5947
669.79	71.2922
669.842	61.3981
669.893	63.4014
669.945	67.7565
669.996	72.9754
670.048	64.9776
670.099	67.289
670.151	66.2165
670.203	70.8182
670.254	57.7262
670.306	63.0822
670.357	66.7607
670.409	70.6507
670.46	67.1644
670.512	65.9825
670.564	59.7593
670.615	67.7335
670.667	64.2672
670.718	64.7641
670.77	65.7033
670.821	63.4231
670.873	67.3542
670.924	67.6623
670.976	63.111
671.028	64.2386
671.079	69.1938
671.131	65.1792
671.182	63.3482
671.234	69.7742
671.285	63.9584
671.337	59.9646
671.388	67.0075
671.44	69.7404
671.492	67.9341
671.543	65.519
671.595	67.3316
671.646	60.5372
671.698	66.5957
671.749	70.7024
671.801	70.0833
671.852	69.5418
671.904	63.7076
671.956	65.0963
672.007	72.4347
672.059	69.7651
672.11	58.5367
672.162	62.3451
672.213	67.2221
672.265	65.7978
672.316	70.3352
672.368	66.7375
672.419	72.0896
672.471	71.1773
672.522	66.0709
672.574	63.9699
672.626	64.6681
672.677	60.3792
672.729	65.4318
672.78	67.1919
672.832	70.221
672.883	70.3927
672.935	68.3865
672.986	62.4879
673.038	70.3745
673.089	71.17
673.141	58.768
673.192	65.7963
673.244	67.3186
673.296	60.7031
673.347	67.9783
673.399	62.0541
673.45	63.9122
673.502	71.3159
673.553	67.9035
673.605	62.2038
673.656	65.0093
673.708	65.2838
673.759	63.0709
673.811	63.6943
673.862	71.0695
673.914	64.6326
673.965	67.4526
674.017	69.6124
674.068	70.0482
674.12	64.4489
674.171	69.2208
674.223	62.6589
674.275	63.5726
674.326	65.4496
674.378	67.7706
674.429	66.5972
674.481	71.3352
674.532	65.9167
674.584	68.1194
674.635	64.5122
674.687	68.1582
674.738	68.4245
674.79	66.7256
674.841	67.9796
674.893	68.7188
674.944	63.6506
674.996	65.5746
675.047	74.3957
675.099	71.2638
675.15	66.4587
675.202	70.0997
675.253	69.0485
675.305	64.3813
675.356	62.4844
675.408	68.7882
675.459	71.2854
675.511	71.3255
675.562	66.5893
675.614	65.6333
675.665	69.1154
675.717	69.2988
675.768	67.732
675.82	62.4017
675.871	66.6391
675.923	65.6128
675.974	63.8665
676.026	67.6186
676.077	70.3525
676.129	65.1234
676.18	65.8045
676.232	68.9758
676.283	68.7269
676.335	64.9916
676.386	73.1947
676.438	66.1879
676.489	68.7257
676.541	71.4587
676.592	69.4292
676.644	65.5353
676.695	71.2458
676.747	69.5545
676.798	66.9182
676.85	71.5899
676.901	65.6019
676.953	68.5282
677.004	63.2832
677.056	66.4444
677.107	70.6288
677.159	66.1423
677.21	67.4345
677.262	67.3751
677.313	66.9647
677.365	63.824
677.416	66.6481
677.468	62.9631
677.519	71.1779
677.571	65.3133
677.622	66.9272
677.674	62.0759
677.725	68.2248
677.777	65.3676
677.828	72.9921
677.88	68.312
677.931	73.2886
677.982	68.7757
678.034	64.2295
678.085	67.0087
678.137	70.3412
678.188	66.2884
678.24	67.2866
678.291	66.8507
678.343	70.9005
678.394	65.5021
678.446	64.2385
678.497	65.6704
678.549	69.0314
678.6	69.1552
678.652	65.9584
678.703	64.2774
678.755	69.1956
678.806	66.2008
678.857	63.7174
678.909	71.1275
678.96	64.7694
679.012	67.806
679.063	63.5966
679.083	62.2896
679.135	67.8194
679.186	67.655
679.238	65.2595
679.289	61.1155
679.341	66.5
679.392	70.8963
679.444	68.1279
679.496	60.4051
679.547	66.5275
679.599	69.065
679.65	65.243
679.702	65.6721
679.753	69.2629
679.805	68.1688
679.857	63.094
679.908	68.0625
679.96	65.7667
680.011	71.2415
680.063	64.0354
680.114	68.0848
680.166	71.1768
680.217	72.9429
680.269	65.4944
680.321	67.1346
680.372	66.4048
680.424	66.2347
680.475	63.2003
680.527	69.1521
680.578	71.3132
680.63	65.7483
680.682	65.7935
680.733	68.8707
680.785	70.4903
680.836	64.7814
680.888	69.1584
680.939	63.7567
680.991	71.023
681.042	70.2085
681.094	70.1145
681.146	65.9468
681.197	62.1394
681.249	65.671
681.3	68.56
681.352	67.8897
681.403	73.5686
681.455	74.6089
681.506	67.028
681.558	69.1323
681.609	70.1461
681.661	67.2014
681.712	69.2102
681.764	63.3209
681.816	69.6995
681.867	63.3228
681.919	65.6936
681.97	63.3972
682.022	71.9348
682.073	71.0423
682.125	68.4073
682.176	63.7272
682.228	68.475
682.279	64.2259
682.331	67.43
682.383	64.5875
682.434	70.9027
682.486	68.5398
682.537	68.7572
682.589	66.7935
682.64	69.424
682.692	69.3644
682.743	65.5968
682.795	65.9278
682.846	68.0429
682.898	70.9843
682.949	67.6188
683.001	71.2106
683.052	69.814
683.104	65.4296
683.156	65.6477
683.207	67.9838
683.259	67.1524
683.31	67.6781
683.362	65.1988
683.413	64.3388
683.465	68.2188
683.516	65.7279
683.568	65.3042
683.619	70.2129
683.671	65.6142
683.722	68.6493
683.774	68.7738
683.825	69.4457
683.877	62.8251
683.928	64.1788
683.98	66.0344
684.031	68.6779
684.083	65.2435
684.134	61.1143
684.186	63.4425
684.237	71.8143
684.289	70.5795
684.341	64.0041
684.392	64.8993
684.444	67.0831
684.495	63.01
684.547	65.3134
684.598	66.7823
684.65	62.6849
684.701	67.8169
684.753	69.5174
684.804	71.7266
684.856	73.311
684.907	67.6464
684.959	66.6661
685.01	63.8571
685.062	62.5718
685.113	67.2038
685.165	74.3539
685.216	68.3869
685.268	69.6486
685.319	64.515
685.371	67.5423
685.422	62.3245
685.474	70.2376
685.525	63.9521
685.577	70.5431
685.628	62.2486
685.68	70.5911
685.731	66.4312
685.783	61.9134
685.834	63.0234
685.886	72.5571
685.937	66.2673
685.989	65.2903
686.04	61.6554
686.092	68.4982
686.143	67.6979
686.195	60.409
686.246	63.2405
686.298	60.1962
686.349	65.718
686.401	68.1249
686.452	63.8656
686.504	72.086
686.555	54.1045
686.607	67.8755
686.658	67.2696
686.71	66.3754
686.761	61.4577
686.813	64.2899
686.864	62.5647
686.916	68.0453
686.967	64.0117
687.018	64.0229
687.07	68.1046
687.121	71.469
687.173	68.8163
687.224	65.7103
687.276	62.3498
687.327	66.4436
687.379	64.2388
687.43	66.2879
687.482	63.0741
687.533	67.2073
687.585	64.1589
687.636	67.2239
687.688	64.0234
687.739	68.1316
687.791	64.9405
687.842	67.3295
687.894	72.9072
687.945	68.7505
687.997	68.1535
688.048	64.3948
688.1	63.0417
688.151	58.6854
688.203	65.2941
688.254	68.1896
688.305	70.8476
688.357	67.8498
688.408	65.4042
688.46	60.9376
688.511	67.4267
688.563	69.1496
688.614	67.8887
688.666	61.8148
688.717	67.5624
688.769	67.8508
688.82	64.3606
688.872	59.4003
688.923	61.6144
688.974	60.5744
689.026	70.9309
689.077	61.4549
689.129	70.3108
689.18	65.4342
689.232	58.2369
689.283	63.5369
689.335	67.0458
689.386	64.6947
689.438	66.1054
689.489	64.028
689.541	65.3489
689.592	62.3591
689.643	64.9211
689.695	63.7777
689.746	62.3265
689.798	62.5973
689.849	67.383
689.901	63.0828
689.952	70.3936
690.004	62.3365
690.055	65.4203
690.107	57.5479
690.158	59.1813
690.209	67.7902
690.261	63.9166
690.312	66.5354
690.364	61.8857
690.415	60.8662
690.467	66.6561
690.518	62.5057
690.57	66.2161
690.621	67.0339
690.672	67.2404
690.724	62.0661
690.775	65.6913
690.827	60.3249
690.878	56.8977
690.93	58.5308
690.981	64.4386
691.033	64.1523
691.084	63.1822
691.135	67.6193
691.187	61.5232
691.238	59.9072
691.29	59.7686
691.341	67.2413
691.393	62.9101
691.444	67.3048
691.495	63.9799
691.547	65.2174
691.598	69.1959
691.65	57.3934
691.701	64.8837
691.753	65.4041
691.804	63.6631
691.856	63.1559
691.907	63.9487
691.958	60.3045
692.01	65.2591
692.061	62.7445
692.113	61.263
692.164	64.4565
692.216	61.7262
692.267	60.2001
692.318	65.6884
692.37	63.5753
692.421	59.4108
692.473	67.2377
692.524	67.0784
692.576	67.9632
692.627	60.8029
692.678	63.8632
692.73	60.0866
692.781	64.7051
692.833	63.7276
692.884	61.5289
692.935	62.0113
692.987	68.6563
693.038	62.9402
693.09	65.9466
693.141	63.8769
693.193	62.1744
693.244	60.2597
693.295	59.163
693.347	62.7142
693.398	66.4334
693.45	62.9192
693.501	65.3473
693.552	60.615
693.604	62.1439
693.655	60.1488
693.707	64.9042
693.758	62.2243
693.809	64.7866
693.861	63.5275
693.912	67.5863
693.964	65.0781
694.015	62.8323
694.066	65.1819
694.118	63.8295
694.169	57.346
694.221	60.2002
694.272	62.9424
694.323	68.4498
694.375	65.6579
694.426	65.0754
694.478	66.7252
694.529	63.3323
694.581	62.5292
694.632	65.6909
694.683	63.7176
694.735	64.247
694.786	63.071
694.837	62.0607
694.889	61.8379
694.94	63.2514
694.992	66.6442
695.043	64.526
695.094	65.2156
695.146	64.2283
695.197	62.7511
695.249	63.2898
695.3	66.8778
695.351	65.9932
695.403	63.801
695.454	62.7938
695.506	63.6361
695.557	62.5734
695.608	62.7953
695.66	64.0591
695.711	62.6334
695.763	60.6305
695.814	64.3698
695.865	63.5999
695.917	64.3301
695.968	61.543
696.019	64.0687
696.071	63.3099
696.122	61.8998
696.174	63.467
696.225	59.9403
696.276	58.7223
696.328	64.2405
696.379	61.3455
696.43	64.3009
696.482	61.2994
696.533	62.866
696.585	60.4987
696.636	59.7852
696.687	61.4157
696.707	64.1405
696.759	61.7541
696.81	60.1481
696.862	58.6294
696.913	56.4645
696.965	63.2185
697.016	60.1545
697.068	64.2448
697.119	56.0872
697.171	62.5193
697.222	58.9002
697.274	61.4031
697.325	50.1068
697.377	62.9299
697.428	63.0686
697.479	62.8407
697.531	65.2589
697.582	62.5586
697.634	62.4888
697.685	63.8968
697.737	62.585
697.788	60.2803
697.84	58.6174
697.891	64.3232
697.943	61.5173
697.994	61.8638
698.046	57.6932
698.097	62.7288
698.149	65.1433
698.2	66.9455
698.252	65.4547
698.303	62.3137
698.354	63.3625
698.406	60.7069
698.457	55.0788
698.509	57.8706
698.56	57.2483
698.612	64.9978
698.663	56.7486
698.715	58.0991
698.766	57.1976
698.818	61.7472
698.869	58.5182
698.921	60.5387
698.972	58.9114
699.023	62.1212
699.075	61.203
699.126	58.3564
699.178	56.8529
699.229	57.5836
699.281	58.6142
699.332	61.1725
699.384	59.2149
699.435	58.3419
699.487	55.8721
699.538	61.8481
699.589	55.9927
699.641	59.131
699.692	60.703
699.744	56.3209
699.795	53.9823
699.847	62.8876
699.898	59.9793
699.95	61.601
700.001	55.9846
700.052	59.3428
700.104	58.4433
700.155	63.2677
700.207	66.7254
700.258	61.6602
700.31	58.1506
700.361	59.5441
700.413	57.4696
700.464	60.4154
700.515	56.6964
700.567	59.5935
700.618	59.6725
700.67	60.9687
700.721	62.0155
700.773	55.7135
700.824	60.4729
700.875	59.9856
700.927	55.8042
700.978	56.881
701.03	63.4672
701.081	60.6996
701.133	58.9736
701.184	56.843
701.235	61.2131
701.287	58.777
701.338	58.5272
701.39	57.6226
701.441	61.7798
701.493	62.9979
701.544	61.62
701.596	56.6155
701.647	59.03
701.698	61.7485
701.75	59.7917
701.801	57.5039
701.853	56.1487
701.904	54.6463
701.956	62.8337
702.007	61.318
702.058	60.9149
702.11	58.9602
702.161	58.5142
702.213	59.3288
702.264	56.6309
702.315	57.5177
702.367	58.9791
702.418	58.2805
702.47	61.8331
702.521	57.8574
702.573	61.2599
702.624	61.3259
702.675	58.0574
702.727	61.2204
702.778	60.9019
702.83	57.4952
702.881	62.7811
702.932	64.7801
702.984	62.9754
703.035	57.7623
703.087	56.5714
703.138	60.017
703.19	63.4133
703.241	64.1185
703.292	65.6231
703.344	59.3957
703.395	58.3988
703.447	54.9279
703.498	54.7998
703.549	55.9982
703.601	59.4011
703.652	60.2297
703.704	64.2039
703.755	61.2278
703.806	56.1517
703.858	55.7388
703.909	60.5985
703.961	56.5129
704.012	59.4044
704.063	63.1888
704.115	60.7601
704.166	55.7164
704.218	57.7592
704.269	59.8371
704.32	58.6661
704.372	55.6005
704.423	57.6585
704.475	60.2241
704.526	58.7823
704.577	60.3247
704.629	55.8953
704.68	56.2767
704.732	58.332
704.783	58.8258
704.834	57.5268
704.886	58.4434
704.937	56.7679
704.988	56.161
705.04	57.8855
705.091	56.9227
705.143	57.9448
705.194	57.1968
705.245	55.4284
705.297	57.6029
705.348	58.2302
705.4	62.8057
705.451	59.5365
705.502	58.5508
705.554	58.1234
705.605	57.3948
705.656	56.5513
705.708	58.1104
705.759	59.4403
705.811	57.0578
705.862	55.1998
705.913	58.9904
705.965	59.3819
706.016	56.3385
706.068	57.0411
706.119	59.5826
706.17	56.3749
706.222	61.7675
706.273	56.2563
706.324	58.7437
706.376	61.4807
706.427	59.2968
706.479	58.1202
706.53	58.9682
706.581	57.5414
706.633	56.4618
706.684	59.6444
706.735	59.822
706.787	56.067
706.838	58.7029
706.889	59.9392
706.941	57.5212
706.992	57.7
707.044	57.1337
707.095	53.9144
707.146	53.9059
707.198	54.6502
707.249	53.4737
707.3	57.6902
707.352	53.5764
707.403	59.7734
707.454	54.3346
707.506	60.4255
707.557	62.7095
707.609	61.4059
707.66	48.7569
707.711	56.0681
707.763	56.6699
707.814	58.0359
707.865	59.1255
707.917	56.7486
707.968	53.3554
708.019	58.6231
708.071	57.6077
708.122	59.2769
708.173	61.4437
708.225	59.8149
708.276	55.898
708.328	53.9806
708.379	59.4407
708.43	60.5501
708.482	53.8683
708.533	60.3952
708.584	57.7278
708.636	58.8558
708.687	62.7046
708.738	55.979
708.79	61.6251
708.841	55.2357
708.892	52.1597
708.944	59.9463
708.995	60.2722
709.046	55.918
709.098	54.712
709.149	53.9068
709.2	56.6989
709.252	55.4432
709.303	55.2736
709.354	59.4073
709.406	59.4533
709.457	57.1465
709.508	58.6807
709.56	52.8838
709.611	56.1093
709.662	55.194
709.714	50.9889
709.765	53.2824
709.816	54.6573
709.868	56.6128
709.919	54.256
709.97	60.5401
710.022	57.0539
710.073	55.2401
710.124	56.7398
710.176	58.0692
710.227	55.8657
710.278	55.0956
710.33	55.7047
710.381	53.3346
710.432	56.6273
710.484	52.2677
710.535	56.4153
710.586	56.3824
710.638	62.0491
710.689	55.1047
710.74	50.0558
710.792	52.1117
710.843	55.5931
710.894	56.1129
710.946	59.9333
710.997	58.9531
711.048	61.8485
711.1	54.1327
711.151	57.6061
711.202	59.3881
711.254	54.9896
711.305	56.377
711.356	55.7394
711.407	53.5548
711.459	59.8385
711.51	57.6009
711.561	60.3918
711.613	56.7015
711.664	59.7076
711.715	54.1699
711.767	55.4937
711.818	52.7812
711.869	58.055
711.921	56.0139
711.972	54.6188
712.023	60.8247
712.075	57.8094
712.126	59.6308
712.177	56.1177
712.228	55.2188
712.28	55.57
712.331	54.5743
712.382	54.5159
712.434	60.0827
712.485	60.112
712.536	62.2992
712.588	51.3167
712.639	55.4654
712.69	54.308
712.741	53.3333
712.793	55.859
712.844	58.4915
712.895	57.1483
712.947	51.0545
712.998	53.5135
713.049	57.2589
713.101	57.3442
713.152	51.83
713.203	49.29
713.254	55.7167
713.306	53.9849
713.357	56.5479
713.408	51.748
713.46	59.4944
713.511	56.1273
713.562	51.5796
713.613	55.1135
713.665	57.7606
713.716	53.6721
713.767	54.4636
713.819	50.965
713.87	53.8459
713.921	51.308
713.972	49.4154
714.024	54.116
714.075	56.1833
714.126	52.5069
714.178	55.4428
714.18	55.6122
714.231	55.3674
714.283	55.7229
714.334	59.6786
714.385	57.7962
714.437	56.5628
714.488	59.0684
714.539	49.4058
714.591	49.7195
714.642	54.0718
714.694	53.096
714.745	58.7904
714.796	52.3241
714.848	50.0447
714.899	54.5057
714.951	52.2901
715.002	50.65
715.053	54.8494
715.105	49.6158
715.156	58.7892
715.207	49.766
715.259	55.6426
715.31	57.8793
715.362	53.6411
715.413	57.7709
715.464	54.3751
715.516	58.5211
715.567	53.3609
715.618	52.4603
715.67	56.3113
715.721	57.5192
715.773	51.3748
715.824	51.0827
715.875	58.0598
715.927	59.2308
715.978	53.8426
716.029	51.992
716.081	50.8421
716.132	53.224
716.184	50.6961
716.235	53.0436
716.286	59.0687
716.338	58.9435
716.389	58.3816
716.44	54.5339
716.492	56.6328
716.543	51.9486
716.594	53.4754
716.646	54.2129
716.697	52.9255
716.749	58.4929
716.8	53.0978
716.851	58.944
716.903	54.9081
716.954	52.7544
717.005	52.8615
717.057	56.1358
717.108	58.7312
717.159	56.3011
717.211	52.1819
717.262	56.5341
717.314	56.9739
717.365	56.5735
717.416	49.3822
717.468	53.7472
717.519	55.923
717.57	55.3079
717.622	49.6013
717.673	55.3128
717.724	54.9397
717.776	53.4313
717.827	51.3968
717.878	51.5442
717.93	54.1704
717.981	52.3266
718.032	53.8008
718.084	50.9688
718.135	58.3628
718.187	58.3879
718.238	50.5472
718.289	51.6897
718.341	55.6679
718.392	53.8702
718.443	50.6552
718.495	51.8614
718.546	50.0328
718.597	48.3711
718.649	48.9964
718.7	52.8203
718.751	57.1303
718.803	52.9795
718.854	52.6151
718.905	57.7257
718.957	56.9935
719.008	54.55
719.059	49.5925
719.111	53.0571
719.162	51.0949
719.213	48.5268
719.265	51.5454
719.316	53.3423
719.367	54.0862
719.419	54.1272
719.47	54.9563
719.521	56.3183
719.573	60.235
719.624	54.0673
719.675	53.1681
719.727	51.8831
719.778	53.1891
719.829	52.1131
719.881	51.4467
719.932	58.7503
719.983	58.9632
720.035	53.7992
720.086	50.6694
720.137	53.8593
720.189	55.9047
720.24	48.7922
720.291	50.1578
720.343	51.0427
720.394	53.8411
720.445	52.8619
720.496	51.5029
720.548	56.3601
720.599	55.0505
720.65	49.737
720.702	50.3068
720.753	51.2718
720.804	52.0342
720.856	55.2642
720.907	56.0807
720.958	56.6198
721.01	54.5399
721.061	52.9841
721.112	51.8381
721.164	50.7606
721.215	50.7082
721.266	46.0206
721.318	47.3681
721.369	50.8385
721.42	53.1137
721.471	51.245
721.523	52.9768
721.574	54.9201
721.625	51.9593
721.677	53.8916
721.728	50.6379
721.779	57.3392
721.831	53.8705
721.882	56.1617
721.933	55.9656
721.984	56.8311
722.036	54.5257
722.087	52.3095
722.138	52.2221
722.19	60.0161
722.241	56.5515
722.292	51.8065
722.344	50.3383
722.395	56.6494
722.446	54.1818
722.497	51.5171
722.549	51.8101
722.6	56.3735
722.651	52.9984
722.703	50.9828
722.754	48.5018
722.805	54.0396
722.857	53.6435
722.908	52.5943
722.959	52.8111
723.01	56.6839
723.062	53.489
723.113	50.2931
723.164	56.8672
723.216	53.7975
723.267	56.2789
723.318	55.473
723.369	52.3268
723.421	53.4616
723.472	54.8023
723.523	49.5302
723.575	53.0131
723.626	53.6797
723.677	50.8399
723.728	51.4244
723.78	52.8146
723.831	55.6543
723.882	50.7644
723.934	48.5159
723.985	54.4754
724.036	53.8338
724.087	57.864
724.139	58.3454
724.19	55.6936
724.241	51.0568
724.292	56.9986
724.344	52.1589
724.395	53.8372
724.446	50.944
724.498	53.6989
724.549	56.8108
724.6	54.6733
724.651	57.3342
724.703	56.2467
724.754	52.7792
724.805	53.0207
724.856	54.7344
724.908	45.0341
724.959	49.5
725.01	54.3419
725.062	54.0954
725.113	52.4852
725.164	53.5213
725.215	57.028
725.267	56.8821
725.318	56.1502
725.369	56.7875
725.42	58.19
725.472	55.2616
725.523	58.0572
725.574	56.1326
725.625	53.525
725.677	50.1242
725.728	55.0056
725.779	51.9989
725.83	58.3397
725.882	52.5902
725.933	50.3888
725.984	51.9193
726.036	58.8483
726.087	51.8635
726.138	56.0068
726.189	53.6112
726.241	53.8955
726.292	56.8703
726.343	56.0936
726.394	56.9913
726.445	57.1169
726.497	56.1376
726.548	58.1656
726.599	59.2607
726.651	56.5357
726.702	52.2498
726.753	53.4905
726.804	51.7785
726.855	54.7477
726.907	54.4969
726.958	56.6816
727.009	59.4225
727.06	50.1581
727.112	53.4959
727.163	52.2191
727.214	52.7625
727.265	50.203
727.317	51.6266
727.368	53.7325
727.419	58.777
727.47	55.2123
727.522	56.6279
727.573	55.013
727.624	53.9274
727.675	56.1382
727.727	55.872
727.778	57.6344
727.829	57.3225
727.88	59.2983
727.932	58.6971
727.983	57.9949
728.034	55.1923
728.085	54.6597
728.136	55.9353
728.188	47.2229
728.239	53.6731
728.29	60.8621
728.341	53.8343
728.393	55.82
728.444	57.9328
728.495	55.0141
728.546	54.2604
728.597	53.9297
728.649	59.2127
728.7	56.2173
728.751	54.615
728.802	54.617
728.854	57.2086
728.905	51.3908
728.956	54.43
729.007	54.5727
729.058	56.9402
729.11	51.9964
729.161	58.9627
729.212	54.8263
729.263	59.8335
729.315	55.1538
729.366	59.0706
729.417	52.1833
729.468	52.6562
729.519	57.891
729.571	58.2299
729.622	51.8688
729.673	55.2568
729.724	57.8685
729.775	55.6838
729.827	51.1996
729.878	55.967
729.929	55.7541
729.98	59.9728
730.031	56.6122
730.083	56.0968
730.134	55.3536
730.185	56.7837
730.236	54.5923
730.288	58.3877
730.339	54.1068
730.39	54.4214
730.441	54.9834
730.492	55.8011
730.544	53.6605
730.595	61.0789
730.646	50.9541
730.697	58.8576
730.748	52.6483
730.8	59.2275
730.851	56.4704
730.902	63.5146
730.953	62.8415
731.004	52.4603
731.056	53.0906
731.107	60.4221
731.158	62.5873
731.209	53.8834
731.26	61.3388
731.312	57.0925
731.363	56.789
731.414	59.4941
731.465	56.6724
731.516	57.8532
731.567	58.8424
731.619	53.7222
731.622	53.3289
731.673	54.5687
731.725	57.3209
731.776	60.9597
731.827	56.4649
731.878	57.4429
731.93	56.8793
731.981	59.9262
732.032	57.7077
732.084	64.8048
732.135	61.1485
732.186	54.6426
732.237	54.4815
732.289	61.4295
732.34	59.3762
732.391	58.4818
732.443	54.2924
732.494	56.1896
732.545	51.275
732.597	59.6858
732.648	59.3913
732.699	64.7492
732.75	61.7719
732.802	61.6648
732.853	57.7537
732.904	58.0025
732.956	55.4771
733.007	57.2314
733.058	61.6523
733.109	65.1926
733.161	65.3291
733.212	66.002
733.263	57.5793
733.315	59.5284
733.366	64.2008
733.417	60.1251
733.468	61.8137
733.52	61.8108
733.571	61.6507
733.622	58.9933
733.673	63.7921
733.725	58.7091
733.776	65.056
733.827	69.2364
733.879	69.0089
733.93	64.2628
733.981	61.5659
734.032	68.5355
734.084	68.8616
734.135	60.9166
734.186	67.1733
734.237	63.7671
734.289	67.1543
734.34	73.4668
734.391	69.7888
734.443	68.7279
734.494	70.3127
734.545	73.6607
734.596	75.1181
734.648	73.7802
734.699	68.0428
734.75	69.0957
734.801	71.285
734.853	72.6947
734.904	69.5157
734.955	73.5578
735.006	69.1779
735.058	71.2139
735.109	68.3946
735.16	74.791
735.211	74.0872
735.263	77.2588
735.314	82.6473
735.365	76.4928
735.417	68.5759
735.468	75.8401
735.519	76.0359
735.57	76.6779
735.622	75.7935
735.673	78.4163
735.724	81.747
735.775	80.1132
735.827	83.7062
735.878	80.4751
735.929	84.3845
735.98	83.6751
736.032	87.0251
736.083	84.9816
736.134	88.2291
736.185	84.7271
736.237	92.5237
736.288	92.001
736.339	92.4791
736.39	93.4973
736.442	92.8809
736.493	92.7232
736.544	94.6721
736.595	93.3555
736.646	96.9674
736.698	100.45
736.749	99.9199
736.8	96.0872
736.851	103.333
736.903	105.775
736.954	101.834
737.005	105.502
737.056	103.328
737.108	110.971
737.159	109.905
737.21	110.448
737.261	101.574
737.313	100.807
737.364	115.089
737.415	116.857
737.466	118.355
737.518	114.415
737.569	113.532
737.62	115.892
737.671	115.955
737.722	118.404
737.774	124.523
737.825	124.466
737.876	124.617
737.927	125.996
737.979	121.153
738.03	116.301
738.081	122.873
738.132	122.726
738.183	125.053
738.235	123.354
738.286	126.078
738.337	128.825
738.388	126.332
738.44	123.381
738.491	128.348
738.542	124.559
738.593	120.961
738.644	119.19
738.696	120.834
738.747	122.759
738.798	119.422
738.849	121.466
738.901	116.562
738.952	115.041
739.003	122.208
739.054	120.037
739.105	119.383
739.157	115.6
739.208	119.657
739.259	112.339
739.31	109.556
739.361	117.568
739.413	116.034
739.464	114.76
739.515	108.768
739.566	112.905
739.617	111.546
739.669	105.648
739.72	105.132
739.771	106.576
739.822	100.221
739.874	101.884
739.925	96.1889
739.976	96.8048
740.027	97.1535
740.078	101.074
740.13	92.8541
740.181	96.8765
740.232	93.5493
740.283	91.4039
740.334	95.183
740.385	88.2395
740.437	88.2766
740.488	91.084
740.539	88.112
740.59	89.6044
740.641	87.4776
740.693	83.8961
740.744	82.4522
740.795	87.3574
740.846	88.6581
740.897	83.6337
740.949	84.8907
741	83.5091
741.051	81.488
741.102	82.8061
741.153	85.0477
741.205	86.9127
741.256	75.3387
741.307	82.1011
741.358	71.6612
741.409	73.2216
741.461	79.6458
741.512	81.0752
741.563	72.0615
741.614	75.6156
741.665	69.1867
741.716	68.4303
741.768	75.6842
741.819	76.6945
741.87	71.2926
741.921	71.6148
741.972	69.9107
742.024	71.7829
742.075	73.9072
742.126	74.7926
742.177	70.8047
742.228	69.4845
742.279	67.7614
742.331	67.9875
742.382	66.142
742.433	67.8431
742.484	68.9625
742.535	68.6267
742.586	67.8814
742.638	71.8699
742.689	66.3057
742.74	63.2713
742.791	65.5297
742.842	68.4292
742.893	61.3152
742.945	68.7507
742.996	67.1493
743.047	64.1818
743.098	61.8966
743.149	66.3904
743.201	60.0022
743.252	61.4167
743.303	63.3883
743.354	58.5877
743.405	59.328
743.456	64.0256
743.507	63.9097
743.559	62.0821
743.61	60.4876
743.661	62.5015
743.712	63.5462
743.763	60.7049
743.814	62.8673
743.866	60.5252
743.917	60.7503
743.968	59.0105
744.019	56.4534
744.07	58.463
744.121	57.3003
744.172	61.108
744.224	61.7067
744.275	58.3708
744.326	57.9299
744.377	58.4002
744.428	61.7965
744.479	59.6958
744.531	60.2864
744.582	60.2109
744.633	58.8865
744.684	54.8385
744.735	57.6254
744.786	58.7974
744.837	54.9224
744.889	55.6197
744.94	56.5872
744.991	54.4224
745.042	54.9549
745.093	52.6847
745.144	57.9722
745.195	55.5625
745.247	57.5081
745.298	56.1446
745.349	58.5245
745.4	58.4118
745.451	55.271
745.502	52.1042
745.553	56.0904
745.605	51.8694
745.656	55.4993
745.707	57.6161
745.758	55.9363
745.809	54.1759
745.86	54.3094
745.911	53.7867
745.962	54.4165
746.014	55.122
746.065	53.3586
746.116	53.6143
746.167	54.3205
746.218	52.167
746.269	56.9145
746.32	51.8195
746.372	50.3936
746.423	51.3999
746.474	54.625
746.525	55.464
746.576	54.0359
746.627	51.0781
746.678	54.4042
746.729	50.9783
746.78	51.7527
746.832	52.7099
746.883	53.3659
746.934	56.6197
746.985	52.8774
747.036	48.6612
747.087	53.8915
747.138	49.9612
747.189	53.258
747.241	55.2701
747.292	55.0265
747.343	53.9844
747.394	53.9805
747.445	55.9301
747.496	57.0026
747.547	54.2925
747.598	49.5847
747.649	54.5146
747.701	49.9773
747.752	56.3233
747.803	56.0805
747.854	55.2188
747.905	57.8292
747.956	57.3592
748.007	56.0115
748.058	52.1306
748.109	53.0435
748.161	54.7363
748.212	52.0199
748.263	49.3746
748.314	49.2195
748.365	53.2189
748.416	51.0946
748.467	53.731
748.518	48.5048
748.569	54.7188
748.62	52.2943
748.672	49.4191
748.723	46.4532
748.774	51.9155
748.825	52.8739
748.876	52.6282
748.927	47.3048
748.978	48.8416
749.029	52.1991
749.08	51.3161
749.131	48.9526
749.173	48.812
749.224	51.8903
749.275	47.6046
749.326	52.6456
749.378	45.3463
749.429	52.1563
749.48	50.8077
749.531	52.236
749.582	52.0924
749.634	50.0514
749.685	44.0309
749.736	51.9371
749.787	46.7193
749.838	49.168
749.89	51.6583
749.941	46.4611
749.992	47.4585
750.043	53.3739
750.094	50.6485
750.146	55.9018
750.197	52.3274
750.248	54.8118
750.299	53.8607
750.35	52.8638
750.401	53.1195
750.453	52.3408
750.504	47.9865
750.555	51.316
750.606	51.4763
750.657	52.8693
750.709	46.3768
750.76	53.8376
750.811	47.3892
750.862	48.4957
750.913	46.2475
750.964	50.3003
751.016	49.8301
751.067	52.5545
751.118	48.4847
751.169	49.0529
751.22	49.0449
751.272	46.1357
751.323	47.2597
751.374	50.9726
751.425	52.3556
751.476	57.1049
751.528	48.6799
751.579	48.3092
751.63	52.0061
751.681	47.2238
751.732	51.2846
751.783	54.2096
751.835	48.3947
751.886	54.1689
751.937	47.686
751.988	49.1117
752.039	46.8321
752.09	47.8221
752.142	48.1549
752.193	51.8748
752.244	46.3037
752.295	47.2374
752.346	45.547
752.397	50.4532
752.449	46.6165
752.5	46.853
752.551	44.4887
752.602	50.7393
752.653	53.8256
752.704	46.1127
752.756	46.7515
752.807	46.7071
752.858	53.6124
752.909	45.3193
752.96	46.571
753.011	48.1558
753.063	50.4325
753.114	50.3516
753.165	52.1922
753.216	44.8239
753.267	50.8237
753.318	43.2048
753.37	45.8267
753.421	54.703
753.472	54.5764
753.523	49.6094
753.574	50.6666
753.625	51.5554
753.676	55.0502
753.728	44.6709
753.779	50.9696
753.83	47.6634
753.881	47.7637
753.932	40.4622
753.983	44.423
754.034	44.9319
754.086	45.1248
754.137	41.8602
754.188	46.2706
754.239	49.2275
754.29	51.2972
754.341	44.3431
754.393	46.2504
754.444	45.6899
754.495	47.903
754.546	45.0558
754.597	46.6968
754.648	46.2125
754.699	48.4949
754.75	38.6587
754.802	47.389
754.853	46.6256
754.904	52.0948
754.955	49.8446
755.006	53.404
755.057	41.3588
755.108	48.9979
755.16	43.4685
755.211	50.9655
755.262	54.4247
755.313	52.5239
755.364	43.0536
755.415	44.319
755.466	46.158
755.518	50.614
755.569	44.4772
755.62	48.0218
755.671	49.0575
755.722	46.3284
755.773	44.7525
755.824	49.5778
755.875	51.1188
755.927	49.0096
755.978	44.5319
756.029	52.7021
756.08	50.4187
756.131	46.9382
756.182	43.9934
756.233	52.2191
756.284	51.183
756.336	47.0568
756.387	46.8969
756.438	45.2997
756.489	51.4768
756.54	49.2141
756.591	44.2118
756.642	45.11
756.693	51.732
756.745	42.2656
756.796	37.5077
756.847	47.1406
756.898	42.6539
756.949	43.5351
757	40.2756
757.051	46.8115
757.102	46.7999
757.153	44.8434
757.205	43.1471
757.256	43.5925
757.307	50.5724
757.358	42.792
757.409	43.4804
757.46	47.9398
757.511	48.038
757.562	41.3765
757.613	42.6339
757.664	44.571
757.716	48.2605
757.767	47.8523
757.818	46.306
757.869	51.1412
757.92	47.201
757.971	47.6972
758.022	49.0555
758.073	53.4655
758.124	49.2709
758.175	41.3571
758.227	43.8244
758.278	46.7729
758.329	45.5673
758.38	43.6862
758.431	44.9881
758.482	47.6199
758.533	47.3788
758.584	41.9439
758.635	48.0182
758.686	47.304
758.738	48.6144
758.789	43.4202
758.84	45.4436
758.891	46.2739
758.942	47.4457
758.993	43.9746
759.044	48.9169
759.095	47.0126
759.146	48.1195
759.197	47.556
759.248	46.6693
759.3	51.5449
759.351	45.3893
759.402	41.724
759.453	45.8697
759.504	47.2175
759.555	48.607
759.606	46.2038
759.657	46.071
759.708	44.3314
759.759	45.8767
759.81	47.5205
759.861	47.0206
759.913	49.658
759.964	48.8512
760.015	45.1376
760.066	44.6071
760.117	44.3111
760.168	44.655
760.219	41.6491
760.27	46.0159
760.321	47.2107
760.372	45.4472
760.423	45.4269
760.474	45.0412
760.525	47.321
760.576	48.6668
760.628	46.916
760.679	44.8752
760.73	44.8928
760.781	45.0039
760.832	46.2674
760.883	44.7125
760.934	43.4871
760.985	42.535
761.036	45.9036
761.087	47.61
761.138	43.7533
761.189	42.7959
761.24	37.6565
761.291	44.121
761.342	47.6798
761.393	44.6398
761.445	45.5067
761.496	44.6349
761.547	44.0234
761.598	47.4909
761.649	45.6063
761.7	47.1306
761.751	50.708
761.802	45.8136
761.853	43.6161
761.904	49.0886
761.955	47.588
762.006	44.9866
762.057	44.3174
762.108	47.8496
762.159	48.3865
762.21	45.519
762.261	46.0401
762.313	44.6777
762.364	45.764
762.415	42.0141
762.466	45.5712
762.517	48.3132
762.568	47.2904
762.619	42.7903
762.67	44.519
762.721	47.8086
762.772	44.0714
762.823	45.1301
762.874	48.4339
762.925	49.0955
762.976	47.0359
763.027	43.6595
763.078	45.5754
763.129	49.9978
763.18	47.9169
763.231	41.9575
763.282	44.0204
763.333	46.7881
763.384	46.8646
763.435	42.4129
763.486	43.84
763.537	47.0309
763.589	46.6615
763.64	44.2639
763.691	46.3719
763.742	47.4403
763.793	49.4535
763.844	47.8168
763.895	48.554
763.946	45.9841
763.997	43.9624
764.048	43.4195
764.099	45.6808
764.15	43.1445
764.201	42.2973
764.252	43.9594
764.303	48.9277
764.354	49.5717
764.405	45.7804
764.456	41.5229
764.507	46.4269
764.558	49.5654
764.609	44.2408
764.66	41.8365
764.711	41.88
764.762	45.9841
764.813	44.7699
764.864	40.99
764.915	45.2906
764.966	50.5583
765.017	47.6134
765.068	42.5138
765.119	43.9344
765.17	45.3322
765.221	43.0139
765.272	42.308
765.323	45.5295
765.374	46.2763
765.425	43.5545
765.476	44.1765
765.527	47.3324
765.578	45.5644
765.629	41.6938
765.68	42.3681
765.731	42.978
765.782	43.6336
765.833	44.4328
765.884	43.9389
765.935	45.1292
765.986	45.9956
766.037	44.9949
766.088	43.792
766.139	43.334
766.19	44.8767
766.241	42.7427
766.292	43.0712
766.343	44.0436
766.394	44.5883
766.445	43.2078
766.496	40.1007
766.547	46.4261
766.598	47.4586
766.649	41.3452
766.677	38.0615
766.729	39.1277
766.78	45.9185
766.831	43.0064
766.882	43.8373
766.933	42.1919
766.984	40.9996
767.035	44.8049
767.086	39.2398
767.137	46.5693
767.188	44.7999
767.24	45.8725
767.291	39.621
767.342	43.727
767.393	41.9585
767.444	43.8019
767.495	44.0681
767.546	46.7814
767.597	44.1466
767.648	44.7357
767.7	42.9613
767.751	42.6586
767.802	41.0268
767.853	41.9746
767.904	38.1803
767.955	40.7873
768.006	44.4692
768.057	40.6576
768.108	39.8936
768.159	47.814
768.21	49.6214
768.262	42.7093
768.313	44.6102
768.364	41.8993
768.415	43.0303
768.466	40.3098
768.517	42.2444
768.568	42.2099
768.619	41.9683
768.67	44.6171
768.721	42.4892
768.772	39.1246
768.823	45.8835
768.875	45.5552
768.926	40.244
768.977	42.0738
769.028	43.9996
769.079	39.3719
769.13	42.5508
769.181	44.0414
769.232	44.9503
769.283	39.8881
769.334	41.3035
769.385	48.5188
769.436	45.5728
769.488	37.9436
769.539	43.3077
769.59	43.9919
769.641	40.0473
769.692	41.5376
769.743	42.5352
769.794	40.5665
769.845	41.5014
769.896	41.214
769.947	40.5057
769.998	40.2074
770.049	41.7224
770.1	38.1115
770.151	39.9564
770.203	40.1073
770.254	39.0838
770.305	38.0972
770.356	39.1242
770.407	41.3741
770.458	41.2123
770.509	34.8529
770.56	38.0246
770.611	42.0547
770.662	45.5978
770.713	41.4313
770.764	38.1994
770.815	40.4041
770.866	38.9117
770.917	42.0951
770.968	41.6051
771.02	41.3878
771.071	38.3575
771.122	39.9619
771.173	35.7218
771.224	39.4685
771.275	43.6076
771.326	39.2541
771.377	41.1062
771.428	38.9684
771.479	39.145
771.53	41.551
771.581	37.9616
771.632	36.2142
771.683	37.8671
771.734	39.4039
771.785	39.6474
771.836	40.9336
771.887	40.4361
771.938	40.8478
771.99	41.991
772.041	39.7613
772.092	36.412
772.143	40.4206
772.194	44.3193
772.245	45.4934
772.296	38.4729
772.347	41.6884
772.398	43.4166
772.449	41.6157
772.5	41.2578
772.551	37.6686
772.602	39.7465
772.653	40.6809
772.704	38.3803
772.755	37.8258
772.806	39.6679
772.857	44.3634
772.908	39.0598
772.959	38.5696
773.01	37.4818
773.061	41.369
773.112	36.7205
773.163	33.7149
773.214	38.3998
773.265	37.1171
773.316	35.2231
773.367	39.9838
773.419	42.7307
773.47	40.1835
773.521	39.2107
773.572	38.9224
773.623	38.8583
773.674	37.3898
773.725	39.6892
773.776	37.3745
773.827	36.3378
773.878	39.3558
773.929	37.278
773.98	35.6658
774.031	39.4213
774.082	41.3856
774.133	40.1074
774.184	40.7898
774.235	37.8895
774.286	38.9033
774.337	35.1788
774.388	33.4153
774.439	38.2111
774.49	38.8409
774.541	42.2658
774.592	40.7112
774.643	42.8891
774.694	41.4724
774.745	36.3509
774.796	36.2327
774.847	40.7051
774.898	43.2428
774.949	39.7687
775	36.0322
775.051	38.9785
775.102	41.1291
775.153	45.2376
775.204	43.6098
775.255	44.9931
775.306	41.4036
775.357	40.1223
775.408	37.5553
775.459	36.0107
775.51	38.0675
775.561	37.3221
775.612	39.7024
775.663	40.4481
775.714	36.7093
775.765	38.245
775.816	37.9362
775.867	40.5351
775.918	36.8197
775.969	34.9282
776.02	34.8568
776.071	41.1356
776.122	40.1967
776.173	39.0074
776.224	37.4644
776.275	37.0045
776.326	38.3918
776.377	34.5798
776.428	35.4824
776.479	39.8561
776.53	38.6874
776.581	37.0679
776.632	37.7947
776.683	39.9431
776.734	39.8049
776.785	36.379
776.836	36.5466
776.887	39.0763
776.938	38.6675
776.989	41.2844
777.04	40.203
777.091	38.3867
777.142	39.7094
777.193	39.1317
777.244	37.7045
777.295	37.906
777.346	41.5795
777.397	37.8089
777.448	35.2479
777.499	37.7504
777.55	38.9308
777.601	37.3028
777.652	35.5911
777.703	35.4234
777.754	36.0401
777.805	37.1272
777.856	39.7436
777.907	39.067
777.958	36.8428
778.009	36.4002
778.06	36.2805
778.111	36.7736
778.161	36.6213
778.212	38.9419
778.263	39.9569
778.314	40.677
778.365	38.8863
778.416	37.8102
778.467	37.8956
778.518	35.0868
778.569	35.8237
778.62	37.428
778.671	35.0462
778.722	34.7447
778.773	35.3964
778.824	36.031
778.875	35.6277
778.926	34.6228
778.977	34.829
779.028	34.3952
779.079	36.5183
779.13	35.8845
779.181	36.568
779.232	39.0363
779.283	37.3967
779.334	39.6704
779.385	39.0743
779.436	36.777
779.487	34.458
779.537	35.0966
779.588	37.5207
779.639	35.7941
779.69	34.3163
779.741	36.4344
779.792	34.6142
779.843	35.7021
779.894	37.5656
779.945	37.7671
779.996	35.7661
780.047	36.7876
780.098	36.7009
780.149	37.3623
780.2	36.3343
780.251	37.9018
780.302	39.7703
780.353	36.5255
780.404	36.2613
780.455	36.8534
780.505	38.8263
780.556	37.6567
780.607	37.2428
780.658	35.873
780.709	35.3798
780.76	35.6657
780.811	36.0779
780.862	33.0999
780.913	34.1321
780.964	37.4596
781.015	35.372
781.066	33.8397
781.117	36.7898
781.168	38.5561
781.219	37.5216
781.27	36.5508
781.32	37.0062
781.371	36.3188
781.422	35.3971
781.473	34.3419
781.524	37.7351
781.575	34.9273
781.626	34.7866
781.677	34.3557
781.728	36.0182
781.779	38.0686
781.83	39.4073
781.881	34.1057
781.932	31.8891
781.983	35.343
782.033	37.4862
782.084	35.3399
782.135	36.9004
782.186	35.5895
782.237	35.66
782.288	33.5326
782.339	34.4369
782.39	33.1131
782.441	35.877
782.492	39.1999
782.543	38.1604
782.594	36.1252
782.644	35.9733
782.695	36.8453
782.746	36.4009
782.797	37.495
782.848	37.9588
782.899	34.6532
782.95	37.218
783.001	34.0341
783.052	34.3865
783.103	35.7171
783.154	37.658
783.204	33.0107
783.255	35.7907
783.306	34.1226
783.357	39.9155
783.408	37.9637
783.459	32.4237
783.51	33.1624
783.561	34.968
783.612	36.2776
783.663	33.2836
783.714	40.4492
783.764	37.5148
783.815	32.8839
783.866	35.4197
783.917	34.1681
783.968	34.1584
784.019	34.1786
784.07	32.0613
784.109	35.8993
784.16	42.8153
784.211	36.1701
784.262	32.9656
784.313	35.9161
784.364	38.9062
784.415	34.2408
784.466	36.665
784.517	33.1083
784.568	40.6584
784.619	37.0483
784.67	32.2183
784.721	36.8178
784.772	39.9496
784.823	36.2785
784.874	34.8436
784.925	28.3987
784.976	36.5406
785.027	31.9931
785.078	29.0423
785.129	37.4225
785.18	36.0076
785.231	32.9264
785.282	33.8568
785.333	38.6274
785.384	32.2363
785.435	33.1276
785.486	34.0588
785.537	38.0914
785.588	36.2951
785.639	33.2199
785.69	30.8374
785.741	39.9375
785.792	36.8831
785.843	37.4031
785.894	34.9035
785.945	35.0234
785.996	35.6158
786.047	33.2783
786.098	30.4383
786.149	34.8837
786.2	37.2007
786.251	35.4652
786.302	37.022
786.353	36.3909
786.404	37.5624
786.455	33.5266
786.506	32.1233
786.557	36.5947
786.608	31.4164
786.659	33.4383
786.71	34.1706
786.761	32.6788
786.812	31.852
786.863	35.671
786.914	34.9455
786.965	32.0511
787.016	32.1241
787.067	35.5274
787.118	28.9431
787.169	34.9324
787.22	28.5992
787.271	36.9165
787.322	31.6355
787.373	33.3731
787.424	35.6431
787.475	33.7216
787.526	35.6551
787.576	36.5149
787.627	32.1198
787.678	34.853
787.729	32.5351
787.78	36.7336
787.831	32.6501
787.882	28.9107
787.933	31.8094
787.984	34.6207
788.035	35.0887
788.086	32.0187
788.137	34.307
788.188	34.8866
788.239	32.0655
788.29	35.4954
788.341	34.8506
788.392	34.3405
788.443	32.6479
788.494	32.1028
788.545	32.7505
788.596	32.4135
788.647	29.3017
788.698	32.3857
788.749	32.0955
788.8	32.2353
788.851	35.4308
788.901	32.4671
788.952	35.4339
789.003	32.3748
789.054	32.0646
789.105	32.4804
789.156	33.1735
789.207	36.935
789.258	35.1898
789.309	32.0922
789.36	35.5509
789.411	32.537
789.462	34.6596
789.513	33.5125
789.564	33.9326
789.615	34.375
789.666	33.4759
789.717	29.6017
789.768	38.5747
789.819	32.4846
789.87	33.9166
789.92	32.1134
789.971	32.3398
790.022	35.6795
790.073	33.7499
790.124	28.8456
790.175	37.8207
790.226	35.9232
790.277	34.2615
790.328	28.1345
790.379	31.1646
790.43	31.0166
790.481	34.5306
790.532	34.0146
790.583	33.9592
790.634	31.3756
790.685	30.5812
790.735	29.4005
790.786	31.0731
790.837	29.5472
790.888	31.3169
790.939	31.7108
790.99	37.0336
791.041	32.1292
791.092	31.3975
791.143	31.3169
791.194	30.8583
791.245	33.0377
791.296	30.7398
791.347	30.2456
791.397	36.1395
791.448	30.7061
791.499	31.2118
791.55	30.5175
791.601	31.1549
791.652	30.9521
791.703	30.5932
791.754	31.4107
791.805	33.9387
791.856	34.6336
791.907	33.4613
791.958	37.0779
792.008	34.4379
792.059	32.7264
792.11	33.6371
792.161	32.1545
792.212	34.1223
792.263	34.3721
792.314	31.7358
792.365	36.1659
792.416	38.4696
792.467	34.2543
792.518	29.3853
792.569	29.8088
792.619	33.8205
792.67	33.3658
792.721	33.3727
792.772	33.9132
792.823	32.7216
792.874	30.8238
792.925	35.4502
792.976	32.8444
793.027	31.1838
793.078	33.4578
793.128	33.2655
793.179	35.674
793.23	31.2014
793.281	30.9375
793.332	35.2745
793.383	34.5877
793.434	34.8651
793.485	33.0314
793.536	32.1611
793.587	33.1701
793.638	32.1382
793.688	34.1688
793.739	35.7358
793.79	34.2434
793.841	33.3446
793.892	32.7139
793.943	33.1359
793.994	34.1236
794.045	33.901
794.096	28.4609
794.146	33.7421
794.197	36.5153
794.248	31.0887
794.299	30.3378
794.35	33.8351
794.401	32.5847
794.452	32.7413
794.503	32.4079
794.554	31.2142
794.604	33.7659
794.655	31.7104
794.706	30.9351
794.757	28.1264
794.808	35.1324
794.859	31.2807
794.91	29.9106
794.961	31.0636
795.011	33.7597
795.062	31.2481
795.113	34.3468
795.164	32.3518
795.215	33.0808
795.266	33.4989
795.317	30.2792
795.368	34.9271
795.418	36.6046
795.469	36.3595
795.52	34.3206
795.571	31.3397
795.622	32.9353
795.673	29.8472
795.724	30.4251
795.775	33.3426
795.825	34.0697
795.876	30.4144
795.927	33.9545
795.978	29.5791
796.029	29.55
796.08	31.1654
796.131	32.4884
796.181	34.2027
796.232	37.1005
796.283	29.6702
796.334	32.373
796.385	30.9501
796.436	34.2297
796.487	33.8409
796.537	33.3166
796.588	30.7681
796.639	32.4826
796.69	32.2434
796.741	35.3469
796.792	33.7908
796.843	34.4548
796.893	34.4666
796.944	32.6437
796.995	32.8266
797.046	31.968
797.097	34.7686
797.148	32.2751
797.199	31.5992
797.249	33.1919
797.3	32.3951
797.351	31.9609
797.402	35.1487
797.453	34.9381
797.504	29.5676
797.555	33.4738
797.605	35.4713
797.656	34.5964
797.707	30.1517
797.758	25.9228
797.809	34.2892
797.86	32.7113
797.91	27.6481
797.961	29.4919
798.012	32.3739
798.063	32.733
798.114	27.5272
798.165	27.9654
798.216	32.7178
798.266	30.7999
798.317	29.89
798.368	30.7391
798.419	30.6411
798.47	29.6498
798.521	31.7939
798.571	30.9829
798.622	33.0962
798.673	32.4359
798.724	30.8837
798.775	29.9067
798.826	33.4997
798.876	31.5156
798.927	36.0496
798.978	34.272
799.029	33.0947
799.08	33.5387
799.13	30.6139
799.181	32.6824
799.232	33.582
799.283	33.1365
799.334	32.404
799.385	30.6309
799.435	29.9553
799.486	31.3777
799.537	31.678
799.588	31.6084
799.639	33.2555
799.69	30.4227
799.74	33.5469
799.791	31.5571
799.842	29.6852
799.893	29.6707
799.944	31.0833
799.994	32.6962
800.045	34.3357
800.096	36.1104
800.147	34.8053
800.198	33.2992
800.248	32.8207
800.299	30.2198
800.35	31.6264
800.401	30.2034
800.452	31.06
800.503	27.9799
800.553	31.5466
800.604	35.0836
800.655	30.1913
800.706	29.1184
800.757	34.385
800.807	35.0672
800.858	32.1722
800.909	30.6402
800.96	34.6519
801.011	38.0846
801.061	33.3062
801.112	31.0868
801.163	27.9458
801.214	30.3305
801.265	30.6227
801.315	28.5237
801.366	32.0022
801.417	32.8271
801.457	25
801.508	26.0015
801.558	34.2293
801.609	32.9841
801.66	31.1792
801.711	30.3162
801.762	27.1813
801.813	31.2411
801.864	28.9014
801.915	31.0738
801.966	27.3162
802.017	27.3471
802.068	29.8913
802.118	32.8009
802.169	30.5097
802.22	34.7553
802.271	25.9668
802.322	30.2686
802.373	31.4954
802.424	26.9762
802.475	32.8488
802.526	28.2931
802.577	23.4052
802.627	34.6946
802.678	28.7684
802.729	29.7641
802.78	34.8566
802.831	35.9719
802.882	29.5926
802.933	29.441
802.984	30.0849
803.035	31.7988
803.086	28.5667
803.136	28.6331
803.187	34.5725
803.238	37.7706
803.289	36.8029
803.34	31.2153
803.391	30.855
803.442	34.359
803.493	29.1745
803.544	30.4574
803.594	35.0257
803.645	31.5188
803.696	31.0664
803.747	25.3492
803.798	27.7856
803.849	37.7071
803.9	31.7238
803.951	31.7258
804.002	35.4136
804.052	28.89
804.103	26.6653
804.154	27.1964
804.205	33.6256
804.256	28.6909
804.307	26.88
804.358	22.5778
804.409	36.0908
804.459	30.0661
804.51	27.9268
804.561	26.8459
804.612	29.6832
804.663	35.5654
804.714	26.3746
804.765	31.7179
804.816	36.0033
804.866	30.6587
804.917	26.8562
804.968	32.5622
805.019	31.6161
805.07	30.7036
805.121	33.1555
805.172	27.3829
805.223	32.5255
805.273	28.4663
805.324	23.0655
805.375	29.5834
805.426	31.8071
805.477	28.466
805.528	33.9278
805.579	32.5066
805.629	32.1899
805.68	28.8459
805.731	30.104
805.782	31.7966
805.833	29.5358
805.884	26.7517
805.935	31.7217
805.985	26.2822
806.036	36.3917
806.087	25.3879
806.138	31.0697
806.189	31.2478
806.24	33.4964
806.291	27.6327
806.341	28.3142
806.392	31.0048
806.443	29.6896
806.494	29.2632
806.545	30.1501
806.596	30.258
806.647	29.1195
806.697	28.4738
806.748	27.5346
806.799	30.6162
806.85	35.0616
806.901	30.8343
806.952	28.4586
807.003	25.8358
807.053	28.0219
807.104	26.8939
807.155	27.9423
807.206	31.2606
807.257	34.4169
807.308	27.6073
807.358	25.0744
807.409	38.5811
807.46	34.2483
807.511	28.4436
807.562	28.002
807.613	29.7355
807.663	24.8324
807.714	26.7789
807.765	25.3523
807.816	34.404
807.867	29.912
807.918	34.2245
807.969	26.9737
808.019	34.6078
808.07	27.095
808.121	33.4432
808.172	26.9817
808.223	29.7078
808.273	32.3602
808.324	28.0653
808.375	23.9466
808.426	29.1116
808.477	28.3355
808.528	30.5229
808.578	30.9218
808.629	35.3473
808.68	32.9703
808.731	29.0067
808.782	28.9655
808.833	31.7834
808.883	27.5744
808.934	37.5807
808.985	27.6869
809.036	35.0621
809.087	29.099
809.138	34.0707
809.188	30.6223
809.239	31.3687
809.29	27.7617
809.341	29.7423
809.392	29.188
809.442	33.3742
809.493	25.6574
809.544	28.1785
809.595	29.6166
809.646	29.843
809.696	28.2136
809.747	27.2399
809.798	28.5004
809.849	37.0051
809.9	26.8376
809.951	27.736
810.001	30.7612
810.052	30.7553
810.103	32.0445
810.154	29.2103
810.205	27.7299
810.255	28.7821
810.306	28.8962
810.357	22.3679
810.408	32.1258
810.459	30.7685
810.509	28.6476
810.56	31.0974
810.611	30.7289
810.662	35.6749
810.713	25.0634
810.763	25.3206
810.814	32.7529
810.865	32.0333
810.916	25.4726
810.967	27.7378
811.017	30.9291
811.068	31.8767
811.119	28.6737
811.17	27.7099
811.221	32.4135
811.271	32.7576
811.322	29.042
811.373	30.8767
811.424	29.5483
811.474	32.5485
811.525	26.7432
811.576	27.2423
811.627	33.9821
811.678	32.622
811.728	26.7612
811.779	26.7526
811.83	30.694
811.881	31.0318
811.932	29.84
811.982	27.6982
812.033	31.9639
812.084	32.4028
812.135	29.1935
812.185	28.628
812.236	26.1287
812.287	28.0375
812.338	27.4293
812.389	26.8474
812.439	31.2227
812.49	29.8123
812.541	31.967
812.592	25.3719
812.642	29.8624
812.693	27.7977
812.744	29.1777
812.795	24.0044
812.846	31.3952
812.896	32.3212
812.947	30.2681
812.998	27.2953
813.049	29.0773
813.099	27.8632
813.15	31.0629
813.201	28.2635
813.252	33.9173
813.302	30.311
813.353	28.8377
813.404	27.7932
813.455	31.0724
813.506	31.1366
813.556	30.7147
813.607	31.1978
813.658	35.4638
813.709	29.8958
813.759	25.4641
813.81	24.5713
813.861	30.1079
813.912	29.6918
813.962	28.492
814.013	27.8054
814.064	32.5096
814.115	28.1983
814.165	28.1852
814.216	27.2577
814.267	31.734
814.318	28.549
814.368	30.2324
814.419	30.3834
814.47	31.3436
814.521	29.8853
814.571	25.9077
814.622	23.2751
814.673	28.7137
814.724	30.8116
814.774	27.8305
814.825	27.1644
814.876	35.0845
814.927	31.0173
814.977	28.5377
815.028	26.9426
815.079	29.9574
815.13	31.9404
815.18	27.6578
815.231	27.8721
815.282	29.6556
815.333	27.4091
815.383	23.6617
815.434	27.9663
815.485	29.635
815.536	27.8843
815.586	26.9063
815.637	26.8497
815.688	29.2222
815.739	30.1873
815.789	28.985
815.84	33.0184
815.891	28.4157
815.941	29.2441
815.992	29.6567
816.043	29.504
816.094	31.7143
816.144	31.2862
816.195	31.4391
816.246	33.3383
816.297	34.1812
816.347	32.1041
816.398	28.1033
816.449	30.6687
816.499	31.3831
816.55	28.6644
816.601	27.6839
816.652	31.7028
816.702	30.3209
816.753	28.5097
816.804	26.9243
816.855	24.751
816.905	25.4543
816.956	31.0023
817.007	29.0413
817.057	29.3479
817.108	30.3795
817.159	32.1966
817.21	29.2616
817.26	27.7749
817.311	29.6716
817.362	27.1846
817.412	26.2953
817.463	30.5108
817.514	29.5463
817.565	29.0121
817.615	31.4019
817.666	31.095
817.717	33.4533
817.767	32.1907
817.818	28.9521
817.869	29.755
817.919	28.7791
817.97	25.3857
818.021	26.3722
818.072	31.4891
818.122	30.4499
818.173	31.3821
818.224	31.1414
818.274	31.2874
818.325	32.2716
818.376	29.0342
818.427	28.2664
818.477	31.3695
818.528	28.9062
818.579	25.9956
818.629	26.5861
818.68	29.9946
818.731	31.4069
818.781	31.6319
818.806	30.1607
818.857	31.694
818.908	28.4242
818.959	32.5621
819.01	30.2449
819.06	27.2613
819.111	24.7314
819.162	26.6325
819.213	27.2691
819.264	29.1534
819.315	27.2206
819.365	26.9236
819.416	23.6024
819.467	29.9776
819.518	28.5573
819.569	27.2414
819.619	28.7936
819.67	29.5414
819.721	29.1032
819.772	25.3611
819.823	27.7413
819.873	30.9031
819.924	28.1018
819.975	32.8932
820.026	28.9016
820.077	32.1934
820.127	29.8764
820.178	28.8601
820.229	25.2862
820.28	31.883
820.331	28.1964
820.381	25.916
820.432	25.989
820.483	30.2747
820.534	28.0381
820.585	28.5914
820.635	23.5789
820.686	29.3719
820.737	27.014
820.788	32.1603
820.839	26.7502
820.889	30.8468
820.94	25.5486
820.991	29.3273
821.042	22.6112
821.092	29.2468
821.143	30.2363
821.194	28.8773
821.245	28.6216
821.296	32.9253
821.346	30.1647
821.397	29.6364
821.448	26.3076
821.499	30.2744
821.549	26.3808
821.6	28.1154
821.651	27.2741
821.702	31.4124
821.753	30.923
821.803	28.4339
821.854	28.7707
821.905	29.1075
821.956	32.1117
822.006	33.4242
822.057	23.6864
822.108	28.3326
822.159	27.755
822.21	28.0358
822.26	25.2042
822.311	26.1346
822.362	28.891
822.413	28.9881
822.463	26.2173
822.514	29.7216
822.565	27.6796
822.616	30.1106
822.667	29.7274
822.717	29.1386
822.768	30.3443
822.819	27.5778
822.87	29.8767
822.92	26.8837
822.971	27.6675
823.022	28.993
823.073	30.4305
823.123	33.6606
823.174	30.5169
823.225	28.4053
823.276	28.5918
823.326	29.1387
823.377	28.4204
823.428	28.2585
823.479	33.03
823.529	32.1051
823.58	28.7758
823.631	26.802
823.682	26.9769
823.732	27.2739
823.783	29.6061
823.834	27.4529
823.885	29.8242
823.935	30.2535
823.986	32.9818
824.037	26.2789
824.088	29.105
824.138	32.6678
824.189	27.4476
824.24	22.4983
824.291	30.5278
824.341	31.8465
824.392	27.5086
824.443	25.9121
824.494	28.2812
824.544	30.3939
824.595	24.733
824.646	23.2961
824.697	27.1996
824.747	31.1124
824.798	28.4365
824.849	25.9406
824.9	30.211
824.95	28.9057
825.001	29.6098
825.052	28.3417
825.103	29.5896
825.153	28.5452
825.204	26.3495
825.255	24.5382
825.305	29.1427
825.356	30.2232
825.407	29.7156
825.458	24.6514
825.508	29.8269
825.559	30.9566
825.61	27.2917
825.661	24.0267
825.711	30.945
825.762	27.6337
825.813	25.8664
825.864	23.776
825.914	30.5104
825.965	30.7936
826.016	31.6001
826.066	23.7645
826.117	25.4785
826.168	28.4718
826.219	32.2104
826.269	28.8087
826.32	31.7371
826.371	27.3917
826.421	27.7601
826.472	29.2161
826.523	32.2414
826.574	30.0541
826.624	26.5654
826.675	24.5172
826.726	29.5036
826.776	29.5612
826.827	28.9601
826.878	24.5213
826.929	27.8052
826.979	28.5456
827.03	26.7624
827.081	29.0121
827.131	30.0259
827.182	29.779
827.233	27.053
827.284	27.38
827.334	28.0111
827.385	29.082
827.436	27.7536
827.486	28.1105
827.537	31.511
827.588	30.5097
827.638	27.3697
827.689	26.4946
827.74	23.7448
827.791	26.9725
827.841	25.2009
827.892	28.1928
827.943	29.7998
827.993	31.3632
828.044	22.4225
828.095	26.4937
828.146	29.3494
828.196	26.0014
828.247	24.6796
828.298	26.5243
828.348	26.8836
828.399	27.9515
828.45	26.4169
828.5	25.0238
828.551	28.4236
828.602	26.419
828.652	23.3721
828.703	26.4346
828.754	32.7513
828.805	29.9744
828.855	26.7637
828.906	28.1254
828.957	27.2427
829.007	27.4048
829.058	25.1792
829.109	27.6285
829.159	27.3674
829.21	29.3032
829.261	25.1043
829.311	24.3285
829.362	26.9022
829.413	28.1053
829.463	25.6995
829.514	28.2345
829.565	29.0193
829.615	26.5951
829.666	21.6806
829.717	25.8681
829.767	29.955
829.818	32.0208
829.869	26.2769
829.919	27.5816
829.97	29.2455
830.021	26.0012
830.071	25.5843
830.122	28.8417
830.173	25.8664
830.224	29.2081
830.274	22.9049
830.325	28.0197
830.376	26.8624
830.426	28.0184
830.477	27.3745
830.528	28.1817
830.578	29.7927
830.629	27.4637
830.68	27.3666
830.73	25.5449
830.781	24.583
830.831	26.6953
830.882	24.1354
830.933	28.469
830.983	25.645
831.034	28.9251
831.085	27.5398
831.135	26.7734
831.186	28.5276
831.237	26.7507
831.287	26.1911
831.338	26.299
831.389	25.7918
831.439	25.9825
831.49	21.501
831.541	27.8227
831.591	28.5822
831.642	24.0317
831.693	24.7004
831.743	29.6413
831.794	27.9059
831.845	26.4363
831.895	27.2846
831.946	26.0522
831.997	20.3902
832.047	25.7688
832.098	23.6286
832.148	30.1179
832.199	32.5606
832.25	21.0429
832.3	25.0229
832.351	29.8726
832.402	27.6609
832.452	24.3361
832.503	28.4701
832.554	30.1343
832.604	28.6648
832.655	25.4916
832.706	26.6409
832.756	30.2503
832.807	31.3306
832.857	25.4958
832.908	26.4068
832.959	27.1605
833.009	28.2937
833.06	28.98
833.111	25.9196
833.161	29.3022
833.212	28.3855
833.263	25.1971
833.313	28.3225
833.364	29.2862
833.414	30.5529
833.465	25.2011
833.516	23.4885
833.566	27.1937
833.617	29.8469
833.668	25.3335
833.718	30.1829
833.769	32.6194
833.819	31.9593
833.87	25.3853
833.921	25.2554
833.971	26.5642
834.022	35.5227
834.073	28.8009
834.123	28.0096
834.174	31.4768
834.224	26.1746
834.275	27.8642
834.326	32.5415
834.376	29.7947
834.427	29.1718
834.477	23.9211
834.528	32.2914
834.579	32.2027
834.629	28.172
834.68	19.8456
834.73	28.8106
834.781	33.1542
834.832	33.9247
834.882	25.1247
834.933	26.8964
834.984	26.7744
835.034	29.9998
835.085	23.1578
835.135	28.4548
835.186	32.7506
835.237	25.8318
835.287	26.9595
835.338	27.9363
835.388	23.9993
835.439	29.8802
835.49	23.884
835.54	27.1177
835.591	31.1311
835.641	28.7636
835.692	22.275
835.743	27.8795
835.793	27.0823
835.844	23.1037
835.894	25.8284
835.945	28.9272
835.996	33.9143
836.046	29.1515
836.097	25.0648
836.099	25.0044
836.15	27.1052
836.201	28.0029
836.251	25.9017
836.302	24.0135
836.353	29.9855
836.404	28.9897
836.454	26.9502
836.505	21.9986
836.556	22.1608
836.606	30.0628
836.657	28.1267
836.708	27.9081
836.758	26.0847
836.809	29.9262
836.86	26.2478
836.911	32.7464
836.961	26.9245
837.012	27.1894
837.063	24.9413
837.113	28.9599
837.164	27.0344
837.215	29.8909
837.265	23.139
837.316	25.738
837.367	26.5941
837.418	29.6322
837.468	23.1836
837.519	26.6332
837.57	27.8332
837.62	30.1147
837.671	22.4218
837.722	27.1126
837.772	24.9563
837.823	29.7847
837.874	24.4253
837.924	29.7509
837.975	26.9548
838.026	25.792
838.077	26.8597
838.127	30.3862
838.178	27.8807
838.229	30.2776
838.279	28.943
838.33	27.0608
838.381	28.2534
838.431	29.7782
838.482	21.673
838.533	26.5587
838.583	31.0143
838.634	28.7948
838.685	22.0641
838.735	19.3374
838.786	28.68
838.837	29.7495
838.888	24.5917
838.938	23.3937
838.989	30.0609
839.04	30.4887
839.09	24.8878
839.141	27.107
839.192	26.4126
839.242	30.7137
839.293	21.1346
839.344	28.4837
839.394	31.5882
839.445	30.7858
839.496	28.6651
839.546	27.2894
839.597	30.9538
839.648	25.6843
839.698	23.4993
839.749	24.619
839.8	28.6922
839.85	23.6845
839.901	23.3469
839.952	25.7081
840.002	26.2812
840.053	24.6714
840.104	28.2848
840.154	20.8184
840.205	27.0322
840.256	27.7581
840.306	21.6021
840.357	26.1193
840.408	28.2342
840.458	28.2027
840.509	23.7952
840.56	25.4055
840.61	27.3887
840.661	26.5667
840.711	25.9148
840.762	25.898
840.813	30.0513
840.863	24.4509
840.914	24.9998
840.965	27.9916
841.015	28.0188
841.066	26.2537
841.117	25.6903
841.167	22.4381
841.218	28.3572
841.269	29.1586
841.319	27.492
841.37	25.3016
841.421	28.7995
841.471	23.0056
841.522	24.3883
841.573	25.0119
841.623	32.802
841.674	29.498
841.724	26.6699
841.775	28.4047
841.826	27.6458
841.876	28.8568
841.927	30.0577
841.978	28.2001
842.028	28.4143
842.079	27.4308
842.13	29.2404
842.18	25.5724
842.231	24.8064
842.281	25.5759
842.332	25.9846
842.383	29.3358
842.433	28.265
842.484	25.6627
842.535	25.4218
842.585	26.7149
842.636	28.636
842.687	26.5289
842.737	26.5028
842.788	25.611
842.838	29.9622
842.889	23.7144
842.94	21.7757
842.99	27.4234
843.041	29.5726
843.092	24.6017
843.142	23.343
843.193	27.353
843.243	28.3065
843.294	24.1734
843.345	24.7697
843.395	25.8594
843.446	28.646
843.497	23.6471
843.547	21.5635
843.598	28.6982
843.648	30.0343
843.699	26.4835
843.75	21.2951
843.8	24.3563
843.851	28.5203
843.901	26.8638
843.952	27.1697
844.003	27.5352
844.053	26.6732
844.104	25.0288
844.155	25.318
844.205	28.9779
844.256	27.498
844.306	23.4939
844.357	25.2118
844.408	27.097
844.458	26.7478
844.509	27.7324
844.559	25.5767
844.61	28.098
844.661	25.2898
844.711	22.1104
844.762	23.6383
844.812	27.8529
844.863	25.0067
844.914	22.8196
844.964	25.3883
845.015	29.2571
845.065	28.0839
845.116	26.489
845.167	27.1581
845.217	26.4293
845.268	26.7647
845.318	28.7078
845.369	26.6527
845.42	27.3991
845.47	25.8683
845.521	27.965
845.571	25.2142
845.622	28.6561
845.673	25.4909
845.723	22.7792
845.774	22.2926
845.824	25.5457
845.875	24.7509
845.926	26.4482
845.976	27.4934
846.027	31.7469
846.077	26.7734
846.128	26.6846
846.178	26.0964
846.229	30.6173
846.28	27.5431
846.33	26
846.381	28.8554
846.431	27.7917
846.482	26.087
846.533	27.6021
846.583	26.2741
846.634	28.6011
846.684	25.5743
846.735	25.515
846.785	26.9511
846.836	25.5176
846.887	28.2394
846.937	27.6688
846.988	25.6033
847.038	25.4306
847.089	24.1122
847.139	24.9262
847.19	28.3081
847.241	28.4768
847.291	27.8373
847.342	24.6528
847.392	24.3241
847.443	28.709
847.493	28.9003
847.544	26.3221
847.595	26.1726
847.645	26.6548
847.696	23.2102
847.746	21.396
847.797	24.3888
847.847	32.2839
847.898	27.4417
847.948	24.6358
847.999	26.8166
848.05	28.7074
848.1	28.3428
848.151	25.6069
848.201	25.1602
848.252	26.5529
848.302	24.7392
848.353	23.606
848.404	26.4198
848.454	31.1463
848.505	28.3068
848.555	27.1707
848.606	28.7174
848.656	26.0493
848.707	25.5421
848.757	24.2478
848.808	25.4082
848.859	27.4797
848.909	27.9632
848.96	25.1947
849.01	26.5032
849.061	28.9194
849.111	28.9316
849.162	24.9761
849.212	25.1712
849.263	30.053
849.313	28.9978
849.364	26.3949
849.414	28.4373
849.465	27.7212
849.516	26.2675
849.566	26.7563
849.617	28.8126
849.667	26.227
849.718	27.0349
849.768	25.7801
849.819	31.2893
849.869	25.7815
849.92	24.1655
849.97	27.1423
850.021	28.0804
850.071	29.0082
850.122	28.2761
850.173	22.4753
850.223	29.1338
850.274	26.8245
850.324	24.9661
850.375	25.3902
850.425	24.1855
850.476	23.4661
850.526	25.7666
850.577	27.9566
850.627	27.8059
850.678	28.5221
850.728	25.6609
850.779	24.3555
850.829	26.4459
850.88	26.9273
850.93	24.8476
850.981	30.2041
851.031	27.1317
851.082	23.6884
851.133	25.7124
851.183	21.0543
851.234	27.2486
851.284	24.8891
851.335	21.1305
851.385	25.2214
851.436	27.5612
851.486	29.0677
851.537	26.5894
851.587	24.2371
851.638	26.602
851.688	26.6068
851.739	22.5093
851.789	24.9283
851.84	25.3935
851.89	28.5163
851.941	25.9257
851.991	24.4725
852.042	26.2491
852.092	20.3683
852.143	23.5069
852.193	24.4161
852.244	30.8482
852.294	30.0493
852.345	26.0676
852.395	28.0121
852.446	28.6158
852.496	28.4522
852.547	24.3231
852.597	21.7431
852.648	30.4168
852.698	27.9469
852.749	26.0623
852.799	28.3932
852.85	29.1145
852.9	28.8416
852.951	25.0512
853.001	24.3313
853.052	25.2117
853.102	25.0414
853.153	24.609
853.203	28.4478
853.254	31.2198
853.304	27.0701
853.355	23.9527
853.405	26.5293
853.443	30.0088
853.493	25.9971
853.544	27.5852
853.594	26.5836
853.645	27.2427
853.696	30.8059
853.746	30.0497
853.797	24.1986
853.847	25.1675
853.898	24.6036
853.949	25.4285
853.999	28.8635
854.05	29.2012
854.1	24.7594
854.151	21.399
854.202	26.6225
854.252	29.0618
854.303	22.7886
854.353	24.8256
854.404	22.7447
854.455	30.9489
854.505	24.6289
854.556	29.4826
854.606	34.0189
854.657	29.8084
854.708	22.418
854.758	19.8695
854.809	26.6645
854.859	34.4593
854.91	27.1853
854.961	24.3602
855.011	25.1953
855.062	27.6302
855.112	27.7209
855.163	25.2204
855.214	30.6747
855.264	25.5011
855.315	24.8239
855.365	29.8439
855.416	31.6152
855.466	28.7501
855.517	23.5177
855.568	24.0725
855.618	23.4913
855.669	28.6069
855.719	27.6391
855.77	24.9302
855.821	23.9769
855.871	27.7135
855.922	23.4741
855.972	24.6841
856.023	31.1306
856.073	25.9967
856.124	25.2132
856.175	25.1887
856.225	29.5636
856.276	29.4849
856.326	25.3054
856.377	27.09
856.427	25.0944
856.478	27.852
856.529	27.0331
856.579	23.661
856.63	25.9726
856.68	27.7899
856.731	21.0477
856.781	21.5322
856.832	29.3191
856.883	29.239
856.933	29.667
856.984	26.9952
857.034	23.5911
857.085	25.9144
857.135	27.2614
857.186	27.0055
857.237	30.5038
857.287	29.5019
857.338	26.0871
857.388	28.7083
857.439	26.1362
857.489	26.9222
857.54	26.5538
857.59	25.0424
857.641	28.6625
857.692	26.6705
857.742	30.1361
857.793	26.949
857.843	27.5054
857.894	25.643
857.944	25.062
857.995	26.1145
858.045	29.55
858.096	28.1832
858.147	24.3056
858.197	19.9237
858.248	32.0644
858.298	27.479
858.349	29.5587
858.399	27.9002
858.45	25.9136
858.5	27.5959
858.551	20.5506
858.601	25.9123
858.652	31.0595
858.703	25.874
858.753	26.1421
858.804	26.3635
858.854	28.7013
858.905	24.8613
858.955	24.3762
859.006	22.8136
859.056	26.4087
859.107	27.2686
859.157	25.0902
859.208	22.7733
859.258	26.8733
859.309	28.468
859.36	23.5408
859.41	25.6837
859.461	27.153
859.511	29.8925
859.562	25.9754
859.612	26.8812
859.663	24.4774
859.713	27.4183
859.764	26.1186
859.814	27.2888
859.865	25.2901
859.915	28.5208
859.966	22.2521
860.016	30.5767
860.067	27.2993
860.117	26.4616
860.168	23.9455
860.219	27.8453
860.269	29.0111
860.32	30.0085
860.37	22.3108
860.421	27.0079
860.471	28.2075
860.522	28.8597
860.572	20.3243
860.623	24.3227
860.673	31.1441
860.724	27.4154
860.774	23.4197
860.825	26.3449
860.875	27.5455
860.926	20.1207
860.976	23.5202
861.027	30.1694
861.077	27.5061
861.128	26.7929
861.178	26.6101
861.229	23.8641
861.279	24.8751
861.33	26.087
861.38	25.0549
861.431	26.0849
861.481	25.1126
861.532	23.8023
861.582	25.8871
861.633	23.8781
861.683	29.1726
861.734	23.2886
861.784	23.2957
861.835	24.664
861.885	26.2545
861.936	28.4029
861.986	22.327
862.037	25.0054
862.087	22.5459
862.138	26.2526
862.188	25.5407
862.239	27.7664
862.289	31.2281
862.34	24.6112
862.39	23.383
862.441	23.075
862.491	29.5951
862.542	27.0396
862.592	25.9377
862.643	29.6508
862.693	27.303
862.744	26.6379
862.794	24.7032
862.845	25.4799
862.895	27.4542
862.946	23.1261
862.996	27.1206
863.047	27.4152
863.097	29.9416
863.148	28.0646
863.198	22.4972
863.249	27.0289
863.299	27.4824
863.35	24.8169
863.4	28.3219
863.451	27.1051
863.501	28.6697
863.552	23.9351
863.602	23.2905
863.653	26.8314
863.703	28.6651
863.754	24.572
863.804	21.4512
863.854	28.7384
863.905	31.1606
863.955	25.8487
864.006	26.5223
864.056	28.8739
864.107	28.011
864.157	28.5223
864.208	25.5421
864.258	27.7906
864.309	28.263
864.359	22.9041
864.41	26.7686
864.46	32.5133
864.511	26.7619
864.561	24.7142
864.612	25.4953
864.662	27.4009
864.712	26.9391
864.763	23.0563
864.813	28.0637
864.864	29.143
864.914	32.0614
864.965	22.0405
865.015	22.8639
865.066	27.285
865.116	28.1696
865.167	19.0726
865.217	24.2899
865.268	27.2656
865.318	27.9068
865.368	29.1791
865.419	22.1562
865.469	31.2606
865.52	22.2148
865.57	25.6174
865.621	27.1691
865.671	26.4292
865.722	23.6237
865.772	22.1734
865.823	23.4389
865.873	23.1467
865.923	23.1795
865.974	26.6144
866.024	25.3891
866.075	29.0533
866.125	27.5962
866.176	23.2264
866.226	25.7954
866.276	27.7425
866.327	26.8866
866.377	25.7121
866.428	28.2687
866.478	26.4926
866.529	28.4562
866.579	24.6223
866.63	27.6316
866.68	31.7297
866.73	28.9799
866.781	26.162
866.831	26.7004
866.882	28.7101
866.932	26.3961
866.983	23.2344
867.033	28.7503
867.083	25.298
867.134	27.7605
867.184	27.8371
867.235	27.689
867.285	28.1301
867.336	27.0932
867.386	21.7891
867.436	24.1907
867.487	28.5726
867.537	33.3322
867.588	23.2704
867.638	25.9896
867.689	27.6558
867.739	25.8023
867.789	22.7954
867.84	27.8997
867.89	30.8812
867.941	30.4499
867.991	26.1618
868.042	25.7347
868.092	25.6214
868.142	20.9373
868.193	21.6572
868.243	25.9481
868.294	28.3189
868.344	25.2599
868.394	25.2361
868.445	25.9047
868.495	23.2359
868.546	19.3545
868.596	24.423
868.647	27.6053
868.697	26.7321
868.747	26.5181
868.798	26.3293
868.848	28.2138
868.899	25.53
868.949	26.6854
868.999	24.1229
869.05	25.5394
869.1	28.1026
869.151	27.7621
869.201	25.2014
869.251	27.2192
869.302	25.6617
869.352	26.31
869.403	25.3473
869.453	26.267
869.503	26.0816
869.554	26.4469
869.604	22.8501
869.655	26.4892
869.705	25.9671
869.755	22.1077
869.806	24.0407
869.856	28.1062
869.907	28.296
869.957	26.2736
870.007	28.7311
870.058	26.7842
870.108	28.085
870.159	24.349
870.209	27.9403
870.259	26.6944
870.31	30.5777
870.36	22.6203
870.41	25.0955
870.461	29.1816
870.511	26.6552
870.562	25.663
870.612	28.6337
870.662	27.9801
870.713	25.3732
870.731	25.0037
870.782	25.1604
870.832	30.2347
870.883	26.2625
870.933	23.6154
870.984	24.0371
871.034	26.3363
871.085	29.2509
871.135	25.8323
871.186	19.3249
871.236	28.5386
871.287	26.884
871.337	24.7644
871.388	22.2087
871.438	25.4436
871.489	29.972
871.539	25.9596
871.59	24.2996
871.64	28.5562
871.691	29.638
871.741	26.3286
871.792	26.6032
871.842	28.6846
871.893	27.5165
871.943	25.8772
871.994	27.4466
872.044	26.344
872.095	27.5532
872.145	26.3141
872.196	27.2736
872.246	28.8353
872.297	27.5929
872.347	25.4178
872.397	27.4028
872.448	30.3762
872.498	29.8533
872.549	25.9246
872.599	25.1989
872.65	26.8429
872.7	27.0878
872.751	24.0845
872.801	25.8726
872.852	31.6455
872.902	27.896
872.953	22.1888
873.003	23.618
873.054	28.6344
873.104	29.2594
873.155	25.6897
873.205	26.2075
873.256	26.6023
873.306	27.8541
873.357	20.3674
873.407	20.5724
873.458	27.5692
873.508	30.5322
873.558	21.2867
873.609	25.5514
873.659	27.1537
873.71	29.0881
873.76	23.8302
873.811	23.7919
873.861	28.4042
873.912	28.7786
873.962	23.5895
874.013	26.1131
874.063	31.6003
874.114	28.4851
874.164	24.1512
874.215	23.1311
874.265	26.6475
874.315	28.0252
874.366	23.5061
874.416	28.8302
874.467	29.4653
874.517	27.1163
874.568	19.6644
874.618	27.0673
874.669	30.1661
874.719	29.4559
874.77	24.414
874.82	24.9036
874.87	25.0371
874.921	26.9192
874.971	23.2822
875.022	31.2684
875.072	27.8095
875.123	25.3072
875.173	24.6858
875.224	29.4615
875.274	25.4519
875.324	27.2501
875.375	25.4108
875.425	31.003
875.476	28.7151
875.526	26.6437
875.577	21.5085
875.627	29.0317
875.678	28.3872
875.728	24.7877
875.779	23.7117
875.829	30.3114
875.879	29.3014
875.93	29.4072
875.98	18.9334
876.031	24.5145
876.081	28.1294
876.132	25.0956
876.182	22.4108
876.232	27.2976
876.283	31
876.333	26.5923
876.384	25.3652
876.434	29.9308
876.485	24.7081
876.535	25.616
876.585	25.893
876.636	27.4083
876.686	27.3763
876.737	24.7071
876.787	23.0604
876.838	27.2232
876.888	22.7921
876.938	23.0348
876.989	24.4242
877.039	27.3756
877.09	27.5765
877.14	24.4556
877.191	25.7235
877.241	26.7862
877.291	25.5699
877.342	21.1024
877.392	24.4704
877.443	28.7781
877.493	31.0818
877.544	21.0079
877.594	27.0117
877.644	30.7884
877.695	30.8746
877.745	22.5425
877.796	26.8296
877.846	24.8277
877.896	28.7996
877.947	21.4338
877.997	24.9123
878.048	26.7605
878.098	29.0198
878.148	23.1843
878.199	27.1906
878.249	28.1149
878.3	27.1496
878.35	24.7253
878.4	21.3691
878.451	30.5897
878.501	27.3916
878.552	21.5781
878.602	25.1309
878.653	25.4712
878.703	26.5144
878.753	19.811
878.804	28.8081
878.854	26.6478
878.904	28.5412
878.955	20.6319
879.005	27.266
879.056	27.375
879.106	28.4985
879.156	20.5228
879.207	24.6847
879.257	28.3955
879.308	28.7688
879.358	23.6482
879.408	23.4006
879.459	29.4718
879.509	26.0713
879.56	24.3555
879.61	32.6565
879.66	26.5302
879.711	25.8078
879.761	23.5213
879.812	26.7539
879.862	29.3126
879.912	24.8957
879.963	24.111
880.013	28.2807
880.063	26.0117
880.114	23.4433
880.164	22.8909
880.215	26.5509
880.265	28.3843
880.315	27.3075
880.366	28.1691
880.416	30.6877
880.467	27.5695
880.517	24.4784
880.567	24.9865
880.618	29.3717
880.668	28.7893
880.718	21.4336
880.769	27.9612
880.819	26.3442
880.87	27.7928
880.92	24.5789
880.97	21.2368
881.021	28.1581
881.071	26.676
881.121	21.9142
881.172	23.8977
881.222	30.3951
881.273	29.6413
881.323	27.1879
881.373	24.6694
881.424	26.7012
881.474	25.1182
881.524	21.5234
881.575	25.7212
881.625	21.9911
881.675	25.1419
881.726	18.6316
881.776	24.049
881.826	31.0614
881.877	31.7072
881.927	24.7354
881.978	23.2635
882.028	32.6579
882.078	28.941
882.129	22.8229
882.179	26.7432
882.229	26.8473
882.28	28.4229
882.33	20.9637
882.38	27.3782
882.431	29.7976
882.481	30.2199
882.531	24.6424
882.582	27.8873
882.632	23.4865
882.682	26.0737
882.733	24.8143
882.783	25.2712
882.834	27.6496
882.884	26.2685
882.934	23.9049
882.985	30.4806
883.035	29.2528
883.085	25.6447
883.136	27.5779
883.186	27.5792
883.236	29.1526
883.287	26.2237
883.337	22.9036
883.387	27.6032
883.438	28.3989
883.488	26.9391
883.538	22.7196
883.589	23.7799
883.639	25.9031
883.689	23.9306
883.74	19.9197
883.79	23.5932
883.84	27.8358
883.891	26.8167
883.941	24.4552
883.991	22.9702
884.042	24.9901
884.092	25.3093
884.142	23.4254
884.193	25.176
884.243	27.1728
884.293	25.6761
884.344	23.4734
884.394	26.898
884.444	29.3987
884.495	26.7727
884.545	24.2783
884.595	26.4318
884.646	28.3324
884.696	24.1537
884.746	23.3301
884.797	24.2868
884.847	24.9882
884.897	26.5344
884.947	26.6213
884.998	30.2213
885.048	28.856
885.098	24.5605
885.149	23.5892
885.199	27.055
885.249	28.5726
885.3	27.2903
885.35	27.2747
885.4	26.0276
885.451	26.4027
885.501	24.0736
885.551	26.4983
885.602	30.4417
885.652	27.4389
885.702	23.7854
885.752	23.725
885.803	28.2376
885.853	28.2317
885.903	24.7313
885.954	27.3112
886.004	29.5947
886.054	28.4026
886.105	24.7624
886.155	26.5434
886.205	27.6236
886.255	28.4393
886.306	23.3234
886.356	27.0039
886.406	27.8835
886.457	25.3958
886.507	22.3281
886.557	25.0738
886.608	21.5122
886.658	23.1378
886.708	20.1709
886.758	24.9911
886.809	28.5034
886.859	25.4891
886.909	19.3231
886.96	23.861
887.01	27.2709
887.06	25.5022
887.11	22.0618
887.161	28.1691
887.211	29.1926
887.261	26.0879
887.312	21.0048
887.362	27.0792
887.412	26.7467
887.462	26.5559
887.513	22.8477
887.563	24.1141
887.613	23.2942
887.664	24.1247
887.714	28.0306
887.764	25.5322
887.814	30.5808
887.865	29.4283
887.915	24.303
887.965	23.2256
887.987	24.9574
888.038	27.6083
888.088	26.1202
888.138	24.362
888.189	28.8871
888.239	27.6478
888.289	21.7493
888.34	25.1948
888.39	28.9133
888.441	27.716
888.491	22.0177
888.542	23.2749
888.592	24.8919
888.642	27.3923
888.693	21.2238
888.743	24.899
888.793	28.7506
888.844	28.5836
888.894	20.9773
888.945	27.0868
888.995	27.3601
889.045	25.0292
889.096	23.142
889.146	21.8081
889.197	28.5141
889.247	28.3647
889.297	24.5753
889.348	29.7276
889.398	26.3366
889.448	27.4393
889.499	22.8042
889.549	29.8385
889.6	27.5345
889.65	28.7623
889.7	21.8184
889.751	25.3557
889.801	27.4128
889.851	27.2055
889.902	28.0584
889.952	28.8583
890.003	25.4677
890.053	27.1878
890.103	24.736
890.154	27.5462
890.204	24.3696
890.254	26.9377
890.305	18.7141
890.355	29.0872
890.406	31.2345
890.456	27.7861
890.506	24.9596
890.557	32.5968
890.607	29.145
890.657	28.9978
890.708	23.8891
890.758	26.1174
890.808	24.9789
890.859	26.537
890.909	22.3852
890.96	26.4528
891.01	23.2723
891.06	25.1379
891.111	23.1177
891.161	25.9011
891.211	27.2873
891.262	27.2868
891.312	26.7591
891.362	26.7887
891.413	26.743
891.463	25.3946
891.513	25.342
891.564	28.1936
891.614	24.9501
891.665	23.5417
891.715	24.971
891.765	28.783
891.816	26.7847
891.866	24.4497
891.916	23.9922
891.967	24.273
892.017	27.2748
892.067	23.443
892.118	23.9951
892.168	27.2494
892.218	27.3626
892.269	23.8229
892.319	25.6456
892.369	23.7071
892.42	25.1251
892.47	22.0447
892.52	27.0871
892.571	27.0388
892.621	28.5808
892.671	29.0216
892.722	22.7594
892.772	25.2194
892.822	27.3317
892.873	23.4122
892.923	28.2213
892.973	27.65
893.024	28.5752
893.074	24.1324
893.124	27.1025
893.175	26.3414
893.225	25.4718
893.275	24.2654
893.326	28.1338
893.376	24.942
893.426	26.818
893.477	22.6839
893.527	24.1694
893.577	23.2109
893.628	23.0291
893.678	24.9072
893.728	27.2827
893.779	21.9315
893.829	23.3147
893.879	21.7154
893.93	24.9301
893.98	24.1706
894.03	26.3132
894.081	21.4589
894.131	28.833
894.181	26.0324
894.232	25.6161
894.282	23.4796
894.332	25.7174
894.383	28.9863
894.433	25.3278
894.483	21.3941
894.533	27.6901
894.584	24.4762
894.634	23.9572
894.684	23.5615
894.735	25.9056
894.785	25.5076
894.835	23.0557
894.886	23.0033
894.936	25.4568
894.986	25.3857
895.037	24.3915
895.087	23.1962
895.137	28.022
895.188	28.2023
895.238	24.6796
895.288	25.1014
895.338	26.9635
895.389	26.4261
895.439	23.4529
895.489	20.3192
895.54	27.5112
895.59	24.46
895.64	22.6008
895.69	24.4068
895.741	27.4738
895.791	27.0676
895.841	26.2696
895.892	28.1121
895.942	29.4863
895.992	27.7519
896.043	22.6943
896.093	24.4903
896.143	23.3699
896.193	25.6843
896.244	22.1338
896.294	25.0245
896.344	21.9492
896.395	27.3823
896.445	25.2484
896.495	26.0837
896.545	24.2669
896.596	25.7818
896.646	23.7638
896.696	25.0418
896.747	26.1681
896.797	22.3764
896.847	21.1467
896.897	24.5966
896.948	24.5026
896.998	24.3088
897.048	22.5451
897.099	28.5069
897.149	26.6388
897.199	24.1441
897.249	19.1823
897.3	26.7143
897.35	26.9701
897.4	26.1086
897.451	26.4089
897.501	26.4653
897.551	24.974
897.601	27.6
897.652	20.9366
897.702	27.7928
897.752	29.7112
897.802	28.4894
897.853	24.1211
897.903	24.8393
897.953	25.7051
898.003	23.6
898.054	20.9369
898.104	28.5115
898.154	26.0696
898.204	21.892
898.255	26.3063
898.305	26.1908
898.355	26.3483
898.406	22.8654
898.456	18.9992
898.506	24.8962
898.556	28.6667
898.607	28.0992
898.657	23.6679
898.707	25.4579
898.757	24.32
898.808	26.8607
898.858	20.7113
898.908	26.14
898.958	26.6792
899.009	23.6057
899.059	22.4344
899.109	25.9732
899.159	25.3617
899.21	23.057
899.26	24.153
899.31	24.5373
899.36	24.887
899.411	25.0256
899.461	21.3206
899.511	24.4684
899.561	27.1214
899.612	21.1363
899.662	23.4818
899.712	24.93
899.762	28.5307
899.813	26.5133
899.863	23.5471
899.913	30.0292
899.963	28.6667
