#Acq. time (s)=	2
#Accumulations=	3
#Range (nm)=	520...900
#Windows=	24
#Auto scanning=	On
#Autofocus=	Off
#AutoExposure=	Off
#Spike filter=	Multiple accum.
#Delay time (s)=	0
#Binning=	1
#Readout mode=	Signal
#DeNoise=	Off
#ICS correction=	Off
#Dark correction=	Off
#Inst. Process=	Off
#Detector temperature (°C)=	-59.98
#Instrument=	LabRAM HR Evol
#Detector=	Syncerity OE
#Objective=	x50_VIS
#Grating=	600 (500nm)
#ND Filter=	25%
#Laser=	514nm_Edge
#Hole=	199.981
#Range=	Auto
#StageXY=	Marzhauser
#StageZ=	Marzhauser
#X (µm)=	-14729.6
#Y (µm)=	7396.1
#Z (µm)=	-433.4
#Full time(mm:ss)=	3:04
#Project=	
#Sample=	
#Site=	
#Title=	M7_140224
#Remark=	
#Date=	19.02.2024 14:52
#Acquired=	19.02.2024 14:52:40
520.013	32.7925
520.065	32.5347
520.117	29.2486
520.17	30.5642
520.222	30.1833
520.274	28.6574
520.327	27.2463
520.379	28
520.431	29.007
520.483	31.6546
520.536	30.2688
520.588	28.2541
520.64	27.7599
520.693	27.1416
520.745	31.8975
520.797	26.2944
520.85	29.3481
520.902	28.8447
520.954	28.2002
521.007	32.1827
521.059	29.9757
521.111	29.4989
521.163	32.0046
521.216	30.1555
521.268	29.5281
521.32	29.9443
521.373	31.0995
521.425	30.3371
521.477	31.3698
521.529	28.4615
521.582	31.4142
521.634	24.4559
521.686	30.03
521.739	28.6993
521.791	27.1934
521.843	27.4451
521.896	32.6382
521.948	31.0472
522	29.5028
522.052	25.6611
522.105	27.7227
522.157	32.7639
522.209	30.2344
522.262	30.7939
522.314	29.0912
522.366	26.6315
522.418	31.1261
522.471	28.4527
522.523	30.7649
522.575	32.1095
522.628	30.3231
522.68	28.0214
522.732	28.5154
522.784	25.6681
522.837	27.0631
522.889	29.3849
522.941	27.5987
522.994	31.5391
523.046	29.4241
523.098	28.5219
523.15	27.9729
523.203	27.8989
523.255	28.1736
523.307	27.3565
523.36	29.9904
523.412	29.7139
523.464	30.4732
523.516	29.8473
523.569	27.6879
523.621	33.2069
523.673	28.1885
523.726	27.8589
523.778	28.0824
523.83	34.1519
523.882	29.3425
523.935	28.0057
523.987	29.1442
524.039	30.8356
524.091	27.5144
524.144	30.3605
524.196	26.3488
524.248	29.1977
524.301	28.042
524.353	31.2968
524.405	30.9166
524.457	32.6995
524.51	32.4886
524.562	26.3514
524.614	28.3066
524.666	31.5906
524.719	23.3236
524.771	28.3667
524.823	33.7045
524.875	32.5243
524.928	31.8005
524.98	27.1437
525.032	28.6865
525.085	30.6688
525.137	29.1532
525.189	31.0062
525.241	28.4981
525.294	32
525.346	32.8073
525.398	26.7619
525.45	27.1117
525.503	28.3349
525.555	29.1509
525.607	29.9676
525.659	28.6988
525.712	31.5904
525.764	29.4679
525.816	27.4289
525.868	32.3195
525.921	31.188
525.973	30.2086
526.025	26
526.077	26.4416
526.13	27.7982
526.182	27.5222
526.234	29.2191
526.286	29.7928
526.339	30.0078
526.391	27.4788
526.443	27.3333
526.495	28.1856
526.548	29.4028
526.6	28.2424
526.652	25.2421
526.704	30.2183
526.757	32.509
526.809	28.022
526.861	26.6439
526.913	31.0769
526.966	31.1487
527.018	27.4779
527.07	26.8764
527.122	28.0692
527.175	30.1716
527.227	28.6031
527.279	26.7841
527.331	31.9996
527.384	28.1327
527.436	28.5091
527.488	28.1492
527.54	28.0768
527.593	28.1783
527.645	28.0319
527.697	30.4015
527.749	33.3203
527.802	27.9677
527.854	28.1818
527.906	29.9205
527.958	33.5124
528.011	28.1027
528.063	25.1125
528.115	24.532
528.167	29.5596
528.219	25.5401
528.272	27.9135
528.324	26.1951
528.376	29.2393
528.428	25.6205
528.481	26.0966
528.533	26.7432
528.585	31.7519
528.637	26.0493
528.69	28.2968
528.742	24.7366
528.794	33.4403
528.846	31.4545
528.898	28.5566
528.951	31.4666
529.003	34.7033
529.055	24.5765
529.107	27.1506
529.16	27.6359
529.212	29.0014
529.264	32.5732
529.316	27.054
529.369	27.1375
529.421	29.8624
529.473	25.6943
529.525	26.2487
529.577	29.9876
529.63	28.7342
529.682	30.1876
529.734	27.8148
529.786	31.2453
529.839	29.6963
529.891	25.7974
529.943	25.8633
529.995	31.927
530.047	31.7718
530.1	25.7827
530.152	26.7214
530.204	27.3659
530.256	31.4759
530.308	30.3888
530.361	27.6193
530.413	29.9076
530.465	29.5948
530.517	28.6257
530.57	22.2488
530.622	32.2633
530.674	30.0491
530.726	23.4462
530.778	24.7477
530.831	32.9485
530.883	25.2273
530.935	26.952
530.987	29.8575
531.039	30.7565
531.092	25.6206
531.144	24.7133
531.196	29.4055
531.248	33.0628
531.3	26.4298
531.353	28.182
531.405	28.7298
531.457	30.091
531.509	27.1157
531.561	28.9199
531.614	30.5294
531.666	32.9364
531.718	25.2129
531.77	26.126
531.822	28.7692
531.875	25.6547
531.927	24.76
531.979	28.0469
532.031	29.4285
532.083	35.0189
532.136	32.0401
532.188	28.4932
532.24	26.6155
532.292	29.4413
532.344	27.1717
532.397	29.8153
532.449	22.6089
532.501	32.0399
532.553	26.9883
532.605	27.164
532.658	26.4091
532.71	29.358
532.762	26.5114
532.814	27.6215
532.866	28.4735
532.919	30.3834
532.971	29.0656
533.023	27.2905
533.075	30.7351
533.127	30.7777
533.179	30.863
533.232	28.3091
533.284	28.3418
533.336	31.0392
533.388	27.3355
533.44	23.8107
533.493	28.3576
533.545	29.4398
533.597	30.9307
533.649	26.6547
533.701	29.5437
533.753	31.8307
533.806	29.6421
533.858	25.7446
533.91	29.7672
533.962	30.6945
534.014	28.7459
534.067	28.9927
534.119	30.1865
534.171	28.8544
534.223	26.678
534.275	28.0603
534.327	29.7816
534.38	29.575
534.432	30.0405
534.484	30.022
534.536	29.9582
534.588	29.4647
534.641	31.515
534.693	29.134
534.745	34.5178
534.797	30.9142
534.849	22.289
534.901	27.5942
534.953	29.721
535.006	29.4549
535.058	29.5336
535.11	30.5247
535.162	31.8077
535.214	28.7352
535.267	24.9234
535.319	29.6274
535.371	32.1538
535.423	30.0033
535.475	26.644
535.527	27.9034
535.58	32.0609
535.632	28.6357
535.684	29.5295
535.736	35.3296
535.788	37.1878
535.84	28.0817
535.892	26.529
535.945	32.8811
535.997	34.0984
536.049	29.6631
536.101	31.8613
536.153	31.6253
536.205	31.5595
536.258	28.7356
536.31	26.6104
536.362	36.1409
536.414	32.5172
536.466	28.2659
536.518	29.7803
536.57	33.6332
536.623	35.8848
536.675	32.6455
536.727	29.066
536.779	30.8952
536.831	35.2042
536.883	31.0224
536.936	28.5621
536.988	30.8875
537.04	32.241
537.092	29.671
537.144	33.0583
537.196	33.1126
537.248	27.9278
537.301	28.0087
537.353	22.8279
537.405	31.1973
537.457	28.0467
537.509	26.809
537.561	28.0509
537.613	30.0209
537.666	37.6635
537.718	33.1069
537.77	30.1502
537.778	29.6797
537.831	29.9947
537.883	27.1718
537.935	28.1411
537.987	26.4789
538.04	27.6599
538.092	30.9937
538.144	29.9892
538.196	27.7311
538.249	34.9843
538.301	31.82
538.353	28.4726
538.405	30.2269
538.457	30.9593
538.51	28.4876
538.562	35.0328
538.614	30.3817
538.666	34.397
538.719	26.3822
538.771	32.3835
538.823	29.3341
538.875	34.2058
538.927	30.5736
538.98	27.6627
539.032	27.3014
539.084	33.0118
539.136	31.9915
539.189	21.3828
539.241	29.3937
539.293	32.6806
539.345	30.4126
539.397	24.5314
539.45	30.3785
539.502	28.5668
539.554	26.5168
539.606	23.4365
539.659	30.3132
539.711	29.7641
539.763	30.6362
539.815	26.1975
539.867	26.2887
539.92	30.8282
539.972	27.401
540.024	29.295
540.076	34.059
540.128	25.4745
540.181	26.0618
540.233	29.2059
540.285	28.8914
540.337	29.7539
540.39	28.5512
540.442	26.349
540.494	31.976
540.546	29.4743
540.598	26.8554
540.651	26.5089
540.703	33.9549
540.755	28.1222
540.807	27.6935
540.859	26.3256
540.912	30.9651
540.964	31.6891
541.016	30.3156
541.068	29.0718
541.12	22.5033
541.173	32.6576
541.225	27.3282
541.277	27.7606
541.329	33.773
541.381	31.3246
541.434	30.4149
541.486	22.7359
541.538	27.2446
541.59	34.4143
541.642	27.5041
541.695	26.1467
541.747	33.3561
541.799	27.3017
541.851	31.2581
541.903	25.5896
541.956	30.778
542.008	29.2273
542.06	32.015
542.112	23.6575
542.164	32.0845
542.217	26.318
542.269	25.2359
542.321	24.9778
542.373	28.2352
542.425	29.6678
542.478	29.0787
542.53	30.012
542.582	27.7104
542.634	30.6445
542.686	25.4123
542.738	23.5712
542.791	34.2256
542.843	31.2879
542.895	28.0228
542.947	25.7732
542.999	32.171
543.052	23.8142
543.104	29.1115
543.156	27.6097
543.208	30.0859
543.26	25.2985
543.313	29.477
543.365	28.0594
543.417	29.7326
543.469	25.4851
543.521	28.8144
543.573	29.3307
543.626	30.8011
543.678	30.3547
543.73	26.1748
543.782	29.4065
543.834	32.0798
543.886	25.4075
543.939	28.3272
543.991	29.1155
544.043	32.5498
544.095	31.6291
544.147	24.0676
544.2	28.9855
544.252	30.1815
544.304	28.6028
544.356	26.2047
544.408	30.5255
544.46	28.6352
544.513	28.95
544.565	25.2879
544.617	27.8921
544.669	29.2913
544.721	30.4942
544.773	28.4687
544.826	29.0129
544.878	29.1584
544.93	32.1422
544.982	24.0275
545.034	28.4507
545.086	31.1411
545.139	32.1419
545.191	28.6084
545.243	31.666
545.295	31.5795
545.347	30.7066
545.399	21.9748
545.452	26.6784
545.504	32.3621
545.556	31.2605
545.608	27.0492
545.66	32.4637
545.712	31.6106
545.765	30.4361
545.817	27.2629
545.869	29.8772
545.921	29.5997
545.973	32.0143
546.025	29.105
546.077	39.1224
546.13	32.202
546.182	30.1147
546.234	29.5931
546.286	29.8268
546.338	31.2509
546.39	32.0852
546.443	30.5836
546.495	37.8097
546.547	27.3886
546.599	27.548
546.651	23.8455
546.703	34.0389
546.755	31.9681
546.808	32.0211
546.86	24.866
546.912	33.5639
546.964	27.6527
547.016	28.2507
547.068	26.9912
547.12	27.702
547.173	30.7855
547.225	30.7612
547.277	30.201
547.329	33.5144
547.381	28.1903
547.433	29.2129
547.485	27.2548
547.538	33.2853
547.59	31.9804
547.642	29.7832
547.694	28.189
547.746	32.8936
547.798	30.2729
547.85	26.5531
547.903	29.5927
547.955	31.0074
548.007	31.1718
548.059	28.4625
548.111	31.1294
548.163	30.5144
548.215	30.6266
548.268	26.0808
548.32	33.5158
548.372	36.132
548.424	33.5793
548.476	29.6794
548.528	29.5406
548.58	31.4715
548.633	29.8249
548.685	29.7538
548.737	30.4936
548.789	31.3117
548.841	32.9396
548.893	29.1145
548.945	32.5786
548.997	32.146
549.049	33.7939
549.102	31.9851
549.154	33.1313
549.206	29.5978
549.258	31.9922
549.31	30.3172
549.362	32.9423
549.414	31.2652
549.467	34.9851
549.519	30.9822
549.571	35.3714
549.623	34.698
549.675	34.9462
549.727	27.3512
549.779	34.5988
549.831	32.122
549.883	34.2406
549.936	30.6607
549.988	31.9118
550.04	31.9885
550.092	31.8685
550.144	34.2444
550.196	37.7978
550.248	36.8295
550.3	36.4317
550.353	35.112
550.405	36.5381
550.457	30.3119
550.509	33.4277
550.561	33.1803
550.613	37.4026
550.665	37.7747
550.717	37.7259
550.769	35.0651
550.822	41.1235
550.874	42.0137
550.926	42.1141
550.978	35.9597
551.03	44.9003
551.082	44.0203
551.134	43.6558
551.186	42.0989
551.238	47.289
551.291	44.2797
551.343	39.3633
551.395	48.2376
551.447	51.5724
551.499	54.4039
551.551	53.803
551.603	52.885
551.655	63.4856
551.707	59.745
551.759	59.6471
551.812	65.5834
551.864	70.9114
551.916	83.5381
551.968	91.9127
552.02	89.8496
552.072	106.49
552.124	123.479
552.176	151.953
552.228	182.477
552.28	236.461
552.332	339.882
552.385	620.602
552.437	1549.74
552.489	3335.6
552.541	5838.02
552.593	8497.53
552.645	10156
552.697	9517.61
552.749	6952.97
552.801	3801.09
552.853	1532.88
552.905	607.561
552.958	328.08
553.01	217.622
553.062	169.061
553.114	137.359
553.166	118.117
553.218	94.6551
553.27	86.3061
553.322	80.2198
553.374	75.5802
553.426	65.3929
553.478	62.0017
553.531	61.1565
553.583	56.7101
553.635	52.0074
553.687	48.7483
553.739	49.8122
553.791	45.5263
553.843	44.9777
553.895	51.9881
553.947	43.8197
553.999	44.3737
554.051	41.4713
554.103	40.7942
554.155	36.6312
554.208	39.4305
554.26	36.2607
554.312	38.9394
554.364	38.6392
554.416	36.1134
554.468	34.232
554.52	34.4085
554.572	34.3101
554.624	36.5068
554.676	37.3833
554.728	36.9712
554.78	36.2594
554.832	36.0545
554.884	32.8046
554.937	34.8494
554.989	36.8726
555.041	35.6646
555.093	31.312
555.145	30.9355
555.197	30.0513
555.249	30.2368
555.301	30.4059
555.353	32.4924
555.405	32.7648
555.457	30.7683
555.509	28.1895
555.529	27.0691
555.582	38.9129
555.634	31.1041
555.686	29.9725
555.738	28.9412
555.79	32.8976
555.842	32.0108
555.895	28.0685
555.947	28.7906
555.999	34.638
556.051	30.0351
556.103	29.9856
556.155	28.3689
556.207	36.8579
556.26	36.7359
556.312	32.9924
556.364	30.0253
556.416	34.7443
556.468	35.7521
556.52	25.7042
556.573	34.6652
556.625	37.4003
556.677	29.0599
556.729	33.41
556.781	30.6393
556.833	29.2722
556.885	33.8413
556.938	23.8476
556.99	33.8794
557.042	32.6698
557.094	32.837
557.146	24.393
557.198	27.0437
557.25	31.6304
557.302	31.7731
557.355	29.9096
557.407	37.2724
557.459	29.1733
557.511	35.259
557.563	34.9935
557.615	32.7506
557.667	29.3551
557.72	34.1035
557.772	24.9081
557.824	33.5229
557.876	29.7513
557.928	35.3755
557.98	28.2341
558.032	33.5038
558.085	26.2026
558.137	31.6658
558.189	32.4801
558.241	31.5278
558.293	27.2659
558.345	32.121
558.397	23.8664
558.449	32.7671
558.502	33.8693
558.554	33.8099
558.606	29.4202
558.658	36.6117
558.71	33.7504
558.762	33.949
558.814	28.6207
558.866	30.9423
558.919	30.4185
558.971	33.9053
559.023	32.5467
559.075	31.358
559.127	30.0442
559.179	30.9526
559.231	28.7
559.283	33.3081
559.336	32.893
559.388	32.4008
559.44	29.6577
559.492	32.7348
559.544	32.3203
559.596	30.4152
559.648	27.1736
559.7	30.9213
559.753	31.3437
559.805	30.846
559.857	29.4929
559.909	31.3343
559.961	31.2588
560.013	30.018
560.065	30.7121
560.117	33.7639
560.169	33.2557
560.222	26.9722
560.274	31.5149
560.326	29.0861
560.378	27.7271
560.43	25.9718
560.482	36.2428
560.534	36.0321
560.586	30.5233
560.638	29.7619
560.69	34.7917
560.743	29.3533
560.795	31.2725
560.847	31.955
560.899	23.8508
560.951	32.6847
561.003	32.857
561.055	30.8459
561.107	30.6631
561.159	30.873
561.212	30.7991
561.264	27.7777
561.316	35.6769
561.368	33.8362
561.42	31.4452
561.472	28.8801
561.524	31.3787
561.576	28.5017
561.628	32.7467
561.68	30.289
561.733	31.738
561.785	31.503
561.837	33.4542
561.889	31.1976
561.941	33.5538
561.993	33.3718
562.045	34.5286
562.097	24.9608
562.149	35.4641
562.201	28.9739
562.253	31.469
562.306	29.329
562.358	33.58
562.41	29.1481
562.462	29.7791
562.514	33.4213
562.566	33.4856
562.618	35.4059
562.67	30.7974
562.722	31.4008
562.774	38.9683
562.826	32.4416
562.879	31.7868
562.931	28.3804
562.983	36.7235
563.035	34.6057
563.087	34.139
563.139	33.337
563.191	35.8103
563.243	33.2109
563.295	31.2015
563.347	34.314
563.399	35.3973
563.451	30.1085
563.504	31.7675
563.556	32.1936
563.608	31.2779
563.66	35.7262
563.712	35.4136
563.764	31.7138
563.816	35.9298
563.868	30.0225
563.92	29.5209
563.972	34.7435
564.024	36.8972
564.076	33.3528
564.128	33.9367
564.181	32.6876
564.233	33.5403
564.285	33.3122
564.337	29.0476
564.389	31.9029
564.441	31.2317
564.493	31.171
564.545	30.4174
564.597	33.8956
564.649	34.3486
564.701	34.005
564.753	31.6302
564.805	36.2454
564.857	31.2309
564.909	30.8787
564.962	30.6324
565.014	32.884
565.066	29.2926
565.118	28.5126
565.17	30.5761
565.222	35.0094
565.274	31.4042
565.326	33.9207
565.378	32.2728
565.43	33.0749
565.482	36.1841
565.534	34.3617
565.586	33.5553
565.638	36.243
565.69	32.4933
565.742	34.6496
565.795	32.1209
565.847	32.5639
565.899	33.8416
565.951	33.2658
566.003	32.9516
566.055	37.4253
566.107	28.1372
566.159	30.5771
566.211	32.3647
566.263	34.6355
566.315	31.4036
566.367	30.0565
566.419	36.4537
566.471	37.8988
566.523	32.6131
566.575	30.8541
566.627	32.8844
566.679	34.3854
566.732	34.446
566.784	39.0516
566.836	34.8769
566.888	34.4445
566.94	31.9417
566.992	31.9145
567.044	31.6787
567.096	33.4292
567.148	33.9945
567.2	30.9596
567.252	32.3921
567.304	34.644
567.356	37.4514
567.408	36.5739
567.46	36.3017
567.512	34.8212
567.564	34.7982
567.616	34.4566
567.668	34.7601
567.72	34.953
567.772	34.6067
567.824	33.4183
567.876	37.2878
567.928	36.7708
567.98	33.7124
568.033	31.9194
568.085	32.9926
568.137	32.8882
568.189	32.5456
568.241	32.2438
568.293	36.1409
568.345	36.8953
568.397	33.3535
568.449	35.6168
568.501	35.6292
568.553	35.0386
568.605	38.1163
568.657	34.682
568.709	36.9869
568.761	39.6841
568.813	36.4507
568.865	34.4437
568.917	37.5641
568.969	36.8029
569.021	34.8079
569.073	35.561
569.125	37.407
569.177	35.208
569.229	36.0226
569.281	37.5486
569.333	35.8431
569.385	34.5742
569.437	35.3106
569.489	37.4315
569.541	37.6858
569.593	34.7575
569.645	33.448
569.697	32.9544
569.749	33.1543
569.801	34.8212
569.853	31.0682
569.905	35.9282
569.957	37.9315
570.009	35.5956
570.061	34.0455
570.113	34.1372
570.165	32.6011
570.217	33.1154
570.269	33.3551
570.321	33.5655
570.374	38.3579
570.426	37.1745
570.478	36.1178
570.53	38.8247
570.582	37.5745
570.634	39.0447
570.686	38.0055
570.738	36.3607
570.79	36.3085
570.842	39.9214
570.894	37.3056
570.946	36.1444
570.998	34.8577
571.05	38.3706
571.102	37.6602
571.154	36.8179
571.206	37.8356
571.258	31.5741
571.31	31.1937
571.362	37.9062
571.414	39.491
571.466	36.859
571.518	36.4998
571.57	37.2185
571.622	38.35
571.674	40.2875
571.726	35.2937
571.778	36.5513
571.83	38.9081
571.882	34.9302
571.934	34.7984
571.986	37.1893
572.038	37.9286
572.09	36.535
572.142	40.7617
572.194	39.4722
572.246	39.5418
572.298	32.8955
572.349	37.0632
572.401	40.0127
572.453	39.8884
572.505	39.5884
572.557	42.8706
572.609	40.8252
572.661	41.3703
572.713	41.1559
572.765	43.3912
572.817	37.6902
572.869	37.7273
572.921	36.9517
572.973	41.086
573.025	38.4745
573.077	44.6331
573.129	38.9449
573.181	45.4215
573.212	44.2358
573.264	41.0158
573.316	38.3451
573.368	46.1978
573.421	44.701
573.473	48.4819
573.525	43.0246
573.577	49.7975
573.629	44.5271
573.681	41.3104
573.733	40.4854
573.785	47.3657
573.837	43.5473
573.889	49.0998
573.941	43.3998
573.993	42.7532
574.045	49.2088
574.097	44.6242
574.15	49.6428
574.202	43.5091
574.254	44.0673
574.306	48.2278
574.358	39.2563
574.41	43.2074
574.462	45.8003
574.514	48.5964
574.566	46.6247
574.618	47.7214
574.67	46.5484
574.722	50.0528
574.774	41.9227
574.826	44.1073
574.878	47.5089
574.931	46.0886
574.983	48.2439
575.035	52.6656
575.087	46.8403
575.139	51.189
575.191	48.9844
575.243	48.605
575.295	48.0064
575.347	49.4766
575.399	53.2397
575.451	48.5876
575.503	48.8387
575.555	47.6081
575.607	47.8153
575.659	51.065
575.711	52.8624
575.763	53.8911
575.815	50.776
575.868	49.9192
575.92	51.8295
575.972	47.4493
576.024	51.4356
576.076	43.1857
576.128	46.6787
576.18	45.661
576.232	49.6887
576.284	50.2589
576.336	49.0285
576.388	48.7538
576.44	50.2063
576.492	47.6641
576.544	49.7665
576.596	44.3197
576.648	49.3641
576.7	50.0996
576.752	48.1482
576.804	44.7078
576.856	50.8508
576.909	50.2561
576.961	52.917
577.013	45.5308
577.065	48.3828
577.117	46.9707
577.169	49.879
577.221	47.3879
577.273	49.6424
577.325	48.9407
577.377	51.1329
577.429	47.7849
577.481	47.0397
577.533	46.1782
577.585	48.3366
577.637	39.9064
577.689	43.6258
577.741	45.5041
577.793	48.3173
577.845	43.3367
577.897	46.6372
577.949	50.5232
578.001	48.9543
578.053	42.0673
578.105	45.7001
578.157	48.6133
578.209	45.4629
578.261	44.6104
578.313	49.6855
578.365	45.5801
578.417	45.9811
578.469	46.6769
578.522	50.4469
578.574	47.1621
578.626	47.184
578.678	42.3382
578.73	49.3109
578.782	45.7741
578.834	45.5581
578.886	43.4332
578.938	45.8665
578.99	45.0225
579.042	44.0511
579.094	40.6359
579.146	49.3099
579.198	47.2953
579.25	49.1306
579.302	47.235
579.354	49.0304
579.406	48.2443
579.458	50.1624
579.51	49.8297
579.562	51.3849
579.614	51.7683
579.666	48.2674
579.718	50.9115
579.77	50.5268
579.822	49.9576
579.874	53.5697
579.926	49.4069
579.978	49.3839
580.03	48.1176
580.082	50.2227
580.134	49.2315
580.186	49.7729
580.238	51.8945
580.29	49.1118
580.342	50.1917
580.394	52.3022
580.446	51.0184
580.498	51.8161
580.55	51.778
580.602	48.3464
580.654	52.2687
580.706	55.0004
580.758	51.4246
580.81	48.6828
580.862	51.9223
580.914	48.3035
580.966	49.0463
581.018	50.7111
581.07	50.8241
581.122	50.7542
581.174	51.3249
581.226	53.7665
581.278	53.5917
581.33	52.3783
581.382	50.9362
581.434	53.5144
581.486	55.923
581.538	53.3764
581.59	54.5441
581.642	51.7992
581.694	54.2461
581.746	52.5825
581.798	51.0132
581.85	51.4789
581.902	58.3398
581.954	60.7048
582.006	56.1772
582.058	54.9408
582.11	62.2343
582.162	60.0565
582.214	59.8592
582.266	57.4855
582.318	57.2777
582.37	60.7814
582.422	61.2138
582.474	55.4998
582.526	60.2901
582.578	60.7959
582.63	63.3927
582.682	61.3117
582.734	61.0582
582.786	60.2922
582.838	65.8809
582.89	62.0227
582.942	58.5389
582.994	61.0163
583.046	63.2874
583.098	64.8696
583.15	64.8513
583.202	64.1936
583.254	63.1462
583.306	64.2179
583.358	63.9818
583.41	63.3661
583.462	69.4711
583.514	63.6529
583.566	60.3206
583.618	65.6761
583.67	67.2944
583.721	64.678
583.773	63.3656
583.825	64.1978
583.877	65.4054
583.929	67.7645
583.981	68.5532
584.033	70.5499
584.085	66.0131
584.137	63.9891
584.189	71.8033
584.241	71.3716
584.293	72.4587
584.345	71.7201
584.397	73.3697
584.449	72.5817
584.501	72.3959
584.553	71.7383
584.605	71.7431
584.657	72.1609
584.709	73.1644
584.761	73.2148
584.813	74.8577
584.865	80.8083
584.917	78.7682
584.969	74.3882
585.021	77.9354
585.073	72.3924
585.125	75.0944
585.177	75.4369
585.229	69.6677
585.281	77.4944
585.332	81.349
585.384	76.4395
585.436	80.3065
585.488	78.4148
585.54	77.6228
585.592	78.5235
585.644	74.9527
585.696	79.2735
585.748	79.6632
585.8	77.747
585.852	78.4959
585.904	77.0386
585.956	77.4434
586.008	74.5952
586.06	75.226
586.112	81.7514
586.164	79.5044
586.216	75.0211
586.268	77.9992
586.32	81.3463
586.371	80.058
586.423	76.7485
586.475	75.9439
586.527	79.4535
586.579	80.4435
586.631	81.2858
586.683	81.3426
586.735	75.5196
586.787	75.4927
586.839	78.3017
586.891	79.9517
586.943	80.831
586.995	79.9359
587.047	82.1028
587.099	83.7152
587.151	82.2465
587.203	81.1884
587.255	77.6031
587.306	86.6382
587.358	87.8544
587.41	79.6
587.462	79.0268
587.514	83.7059
587.566	84.3917
587.618	83.9679
587.67	87.868
587.722	84.6128
587.774	80.6643
587.826	86.7936
587.878	88.808
587.93	83.1923
587.982	88.3163
588.034	86.6056
588.085	87.3739
588.137	90.1278
588.189	94.2645
588.241	90.0814
588.293	83.9953
588.345	87.7853
588.397	93.9156
588.449	92.6762
588.501	93.8936
588.553	95.8825
588.605	95.5738
588.657	94.5258
588.709	92.9168
588.76	97.3027
588.812	95.4321
588.864	88.8655
588.916	94.0875
588.968	102.703
589.02	100.616
589.072	95.4794
589.124	106.331
589.176	103.466
589.228	107.244
589.28	104.59
589.332	110.973
589.383	110.348
589.435	112.891
589.487	109.793
589.539	108.455
589.591	107.523
589.643	109.213
589.695	108.575
589.747	108.994
589.799	110.668
589.851	110.531
589.903	97.8865
589.955	94.712
590.006	101.153
590.058	104.232
590.11	99.1346
590.162	103.159
590.214	103.488
590.266	99.5605
590.318	97.9509
590.37	100.473
590.422	98.8161
590.474	102.279
590.525	97.0319
590.577	105.472
590.629	103.912
590.681	102.881
590.733	97.178
590.785	93.626
590.837	97.0045
590.889	95.8578
590.932	90.0132
590.984	95.9756
591.036	89.0378
591.088	91.9596
591.14	100.84
591.192	87.9117
591.244	85.0229
591.296	92.7971
591.348	84.0262
591.4	90.767
591.452	91.9884
591.504	85.3098
591.556	81.2135
591.608	84.9154
591.66	86.7304
591.712	84.9459
591.764	84.7244
591.816	81.8752
591.868	82.5132
591.92	75.8314
591.972	83.5757
592.024	80.6857
592.076	73.7679
592.128	69.208
592.18	73.7408
592.232	78.9022
592.284	72.9579
592.336	81.5373
592.388	79.9552
592.44	72.6873
592.492	78.4372
592.544	81.2182
592.596	74.4622
592.648	72.7658
592.7	81.2944
592.752	73.9837
592.804	75.6469
592.856	86.8823
592.908	76.1074
592.96	79.6883
593.012	72.0612
593.064	77.4889
593.116	82.114
593.168	74.4855
593.22	79.0734
593.272	74.3183
593.324	76.8996
593.376	72.0359
593.428	74.5581
593.479	69.635
593.531	80.2576
593.583	77.9834
593.635	75.3424
593.687	73.8789
593.739	78.6982
593.791	75.2542
593.843	70.0922
593.895	72.5299
593.947	74.9335
593.999	71.9173
594.051	62.6521
594.103	71.8599
594.155	71.4638
594.207	68.3379
594.259	66.8881
594.311	75.9099
594.363	76.8078
594.415	72.6279
594.467	73.7896
594.519	72.8791
594.571	75.9436
594.623	74.0926
594.675	77.3234
594.727	71.0942
594.779	77.0824
594.831	71.3996
594.883	73.238
594.935	78.0073
594.986	74.3
595.038	68.1404
595.09	72.5556
595.142	76.9468
595.194	79.8801
595.246	74.0196
595.298	73.3043
595.35	73.62
595.402	78.5865
595.454	73.0331
595.506	76.6274
595.558	77.3698
595.61	77.102
595.662	67.4785
595.714	77.1531
595.766	79.3921
595.818	77.3125
595.87	70.8889
595.922	72.4449
595.974	74.8869
596.026	78.5092
596.077	73.7887
596.129	78.0941
596.181	80.6383
596.233	78.4705
596.285	76.1949
596.337	78.5133
596.389	84.2659
596.441	80.743
596.493	89.4473
596.545	89.8359
596.597	83.333
596.649	89.3048
596.701	87.3622
596.753	86.1631
596.805	83.5559
596.857	83.3694
596.909	76.1796
596.96	72.4757
597.012	73.5731
597.064	70.1516
597.116	71.064
597.168	71.0232
597.22	72.5274
597.272	72.1728
597.324	69.5038
597.376	71.7717
597.428	74.2248
597.48	70.6194
597.532	65.3849
597.584	75.747
597.636	70.2334
597.688	67.2103
597.739	69.0158
597.791	68.9752
597.843	71.9031
597.895	67.4311
597.947	68.3922
597.999	71.9991
598.051	68.2141
598.103	64.7784
598.155	60.1387
598.207	67.4503
598.259	68.4671
598.311	65.9002
598.363	67.1814
598.414	69.1097
598.466	67.1654
598.518	63.2843
598.57	63.8637
598.622	65.5985
598.674	63.9199
598.726	58.9828
598.778	61.766
598.83	66.9391
598.882	66.3248
598.934	58.356
598.986	58.2403
599.037	65.4898
599.089	63.0176
599.141	62.6677
599.193	67.564
599.245	61.542
599.297	65.6102
599.349	57.6496
599.401	59.7856
599.453	67.3391
599.505	65.4264
599.557	64.2647
599.609	63.7751
599.66	67.8419
599.712	64.8012
599.764	66.0047
599.816	60.5247
599.868	59.4776
599.92	62.1806
599.972	60.3935
600.024	62.0813
600.076	63.6841
600.128	60.3056
600.18	59.0012
600.231	64.5404
600.283	58.6249
600.335	57.3279
600.387	58.9255
600.439	59.9325
600.491	59.9287
600.543	53.9635
600.595	56.7279
600.647	60.6095
600.699	56.4114
600.75	56.4367
600.802	58.3828
600.854	62.0264
600.906	63.6821
600.958	60.8814
601.01	58.817
601.062	63.727
601.114	62.7445
601.166	63.4505
601.217	61.6414
601.269	51.8142
601.321	59.62
601.373	58.0099
601.425	62.0974
601.477	63.529
601.529	62.7265
601.581	57.0499
601.633	59.7029
601.685	54.5377
601.736	58.1486
601.788	59.4276
601.84	60.5057
601.892	61.8633
601.944	59.4483
601.996	57.3587
602.048	57.4858
602.1	57.432
602.151	61.1919
602.203	62.3601
602.255	59.9408
602.307	62.1657
602.359	61.7193
602.411	60.8159
602.463	60.4977
602.515	58.2483
602.567	61.1706
602.618	57.5641
602.67	59.9698
602.722	56.6536
602.774	59.2425
602.826	62.2025
602.878	58.4411
602.93	59.464
602.982	58.814
603.033	61.0049
603.085	67.223
603.137	65.5922
603.189	66.2898
603.241	64.2222
603.293	63.619
603.345	62.6846
603.396	62.642
603.448	62.4884
603.5	61.635
603.552	61.632
603.604	64.2072
603.656	59.3825
603.708	59.7413
603.76	63.0214
603.811	61.1861
603.863	57.3554
603.915	56.8416
603.967	63.5134
604.019	59.1855
604.071	61.4593
604.123	67.7018
604.174	65.2057
604.226	65.2406
604.278	64.3849
604.33	60.7071
604.382	60.9353
604.434	60.9754
604.486	61.8561
604.538	67.8359
604.589	70.0454
604.641	62.7278
604.693	62.5054
604.745	65.9851
604.797	66.2532
604.849	62.208
604.901	61.1962
604.952	64.104
605.004	68.3163
605.056	65.6932
605.108	63.9473
605.16	63.0077
605.212	67.1525
605.263	67.2345
605.315	60.8215
605.367	65.8223
605.419	63.7598
605.471	62.3416
605.523	66.9633
605.575	64.7895
605.626	64.9338
605.678	61.8149
605.73	63.7205
605.782	67.5285
605.834	65.2213
605.886	64.6643
605.938	61.7127
605.989	59.9169
606.041	59.9243
606.093	65.3577
606.145	63.1758
606.197	65.1778
606.249	65.6616
606.3	63.8165
606.352	67.3123
606.404	64.7779
606.456	64.1233
606.508	66.1075
606.56	64.3886
606.611	61.4567
606.663	64.8636
606.715	67.9692
606.767	66.1006
606.819	65.7796
606.871	65.0718
606.922	63.8473
606.974	60.6005
607.026	64.4009
607.078	64.73
607.13	63.61
607.182	65.1196
607.233	64.2876
607.285	65.9255
607.337	67.7657
607.389	61.7561
607.441	64.0526
607.493	66.1218
607.544	68.0719
607.596	70.4384
607.648	69.0897
607.7	64.1918
607.752	64.7545
607.803	64.7437
607.855	66.6327
607.907	68.3965
607.959	61.4535
608.011	62.9682
608.063	67.0964
608.114	65.0198
608.166	69.1731
608.218	67.3344
608.27	64.4289
608.322	67.754
608.374	69.6599
608.425	67.0489
608.477	72.8008
608.529	69.5916
608.56	68.1041
608.612	65.7021
608.664	66.5853
608.716	70.7326
608.768	64.1279
608.82	67.993
608.872	69.3083
608.924	63.331
608.976	69.7375
609.027	69.0093
609.079	69.4046
609.131	65.4021
609.183	62.1818
609.235	65.8707
609.287	75.0992
609.339	66.1911
609.391	66.365
609.443	70.2521
609.495	70.9984
609.547	69.1677
609.598	71.7777
609.65	66.335
609.702	70.7377
609.754	70.2234
609.806	60.0853
609.858	66.4
609.91	65.3059
609.962	67.1565
610.014	64.1418
610.065	72.7006
610.117	74.321
610.169	64.5841
610.221	64.0467
610.273	66.4996
610.325	73.3938
610.377	74.6289
610.429	64.378
610.481	65.6368
610.533	69.8798
610.584	66.218
610.636	63.3315
610.688	67.1231
610.74	71.589
610.792	62.8685
610.844	66.9675
610.896	69.3186
610.948	69.9818
611	68.666
611.052	67.1514
611.103	74.0894
611.155	66.479
611.207	68.3214
611.259	64.2062
611.311	70.197
611.363	66.242
611.415	62.5099
611.467	73.0069
611.518	78.5263
611.57	70.4593
611.622	72.0452
611.674	61.6063
611.726	73.3115
611.778	68.3652
611.83	65.0286
611.882	70.781
611.934	76.4464
611.985	63.9142
612.037	73.3204
612.089	66.841
612.141	67.0628
612.193	67.8709
612.245	65.769
612.297	67.0301
612.349	75.7054
612.4	65.1671
612.452	65.9971
612.504	67.2906
612.556	71.1225
612.608	70.9311
612.66	68.8916
612.712	73.1317
612.764	69.7126
612.815	70.4857
612.867	62.0925
612.919	65.7478
612.971	69.8532
613.023	66.4696
613.075	65.8117
613.127	75.6893
613.179	71.2039
613.23	64.4113
613.282	62.7922
613.334	68.0161
613.386	72.6601
613.438	69.6143
613.49	65.208
613.542	72.0155
613.594	70.2586
613.645	65.2315
613.697	68.2535
613.749	71.5389
613.801	68.6357
613.853	73.9155
613.905	70.6106
613.957	72.4137
614.008	71.5241
614.06	67.9254
614.112	65.4856
614.164	70.5172
614.216	64.0668
614.268	71.4509
614.32	69.5457
614.371	72.1798
614.423	67.9015
614.475	69.4363
614.527	65.0733
614.579	67.6042
614.631	72.7732
614.683	66.7063
614.734	61.9692
614.786	67.526
614.838	67.3471
614.89	71.0065
614.942	67.6622
614.994	70.7459
615.045	71.5508
615.097	73.6495
615.149	64.7779
615.201	71.0074
615.253	63.4225
615.305	58.8344
615.357	73.6315
615.408	71.4738
615.46	69.4985
615.512	73.5084
615.564	71.8914
615.616	72.5871
615.668	76.7042
615.719	73.2141
615.771	69.0302
615.823	72.2154
615.875	78.8407
615.927	72.3371
615.979	67.4341
616.031	69.5442
616.082	64.6844
616.134	65.2919
616.186	70.2147
616.238	76.8065
616.29	71.2319
616.342	73.2823
616.393	76.9095
616.445	71.6317
616.497	72.5447
616.549	64.0563
616.601	75.6726
616.653	73.7829
616.704	68.7658
616.756	71.2943
616.808	70.1166
616.86	69.3444
616.912	72.2618
616.964	73.152
617.015	69.3994
617.067	77.0671
617.119	71.7502
617.171	72.8324
617.223	75.9393
617.274	81.4598
617.326	74.3715
617.378	73.2595
617.43	76.0275
617.482	70.1573
617.534	80.2981
617.585	75.5928
617.637	78.2135
617.689	75.1923
617.741	71.8993
617.793	66.463
617.845	74.5926
617.896	71.4483
617.948	74.4376
618	72.4355
618.052	75.8034
618.104	71.031
618.155	69.8078
618.207	67.1957
618.259	81.7232
618.311	74.9917
618.363	75.623
618.415	67.6373
618.466	80.7109
618.518	77.8949
618.57	75.3206
618.622	71.3736
618.674	69.685
618.725	67.3875
618.777	70.4827
618.829	75.7021
618.881	76.4045
618.933	77.2155
618.984	79.0613
619.036	71.7874
619.088	75.2239
619.14	75.1292
619.192	69.791
619.244	70.3973
619.295	75.2391
619.347	74.1161
619.399	73.7796
619.451	68.6582
619.503	76.3972
619.554	75.2859
619.606	70.145
619.658	72.0267
619.71	78.6213
619.762	79.7033
619.813	68.0023
619.865	71.7162
619.917	72.2732
619.969	78.1609
620.021	69.6169
620.072	76.9729
620.124	76.2293
620.176	73.5985
620.228	72.7028
620.279	73.0191
620.331	69.5151
620.383	75.0903
620.435	68.7262
620.487	75.2497
620.538	80.7492
620.59	75.5938
620.642	77.2472
620.694	76.9309
620.746	80.1464
620.797	76.7695
620.849	72.586
620.901	80.0667
620.953	77.3081
621.005	74.0879
621.056	72.6403
621.108	72.366
621.16	80.2056
621.212	75.055
621.263	73.4617
621.315	74.5009
621.367	79.6433
621.419	71.9945
621.471	66.3989
621.522	73.9421
621.574	77.1871
621.626	76.2899
621.678	73.6962
621.729	69.6665
621.781	74.1061
621.833	72.1919
621.885	72.6307
621.937	74.5689
621.988	76.6348
622.04	79.4662
622.092	74.4717
622.144	79.1831
622.195	76.6816
622.247	74.5625
622.299	71.1115
622.351	79.373
622.403	76.0364
622.454	73.4697
622.506	73.4906
622.558	71.3606
622.61	69.0375
622.661	73.2679
622.713	79.1842
622.765	77.8786
622.817	79.9366
622.869	80.1426
622.92	72.3718
622.972	74.1128
623.024	78.0744
623.076	72.7729
623.127	76.6115
623.179	75.8083
623.231	72.2321
623.283	74.7518
623.334	73.6927
623.386	77.8894
623.438	77.6117
623.49	67.3585
623.541	73.3927
623.593	79.3175
623.645	81.4279
623.697	75.44
623.748	71.7807
623.8	77.4933
623.852	80.9379
623.904	76.9049
623.956	71.8277
624.007	73.45
624.059	77.0042
624.111	78.7858
624.162	75.8882
624.214	74.9873
624.266	81.7255
624.318	80.0211
624.37	73.7194
624.421	74.97
624.473	73.9224
624.525	71.0399
624.576	78.0492
624.628	77.1654
624.68	78.7571
624.732	77.9662
624.784	76.2009
624.835	74.7202
624.887	77.8303
624.939	77.5014
624.99	72.5792
625.042	73.208
625.094	76.6998
625.146	70.6388
625.197	69.6431
625.249	76.7199
625.301	78.4168
625.353	80.0403
625.404	74.0289
625.456	78.1752
625.508	78.4637
625.56	74.9266
625.611	73.877
625.663	73.3824
625.715	72.2274
625.767	75.0246
625.818	74.4219
625.87	75.1192
625.922	69.9257
625.974	67.9121
626.025	69.2735
626.077	72.0773
626.129	72.5352
626.18	77.7879
626.197	75.9378
626.249	70.0271
626.3	78.5086
626.352	78.9895
626.404	78.9774
626.456	76.4576
626.508	75.4175
626.56	76.9674
626.611	74.9396
626.663	76.8416
626.715	77.8449
626.767	73.5029
626.819	71.3408
626.87	72.1358
626.922	76.3584
626.974	83.1122
627.026	75.2351
627.078	75.6332
627.13	76.3681
627.181	75.4648
627.233	73.9673
627.285	70.4266
627.337	79.8047
627.389	79.6507
627.44	67.0704
627.492	80.2927
627.544	73.8216
627.596	70.4775
627.648	75.2525
627.7	73.7251
627.751	81.679
627.803	74.4371
627.855	80.09
627.907	74.1947
627.959	81.4512
628.01	74.2866
628.062	73.2115
628.114	76.3748
628.166	75.2434
628.218	75.0091
628.27	70.5132
628.321	72.2906
628.373	81.8476
628.425	78.0571
628.477	75.4863
628.529	76.6716
628.58	80.016
628.632	76.1986
628.684	68.3036
628.736	68.8835
628.788	80.8107
628.839	74.3333
628.891	78.5402
628.943	75.7791
628.995	77.5616
629.047	75.3508
629.098	76.9457
629.15	74.2493
629.202	76.6542
629.254	70.8405
629.306	75.0512
629.357	79.3125
629.409	81.2285
629.461	79.6493
629.513	80.4123
629.565	76.2663
629.616	79.8468
629.668	71.6597
629.72	72.6217
629.772	73.7713
629.824	81.1565
629.875	79.8698
629.927	78.721
629.979	76.0347
630.031	78.9541
630.083	79.1651
630.134	73.3932
630.186	70.104
630.238	72.7674
630.29	75.3297
630.342	76.7628
630.393	73.4524
630.445	77.6625
630.497	79.5655
630.549	80.2442
630.6	74.4714
630.652	74.2194
630.704	74.1255
630.756	76.4921
630.808	76.7484
630.859	76.5856
630.911	78.6645
630.963	76.1679
631.015	78.6364
631.067	79.6646
631.118	78.033
631.17	72.6099
631.222	76.5245
631.274	77.8627
631.325	77.1352
631.377	73.7361
631.429	85.5508
631.481	79.1263
631.533	72.145
631.584	73.4229
631.636	81.2002
631.688	83.0277
631.74	75.9805
631.791	68.2621
631.843	74.5406
631.895	78.1968
631.947	78.8353
631.999	73.5678
632.05	74.8581
632.102	76.5538
632.154	82.6721
632.206	75.6634
632.257	75.4772
632.309	81.1234
632.361	79.3989
632.413	80.8848
632.464	77.3645
632.516	77.1607
632.568	78.5837
632.62	77.5358
632.672	76.3746
632.723	73.0414
632.775	74.1588
632.827	70.1337
632.879	75.6436
632.93	81.898
632.982	78.9103
633.034	73.156
633.086	76.2407
633.137	80.1678
633.189	78.4805
633.241	77.0318
633.293	82.3974
633.344	72.0839
633.396	68.5681
633.448	76.2488
633.5	80.0296
633.551	80.4723
633.603	76.2691
633.655	69.7234
633.707	80.5453
633.758	85.4596
633.81	79.8337
633.862	75.227
633.914	78.6043
633.965	73.4476
634.017	73.2271
634.069	77.0376
634.121	81.005
634.172	82.9815
634.224	80.9947
634.276	77.2271
634.328	82.9114
634.379	77.6575
634.431	77.8404
634.483	74.8082
634.535	80.936
634.586	78.0134
634.638	78.2226
634.69	77.6317
634.742	79.3092
634.793	81.1793
634.845	76.138
634.897	73.7405
634.949	80.3255
635	83.3904
635.052	71.2603
635.104	69.3165
635.156	82.4506
635.207	80.881
635.259	77.3838
635.311	77.9251
635.363	77.583
635.414	78.9984
635.466	72.3973
635.518	79.3119
635.57	83.2889
635.621	80.1723
635.673	73.9445
635.725	79.8613
635.776	82.3372
635.828	78.2487
635.88	73.2549
635.932	76.6938
635.983	77.2952
636.035	79.304
636.087	72.1339
636.139	82.7805
636.19	76.8328
636.242	78.3428
636.294	73.7098
636.345	78.7145
636.397	81.7704
636.449	81.3647
636.501	80.6888
636.552	85.0582
636.604	75.8151
636.656	73.6772
636.708	76.4336
636.759	76.372
636.811	81.0409
636.863	74.929
636.914	70.1154
636.966	75.6524
637.018	80.7533
637.07	85.8817
637.121	82.5821
637.173	82.9959
637.225	85.4798
637.276	82.6727
637.328	77.492
637.38	85.0971
637.432	88.207
637.483	79.7542
637.535	77.0375
637.587	75.1426
637.638	85.8144
637.69	78.042
637.742	79.0885
637.794	83.5207
637.845	82.7269
637.897	81.5754
637.949	80.9349
638	76.9925
638.052	82.4292
638.104	79.7697
638.156	84.1906
638.207	82.1826
638.259	87.4426
638.311	81.8188
638.362	82.0622
638.414	87.9592
638.466	89.0325
638.517	82.5214
638.569	79.8464
638.621	82.7817
638.673	79.4755
638.724	77.2096
638.776	74.741
638.828	77.1949
638.879	85.3034
638.931	83.0886
638.983	76.5698
639.034	81.6453
639.086	78.9978
639.138	81.2658
639.19	83.6491
639.241	84.0389
639.293	83.529
639.345	85.2151
639.396	76.6342
639.448	80.3823
639.5	83.381
639.551	76.8256
639.603	84.2471
639.655	80.5615
639.706	82.1554
639.758	87.2198
639.81	74.6906
639.862	82.932
639.913	81.6841
639.965	65.7487
640.017	80.9379
640.068	83.44
640.12	88.359
640.172	72.2274
640.223	77.816
640.275	83.4649
640.327	83.1689
640.378	81.9252
640.43	80.5507
640.482	79.6914
640.533	81.673
640.585	77.6323
640.637	80.0964
640.688	82.2267
640.74	78.7676
640.792	84.3026
640.844	79.3427
640.895	83.6849
640.947	81.7137
640.999	79.8233
641.05	72.974
641.102	74.7428
641.154	84.1326
641.205	74.66
641.257	81.7618
641.309	84.7265
641.36	86.6577
641.412	73.0161
641.464	74.7204
641.515	78.1917
641.567	84.4079
641.619	75.2604
641.67	75.8544
641.722	82.5563
641.774	75.1938
641.825	72.1594
641.877	78.8877
641.929	78.2709
641.98	78.3522
642.032	70.6775
642.084	78.4837
642.135	77.893
642.187	77.0296
642.239	75.4147
642.29	81.0114
642.342	80.6886
642.394	79.0022
642.445	72.4387
642.497	78.9612
642.549	83.7487
642.6	76.7018
642.652	79.3952
642.704	75.5277
642.755	82.2223
642.807	72.4141
642.859	77.1041
642.91	74.4172
642.962	78.272
643.013	75.6121
643.065	72.7173
643.117	77.8717
643.168	81.5989
643.22	78.7024
643.272	70.5555
643.323	78.4817
643.375	76.6977
643.427	78.5876
643.478	75.7696
643.53	75.4234
643.582	77.9981
643.633	83.0733
643.685	76.3225
643.737	82.829
643.788	79.0354
643.84	78.4984
643.891	82.9947
643.898	84.1827
643.949	86.0043
644.001	85.7571
644.053	77.1359
644.105	76.3311
644.156	77.5753
644.208	81.5356
644.26	79.2644
644.312	76.0212
644.363	70.5237
644.415	75.0571
644.467	69.4431
644.519	75.9764
644.57	78.0658
644.622	75.3997
644.674	82.0292
644.726	70.3708
644.777	78.5778
644.829	76.9001
644.881	73.2739
644.932	75.1183
644.984	76.9183
645.036	83.7466
645.088	78.1205
645.139	79.9905
645.191	76.015
645.243	76.568
645.295	72.6814
645.346	78.0241
645.398	76.9539
645.45	82.7845
645.502	75.2348
645.553	78.1879
645.605	84.3161
645.657	75.9009
645.708	75.6234
645.76	77.938
645.812	78.1805
645.864	79.2385
645.915	74.438
645.967	75.26
646.019	76.6789
646.071	74.8993
646.122	76.2654
646.174	85.0371
646.226	78.6891
646.277	73.2464
646.329	73.8391
646.381	77.0283
646.433	77.8376
646.484	77.5631
646.536	71.0666
646.588	81.8867
646.639	74.6164
646.691	77.3052
646.743	73.0328
646.795	78.1023
646.846	82.1072
646.898	69.4028
646.95	76.9761
647.001	77.2629
647.053	74.1754
647.105	81.3514
647.157	72.2481
647.208	71.0448
647.26	79.2506
647.312	77.2076
647.363	77.2899
647.415	77.611
647.467	74.4343
647.519	82.9927
647.57	74.0944
647.622	78.1915
647.674	82.0335
647.725	78.262
647.777	73.2553
647.829	81.8511
647.881	83.0986
647.932	80.9024
647.984	72.6664
648.036	77.1934
648.087	79.5496
648.139	80.5463
648.191	77.0192
648.242	82.9861
648.294	77.7327
648.346	84.2224
648.398	75.1602
648.449	79.4743
648.501	68.3801
648.553	74.4828
648.604	72.2899
648.656	76.8983
648.708	75.4956
648.759	77.704
648.811	72.1164
648.863	74.0775
648.914	76.7169
648.966	77.5428
649.018	76.183
649.07	77.2329
649.121	76.204
649.173	79.062
649.225	74.0869
649.276	77.4169
649.328	81.4093
649.38	76.5646
649.431	77.6421
649.483	83.348
649.535	78.8549
649.586	70.7531
649.638	77.7452
649.69	71.6867
649.742	82.6818
649.793	73.2255
649.845	68.5149
649.897	74.5459
649.948	79.3826
650	73.0584
650.052	74.9104
650.103	83.731
650.155	80.08
650.207	78.2891
650.258	77.8356
650.31	80.2946
650.362	80.8191
650.413	72.3881
650.465	75.9389
650.517	77.2834
650.568	79.7667
650.62	68.1904
650.672	82.3204
650.723	81.7336
650.775	76.1193
650.827	71.74
650.878	75.2919
650.93	73.8029
650.982	76.4923
651.034	73.9832
651.085	79.4361
651.137	78.7091
651.189	78.4815
651.24	72.7145
651.292	75.6799
651.344	73.0325
651.395	78.3502
651.447	67.8822
651.499	73.8004
651.55	75.3877
651.602	77.1876
651.654	73.9432
651.705	81.4584
651.757	77.7172
651.809	76.1968
651.86	71.6078
651.912	80.5286
651.964	77.7544
652.015	73.8382
652.067	73.6862
652.118	77.7299
652.17	74.9258
652.222	76.3474
652.273	76.0899
652.325	76.6691
652.377	74.7713
652.428	78.757
652.48	71.1723
652.532	76.0332
652.583	83.8524
652.635	80.9873
652.687	71.969
652.738	76.7458
652.79	80.8274
652.842	78.4757
652.893	73.9082
652.945	80.6216
652.997	74.1125
653.048	72.9125
653.1	70.357
653.152	73.9965
653.203	75.7568
653.255	74.7732
653.307	75.4588
653.358	79.7797
653.41	79.8704
653.461	75.1351
653.513	69.0985
653.565	71.5912
653.616	75.5431
653.668	71.8083
653.72	76.5212
653.771	79.203
653.823	76.0334
653.875	76.5177
653.926	75.5712
653.978	73.7436
654.029	73.5806
654.081	76.4495
654.133	74.5212
654.184	75.9172
654.236	76.8037
654.288	73.3167
654.339	79.8964
654.391	79.7512
654.443	76.0959
654.494	74.7813
654.546	74.9781
654.597	78.0422
654.649	76.6359
654.701	72.0051
654.752	77.5297
654.804	80.8526
654.856	82.3561
654.907	79.55
654.959	77.1172
655.01	83.0569
655.062	75.3144
655.114	71.1817
655.165	76.0768
655.217	74.7819
655.269	80.5567
655.32	65.4932
655.372	74.9958
655.424	74.3708
655.475	73.7061
655.527	71.3539
655.578	78.6578
655.63	78.5833
655.682	74.6363
655.733	67.6441
655.785	75.7227
655.836	80.4796
655.888	78.0316
655.94	72.9919
655.991	73.8564
656.043	72.7047
656.095	76.7353
656.146	75.2194
656.198	77.6364
656.249	79.027
656.301	78.4093
656.353	76.2915
656.404	84.2328
656.456	79.9328
656.508	76.1031
656.559	80.4596
656.611	77.4816
656.662	80.351
656.714	76.4362
656.766	69.3808
656.817	78.7506
656.869	77.8913
656.92	78.2462
656.972	72.8128
657.024	75.152
657.075	76.9651
657.127	77.7252
657.178	76.2032
657.23	83.6882
657.282	77.1661
657.333	76.5345
657.385	75.5792
657.436	74.9014
657.488	83.7613
657.54	82.4475
657.591	77.4385
657.643	77.1849
657.694	78.1263
657.746	74.5176
657.798	77.1695
657.849	78.8415
657.901	81.3028
657.952	77.1642
658.004	77.5183
658.056	80.3193
658.107	78.4133
658.159	72.6529
658.21	74.2657
658.262	82.107
658.314	84.6399
658.365	73.7253
658.417	77.6683
658.468	78.5495
658.52	74.7203
658.571	71.1489
658.623	73.3771
658.675	75.8059
658.726	82.0588
658.778	72.9716
658.829	75.7104
658.881	79.2071
658.933	79.8686
658.984	80.6908
659.036	78.5268
659.087	80.1269
659.139	83.8603
659.19	72.7255
659.242	76.2112
659.294	78.0966
659.345	81.6612
659.397	74.8642
659.448	70.557
659.5	75.5065
659.552	77.7509
659.603	76.5556
659.655	71.6503
659.706	79.3552
659.758	79.4897
659.809	74.1752
659.861	74.7368
659.913	79.5794
659.964	79.5565
660.016	78.0402
660.067	77.9372
660.119	80.9114
660.17	76.4023
660.222	68.5569
660.274	74.4007
660.325	76.6666
660.377	71.458
660.428	76.9296
660.48	71.4104
660.531	81.2319
660.583	79.3141
660.635	70.8065
660.686	79.1985
660.738	79.3452
660.789	72.0488
660.841	70.0048
660.892	75.236
660.944	77.6024
660.995	78.9502
661.047	74.3142
661.099	79.1273
661.15	74.8903
661.202	66.9663
661.253	71.4988
661.305	77.2625
661.356	79.9665
661.408	78.2187
661.46	75.3101
661.511	77.2883
661.532	78.4475
661.583	75.3066
661.635	69.8378
661.687	75.7729
661.738	76.9279
661.79	76.3931
661.842	69.6027
661.893	73.5456
661.945	78.5818
661.997	75.3663
662.048	67.1167
662.1	72.2489
662.151	79.2671
662.203	77.0621
662.255	68.4072
662.306	68.935
662.358	72.6017
662.41	74.0017
662.461	72.247
662.513	78.3974
662.565	73.7382
662.616	80.74
662.668	72.952
662.72	72.6086
662.771	72.2725
662.823	75.6252
662.875	72.3118
662.926	78.8784
662.978	76.0521
663.03	76.6209
663.081	71.6035
663.133	74.0203
663.184	80.3936
663.236	72.7659
663.288	70.49
663.339	81.6469
663.391	78.1764
663.443	76.8493
663.494	70.1069
663.546	72.6116
663.598	74.7822
663.649	68.4065
663.701	71.3503
663.752	73.4869
663.804	77.6237
663.856	78.0525
663.907	76.6851
663.959	77.6931
664.011	76.0151
664.062	69.1175
664.114	75.7756
664.166	76.1424
664.217	77.6206
664.269	73.0139
664.32	74.1441
664.372	79.6784
664.424	79.0072
664.475	68.7892
664.527	71.837
664.579	72.4672
664.63	74.3298
664.682	73.9381
664.733	72.4387
664.785	77.3086
664.837	72.8554
664.888	75.5302
664.94	69.6704
664.992	76
665.043	75.0687
665.095	71.1755
665.146	72.7903
665.198	76.9977
665.25	76.5415
665.301	69.4237
665.353	70.8711
665.405	79.4951
665.456	73.5975
665.508	63.7901
665.559	71.5543
665.611	72.018
665.663	79.5098
665.714	73.5641
665.766	75.2017
665.817	80.915
665.869	78.8485
665.921	75.3729
665.972	64.3787
666.024	74.2767
666.076	77.1251
666.127	69.4192
666.179	74.1146
666.23	80.8648
666.282	69.0704
666.334	68.2465
666.385	77.8351
666.437	76.6658
666.488	67.8553
666.54	67.6959
666.592	71.2587
666.643	73.1356
666.695	71.8758
666.746	63.7993
666.798	76.1943
666.85	75.4053
666.901	79.5803
666.953	68.5812
667.004	75.3805
667.056	78.7072
667.108	76.8235
667.159	70.0063
667.211	72.1303
667.262	67.435
667.314	74.8541
667.366	72.976
667.417	73.4268
667.469	70.5535
667.52	78.4806
667.572	59.7016
667.624	70.1325
667.675	76.6916
667.727	68.7121
667.778	76.6842
667.83	69.3199
667.882	71.8064
667.933	73.4068
667.985	65.9479
668.036	75.1352
668.088	76.8589
668.14	74.4178
668.191	74.2622
668.243	71.9333
668.294	74.917
668.346	70.1208
668.397	66.9101
668.449	72.9521
668.501	77.4037
668.552	72.0158
668.604	72.7791
668.655	73.2484
668.707	68.7171
668.759	63.1163
668.81	72.7844
668.862	75.9717
668.913	73.9411
668.965	64.6267
669.016	68.9161
669.068	77.6645
669.12	72.2485
669.171	63.1957
669.223	68.9832
669.274	71.1558
669.326	70.5147
669.377	68.4741
669.429	65.9326
669.481	73.924
669.532	85.7692
669.584	72.6191
669.635	67.3843
669.687	72.5314
669.738	69.9482
669.79	70.1266
669.842	74.2021
669.893	71.9242
669.945	75.6121
669.996	66.1067
670.048	70.0825
670.099	68.2327
670.151	69.7088
670.203	72.0642
670.254	70.3149
670.306	75.5181
670.357	72.5222
670.409	69.45
670.46	70.6011
670.512	76.0444
670.564	72.2419
670.615	74.0933
670.667	70.083
670.718	68.3096
670.77	70.0557
670.821	64.8736
670.873	68.1618
670.924	69.254
670.976	68.7804
671.028	72.4614
671.079	72.6649
671.131	71.3756
671.182	74.7543
671.234	70.3417
671.285	70.3931
671.337	74.9957
671.388	73.2216
671.44	74.7874
671.492	73.6854
671.543	74.0196
671.595	72.0872
671.646	65.9577
671.698	70.6549
671.749	72.6945
671.801	70.4047
671.852	69.7739
671.904	65.1829
671.956	63.8874
672.007	64.2985
672.059	70.5793
672.11	70.6207
672.162	71.2232
672.213	67.0586
672.265	66.8491
672.316	71.4652
672.368	68.8537
672.419	66.0786
672.471	71.0903
672.522	69.9721
672.574	72.2842
672.626	67.3467
672.677	64.6403
672.729	70.5187
672.78	72.3072
672.832	68.4638
672.883	71.488
672.935	72.0961
672.986	72.1038
673.038	71.4903
673.089	72.4644
673.141	74.7021
673.192	72.8977
673.244	66.6678
673.296	69.3157
673.347	74.3939
673.399	68.2566
673.45	68.1395
673.502	65.2245
673.553	68.2339
673.605	72.7243
673.656	68.1861
673.708	72.7887
673.759	70.59
673.811	66.9986
673.862	66.7586
673.914	66.9055
673.965	73.2697
674.017	71.1258
674.068	69.468
674.12	66.4394
674.171	72.9684
674.223	74.4184
674.275	68.7566
674.326	67.1802
674.378	62.8424
674.429	66.9574
674.481	72.3856
674.532	74.4685
674.584	73.2048
674.635	72.0435
674.687	65.6494
674.738	76.5282
674.79	72.2372
674.841	73.3036
674.893	69.9384
674.944	68.1742
674.996	71.9342
675.047	67.2719
675.099	66.9042
675.15	71.204
675.202	71.659
675.253	72.469
675.305	69.5205
675.356	68.4566
675.408	73.0057
675.459	72.488
675.511	68.4751
675.562	72.027
675.614	69.7133
675.665	69.7762
675.717	66.8358
675.768	69.7493
675.82	76.4139
675.871	71.3508
675.923	76.021
675.974	74.086
676.026	76.2271
676.077	73.1168
676.129	73.7529
676.18	74.4927
676.232	72.5998
676.283	67.6496
676.335	69.1405
676.386	72.5908
676.438	70.6678
676.489	69.3184
676.541	74.5139
676.592	70.924
676.644	69.5343
676.695	67.9797
676.747	68.7963
676.798	73.1481
676.85	66.7438
676.901	69.8862
676.953	71.8985
677.004	68.8158
677.056	65.5011
677.107	65.2943
677.159	68.5337
677.21	71.357
677.262	69.3918
677.313	69.1066
677.365	72.7313
677.416	71.3594
677.468	72.1708
677.519	64.7924
677.571	68.4032
677.622	68.8116
677.674	72.7858
677.725	64.853
677.777	68.1688
677.828	66.7249
677.88	67.8106
677.931	71.9971
677.982	71.4008
678.034	74.7153
678.085	68.4442
678.137	68.4425
678.188	73.2772
678.24	69.3891
678.291	70.6404
678.343	70.2694
678.394	68.3908
678.446	67.6946
678.497	70.4447
678.549	63.0501
678.6	66.7259
678.652	67.6172
678.703	66.4602
678.755	61.6072
678.806	71.3236
678.857	75.4471
678.909	67.7075
678.96	71.6474
679.012	69.4575
679.063	66.9305
679.083	68.5596
679.135	70.2685
679.186	70.0742
679.238	71.9734
679.289	71.8923
679.341	68.7235
679.392	66.5198
679.444	70.8897
679.496	69.0294
679.547	71.8727
679.599	70.1301
679.65	66.0733
679.702	71.8342
679.753	70.2989
679.805	68.3721
679.857	67.3507
679.908	66.8608
679.96	64.5645
680.011	66.8013
680.063	63.0245
680.114	70.4852
680.166	67.3012
680.217	66.4083
680.269	70.1276
680.321	70.435
680.372	66.2559
680.424	67.0644
680.475	69.4406
680.527	68.8294
680.578	68.528
680.63	70.3485
680.682	70.2358
680.733	69.4973
680.785	70.6731
680.836	70.6586
680.888	75.8428
680.939	69.3634
680.991	68.2048
681.042	63.439
681.094	67.8083
681.146	63.395
681.197	70.0747
681.249	67.1144
681.3	72.959
681.352	69.2055
681.403	66.1778
681.455	67.5213
681.506	77.6012
681.558	72.2883
681.609	64.2887
681.661	74.055
681.712	72.9129
681.764	72.7505
681.816	72.0573
681.867	67.1546
681.919	73.2263
681.97	70.3123
682.022	69.8316
682.073	68.1163
682.125	67.9945
682.176	67.3851
682.228	65.6916
682.279	64.6616
682.331	72.2843
682.383	67.3794
682.434	64.7612
682.486	69.2348
682.537	70.105
682.589	71.8568
682.64	65.0458
682.692	67.5228
682.743	71.0736
682.795	68.0853
682.846	73.3183
682.898	76.6522
682.949	69.3583
683.001	69.9778
683.052	71.898
683.104	71.4929
683.156	69.2332
683.207	67.7624
683.259	67.6727
683.31	60.2164
683.362	63.9368
683.413	71.8666
683.465	73.321
683.516	64.8847
683.568	68.1405
683.619	68.8974
683.671	71.161
683.722	68.0688
683.774	65.4931
683.825	75.7671
683.877	72.0586
683.928	77.8918
683.98	65.6183
684.031	67.2459
684.083	67.5914
684.134	72.5922
684.186	72.2674
684.237	73.3633
684.289	69.7496
684.341	70.167
684.392	68.8941
684.444	59.5782
684.495	67.6202
684.547	71.324
684.598	67.7048
684.65	64.9244
684.701	68.4978
684.753	68.2012
684.804	70.7367
684.856	63.6748
684.907	71.3304
684.959	68.1153
685.01	69.5406
685.062	67.1323
685.113	66.2668
685.165	70.6285
685.216	62.3414
685.268	62.8401
685.319	68.6785
685.371	73.1778
685.422	62.8394
685.474	66.8158
685.525	63.1691
685.577	67.6375
685.628	63.1078
685.68	60.624
685.731	70.9311
685.783	72.713
685.834	62.0132
685.886	63.6873
685.937	62.7287
685.989	63.6054
686.04	68.1087
686.092	66.6127
686.143	71.5791
686.195	69.1903
686.246	67.1306
686.298	64.8417
686.349	64.6456
686.401	68.7239
686.452	67.478
686.504	65.9881
686.555	68.4982
686.607	65.5453
686.658	65.5608
686.71	61.6401
686.761	71.0159
686.813	62.0159
686.864	67.3521
686.916	69.1045
686.967	64.618
687.018	65.1391
687.07	70.8174
687.121	65.4933
687.173	69.9744
687.224	70.0326
687.276	72.8183
687.327	67.2843
687.379	65.6961
687.43	70.5573
687.482	65.7271
687.533	66.4215
687.585	70.3549
687.636	69.4075
687.688	66.0805
687.739	70.2808
687.791	64.1192
687.842	63.4881
687.894	66.9772
687.945	69.4366
687.997	67.334
688.048	71.3722
688.1	69.7973
688.151	65.7387
688.203	67.9331
688.254	63.8727
688.305	61.0488
688.357	62.0354
688.408	64.5431
688.46	70.3016
688.511	62.9954
688.563	62.6495
688.614	59.9701
688.666	61.0386
688.717	65.178
688.769	68.106
688.82	69.2281
688.872	61.384
688.923	64.8179
688.974	64.4213
689.026	68.362
689.077	68.3272
689.129	69.4082
689.18	74.5949
689.232	75.2932
689.283	63.45
689.335	60.0433
689.386	65.7387
689.438	68.5254
689.489	64.7851
689.541	65.8607
689.592	63.2999
689.643	61.0843
689.695	70.6276
689.746	59.6777
689.798	66.0289
689.849	70.5415
689.901	65.918
689.952	56.1196
690.004	66.9688
690.055	71.8766
690.107	64.555
690.158	58.2883
690.209	65.0623
690.261	68.7064
690.312	69.2051
690.364	64.9647
690.415	66.6555
690.467	65.3886
690.518	64.668
690.57	62.7977
690.621	65.1992
690.672	67.7093
690.724	67.7018
690.775	65.7742
690.827	70.9104
690.878	66.0396
690.93	60.6618
690.981	65.2849
691.033	68.8382
691.084	64.9133
691.135	66.294
691.187	63.1533
691.238	60.1584
691.29	66.7256
691.341	67.5896
691.393	67.2908
691.444	65.9612
691.495	64.8983
691.547	64.1646
691.598	66.1353
691.65	65.3145
691.701	65.2762
691.753	64.613
691.804	59.3246
691.856	66.0138
691.907	65.4579
691.958	66.7767
692.01	62.5319
692.061	67.2466
692.113	66.816
692.164	64.5022
692.216	64.5518
692.267	66.2053
692.318	70.5913
692.37	70.8876
692.421	70.2904
692.473	66.2224
692.524	68.5353
692.576	65.7062
692.627	60.6147
692.678	68.1637
692.73	69.3599
692.781	62.7148
692.833	68.4803
692.884	66.9311
692.935	59.972
692.987	60.4204
693.038	66.2699
693.09	65.6204
693.141	63.5496
693.193	60.6578
693.244	63.4075
693.295	65.9684
693.347	65.7018
693.398	62.4778
693.45	62.235
693.501	65.435
693.552	62.2397
693.604	59.6376
693.655	61.5239
693.707	62.4473
693.758	60.9341
693.809	64.5049
693.861	66.8229
693.912	68.9637
693.964	67.7118
694.015	64.1657
694.066	59.5785
694.118	66.3918
694.169	61.7341
694.221	59.9525
694.272	65.8478
694.323	62.1138
694.375	62.4253
694.426	62.8108
694.478	60.2374
694.529	66.8031
694.581	65.2133
694.632	62.07
694.683	65.2792
694.735	67.6576
694.786	64.4515
694.837	62.1906
694.889	62.6438
694.94	66.2877
694.992	64.4732
695.043	60.8039
695.094	66.7659
695.146	69.7779
695.197	64.2359
695.249	66.6859
695.3	67.5174
695.351	62.1391
695.403	65.6825
695.454	60.7878
695.506	65.9613
695.557	62.9625
695.608	62.0671
695.66	57.2671
695.711	64.4865
695.763	66.8278
695.814	68.6829
695.865	66.1831
695.917	67.714
695.968	65.2885
696.019	63.5027
696.071	60.5636
696.122	61.8094
696.174	61.9612
696.225	65.4637
696.276	67.8878
696.328	64.941
696.379	65.8469
696.43	60.6354
696.482	59.7389
696.533	65.8124
696.585	67.4622
696.636	63.4983
696.687	59.2238
696.707	63.4906
696.759	61.6564
696.81	60.4089
696.862	63.0804
696.913	63.3877
696.965	63.8991
697.016	68.8781
697.068	64.5898
697.119	66.3917
697.171	62.7356
697.222	59.9927
697.274	60.8162
697.325	65.2749
697.377	67.0003
697.428	62.1045
697.479	62.905
697.531	69.1512
697.582	66.6586
697.634	61.0111
697.685	61.3358
697.737	65.1082
697.788	64.6435
697.84	63.7608
697.891	62.1274
697.943	60.3007
697.994	65.3049
698.046	64.4496
698.097	67.2864
698.149	64.9442
698.2	64.3183
698.252	58.1858
698.303	64.1032
698.354	65.6495
698.406	60.7095
698.457	55.9615
698.509	56.6803
698.56	62.6038
698.612	62.1164
698.663	58.2605
698.715	58.7504
698.766	61.0662
698.818	59.721
698.869	57.3648
698.921	60.1277
698.972	63.3975
699.023	62.235
699.075	63.1853
699.126	60.2303
699.178	64.8682
699.229	65.8493
699.281	62.6167
699.332	62.7398
699.384	65.5689
699.435	60.0467
699.487	63.0084
699.538	58.8833
699.589	64.4995
699.641	66.8597
699.692	60.8192
699.744	65.098
699.795	64.5808
699.847	64.1737
699.898	60.3075
699.95	56.4414
700.001	67.1619
700.052	68.4726
700.104	63.1085
700.155	62.1391
700.207	65.1243
700.258	63.2328
700.31	65.9258
700.361	60.913
700.413	64.0684
700.464	62.0192
700.515	64.1729
700.567	58.5426
700.618	60.1601
700.67	54.5846
700.721	60.1083
700.773	59.7458
700.824	64.0558
700.875	64.8795
700.927	59.24
700.978	55.6125
701.03	62.3605
701.081	60.8435
701.133	60.5215
701.184	64.5154
701.235	67.5827
701.287	64.3059
701.338	61.4053
701.39	57.9521
701.441	63.2038
701.493	63.3124
701.544	60.9759
701.596	62.2325
701.647	59.502
701.698	62.8741
701.75	63.7917
701.801	63.0785
701.853	65.46
701.904	65.007
701.956	62.9029
702.007	60.7662
702.058	62.5091
702.11	61.0217
702.161	61.3321
702.213	64.2765
702.264	61.8688
702.315	64.5839
702.367	65.4459
702.418	64.5269
702.47	64.5901
702.521	62.2736
702.573	60.0826
702.624	62.5023
702.675	64.2747
702.727	58.7594
702.778	59.6213
702.83	63.4928
702.881	61.417
702.932	59.6684
702.984	56.8352
703.035	63.9833
703.087	66.4343
703.138	66.0101
703.19	60.8831
703.241	61.1215
703.292	65.2184
703.344	66.2778
703.395	62.2719
703.447	65.6604
703.498	64.0733
703.549	62.0255
703.601	59.7437
703.652	61.6233
703.704	63.9354
703.755	62.5916
703.806	61.0792
703.858	63.8356
703.909	65.1519
703.961	64.5112
704.012	63.2917
704.063	68.439
704.115	64.1586
704.166	61.1422
704.218	59.244
704.269	60.9199
704.32	65.2678
704.372	65.7617
704.423	65.0589
704.475	64.3749
704.526	59.8007
704.577	65.2117
704.629	66.6648
704.68	64.6189
704.732	66.7057
704.783	67.6176
704.834	63.9828
704.886	58.5493
704.937	62.5728
704.988	62.3309
705.04	59.9667
705.091	62.7667
705.143	65.3997
705.194	68.8293
705.245	61.7014
705.297	62.5658
705.348	60.4741
705.4	63.8615
705.451	67.1209
705.502	57.7013
705.554	64.4169
705.605	64.7819
705.656	65.1067
705.708	58.8192
705.759	63.6792
705.811	61.6275
705.862	61.9958
705.913	61.7203
705.965	62.1527
706.016	65.6276
706.068	63.1589
706.119	61.4987
706.17	63.7149
706.222	60.2544
706.273	62.1235
706.324	64.3107
706.376	68.8286
706.427	63.4728
706.479	59.9248
706.53	64.5913
706.581	65.0686
706.633	61.416
706.684	64.1202
706.735	66.9109
706.787	56.4767
706.838	59.1837
706.889	62.922
706.941	59.8621
706.992	61.7462
707.044	61.5195
707.095	66.0829
707.146	66.4354
707.198	64.6004
707.249	66.467
707.3	67.9107
707.352	61.6187
707.403	66.2048
707.454	62.6646
707.506	59.4713
707.557	66.9679
707.609	61.6549
707.66	62.1896
707.711	61.5246
707.763	62.2303
707.814	67.53
707.865	62.6771
707.917	66.3283
707.968	62.1815
708.019	59.616
708.071	62.5495
708.122	61.0823
708.173	61.0766
708.225	65.2141
708.276	61.4587
708.328	64.2065
708.379	72.4581
708.43	63.3837
708.482	65.4318
708.533	63.0844
708.584	59.8314
708.636	65.1661
708.687	63.944
708.738	61.4744
708.79	66.7829
708.841	62.8869
708.892	61.8513
708.944	63.4922
708.995	64.2339
709.046	70.6002
709.098	67.81
709.149	64.5757
709.2	62.7947
709.252	62.8517
709.303	65.085
709.354	60.6614
709.406	60.3523
709.457	65.7307
709.508	62.54
709.56	60.0871
709.611	66.2431
709.662	66.6118
709.714	60.7182
709.765	64.641
709.816	60.9154
709.868	61.1021
709.919	62.4573
709.97	62.75
710.022	63.154
710.073	58.8857
710.124	61.7419
710.176	68.4327
710.227	65.7954
710.278	68.8687
710.33	63.7613
710.381	63.9265
710.432	69.3571
710.484	64.6471
710.535	61.7198
710.586	63.8994
710.638	66.2618
710.689	60.7038
710.74	59.3296
710.792	65.6709
710.843	67.5489
710.894	61.0413
710.946	64.6197
710.997	68.0301
711.048	64.2361
711.1	66.0465
711.151	65.2673
711.202	64.6863
711.254	65.4411
711.305	62.5321
711.356	58.931
711.407	64.1898
711.459	63.6909
711.51	59.3468
711.561	58.9718
711.613	66.2702
711.664	69.3726
711.715	58.7914
711.767	68.7834
711.818	66.7354
711.869	67.3777
711.921	68.0838
711.972	67.5338
712.023	70.7001
712.075	65.7531
712.126	58.8258
712.177	63.0809
712.228	66.5504
712.28	71.5711
712.331	64.5743
712.382	64.0235
712.434	64.2728
712.485	71.0717
712.536	58.3387
712.588	62.7637
712.639	60.7861
712.69	66.0831
712.741	61.5379
712.793	67.1893
712.844	65.8099
712.895	67.3024
712.947	60.4843
712.998	69.3221
713.049	65.5591
713.101	68.289
713.152	64.7176
713.203	65.5147
713.254	69.0635
713.306	62.4215
713.357	61.5783
713.408	64.535
713.46	73.9852
713.511	72.963
713.562	65.0081
713.613	67.5384
713.665	64.1313
713.716	71.75
713.767	64.8965
713.819	61.3273
713.87	66.3245
713.921	69.2116
713.972	65.1342
714.024	67.4733
714.075	67.9606
714.126	64.5385
714.178	68.2218
714.18	68.4783
714.231	67.9013
714.283	69.3109
714.334	63.8668
714.385	64.0812
714.437	64.1212
714.488	68.9075
714.539	73.4294
714.591	63.7996
714.642	66.9369
714.694	65.8802
714.745	73.7987
714.796	65.6036
714.848	70.8337
714.899	65.5291
714.951	66.6333
715.002	69.1469
715.053	64.7523
715.105	71.5276
715.156	70.3178
715.207	71.4325
715.259	71.7198
715.31	65.602
715.362	61.7938
715.413	68.9576
715.464	66.97
715.516	72.6125
715.567	68.7639
715.618	69.0107
715.67	69.9684
715.721	69.2623
715.773	67.7269
715.824	68.5681
715.875	65.2781
715.927	70.3262
715.978	70.4622
716.029	67.4739
716.081	69.9581
716.132	66.9225
716.184	65.2512
716.235	70.2562
716.286	69.5311
716.338	71.0127
716.389	67.7099
716.44	67.7185
716.492	66.8268
716.543	67.4558
716.594	68.4145
716.646	70.7661
716.697	68.3889
716.749	77.3193
716.8	68.9968
716.851	71.616
716.903	72.8654
716.954	71.35
717.005	67.9783
717.057	76.1322
717.108	71.335
717.159	73.3878
717.211	71.5199
717.262	72.6802
717.314	75.5563
717.365	71.5158
717.416	70.2484
717.468	73.0086
717.519	71.6715
717.57	77.6986
717.622	69.2011
717.673	73.7376
717.724	72.3166
717.776	72.3007
717.827	71.8182
717.878	71.7941
717.93	74.2634
717.981	74.4592
718.032	67.2805
718.084	74.6787
718.135	75.1781
718.187	78.7081
718.238	77.1194
718.289	77.0313
718.341	73.4945
718.392	77.683
718.443	75.1661
718.495	70.216
718.546	73.128
718.597	76.0237
718.649	77.9905
718.7	74.7449
718.751	78.2308
718.803	77.4578
718.854	72.8876
718.905	74.4922
718.957	71.1765
719.008	74.0957
719.059	73.8654
719.111	76.3514
719.162	77.0777
719.213	79.6897
719.265	81.2194
719.316	71.723
719.367	74.4978
719.419	74.3717
719.47	77.0438
719.521	80.4729
719.573	75.2619
719.624	76.3975
719.675	78.9525
719.727	76.8986
719.778	75.6061
719.829	72.8141
719.881	73.5238
719.932	73.8552
719.983	73.9513
720.035	78.6984
720.086	83.6639
720.137	79.4739
720.189	81.3274
720.24	77.4853
720.291	77.5718
720.343	77.31
720.394	75.6126
720.445	78.9247
720.496	84.1996
720.548	78.8489
720.599	77.2032
720.65	76.2771
720.702	75.9367
720.753	83.1878
720.804	80.9078
720.856	81.87
720.907	79.2269
720.958	77.664
721.01	80.8381
721.061	83.1358
721.112	85.5419
721.164	84.8014
721.215	80.4949
721.266	83.5293
721.318	85.2719
721.369	83.6449
721.42	85.3365
721.471	86.4709
721.523	84.8381
721.574	81.8828
721.625	82.3416
721.677	86.4936
721.728	86.4043
721.779	80.4888
721.831	79.9549
721.882	85.2809
721.933	82.569
721.984	89.0862
722.036	85.6978
722.087	83.8967
722.138	78.6454
722.19	82.0074
722.241	86.1403
722.292	91.4993
722.344	85.8429
722.395	92.4465
722.446	91.6457
722.497	87.1744
722.549	94.7427
722.6	86.8259
722.651	92.399
722.703	94.668
722.754	91.7733
722.805	90.0457
722.857	89.7917
722.908	84.2861
722.959	91.7033
723.01	89.3255
723.062	89.0807
723.113	97.2712
723.164	95.6021
723.216	94.8102
723.267	95.1268
723.318	93.0365
723.369	93.725
723.421	91.9543
723.472	95.7535
723.523	98.0893
723.575	95.004
723.626	94.7443
723.677	96.5715
723.728	95.57
723.78	90.7415
723.831	97.1333
723.882	96.2443
723.934	98.4959
723.985	94.7496
724.036	101.169
724.087	100.796
724.139	103.961
724.19	102.424
724.241	107.973
724.292	102.173
724.344	98.9815
724.395	97.0573
724.446	101.252
724.498	106.302
724.549	104.168
724.6	94.9982
724.651	94.7439
724.703	100.082
724.754	103.918
724.805	103.907
724.856	105.515
724.908	110.331
724.959	105.635
725.01	106.777
725.062	107.007
725.113	105.347
725.164	107.137
725.215	106.532
725.267	107.116
725.318	111.962
725.369	104.229
725.42	109.189
725.472	116.179
725.523	110.935
725.574	114.737
725.625	107.848
725.677	111.762
725.728	121.631
725.779	109.986
725.83	112.402
725.882	104.764
725.933	109.674
725.984	107.106
726.036	120.177
726.087	118.817
726.138	115.896
726.189	117.508
726.241	117.18
726.292	116.518
726.343	121.706
726.394	113.961
726.445	117.335
726.497	119.135
726.548	122.412
726.599	124.598
726.651	115.675
726.702	117.752
726.753	120.88
726.804	121.559
726.855	116.144
726.907	125.533
726.958	126.259
727.009	119.962
727.06	121.419
727.112	126.261
727.163	126.374
727.214	117.923
727.265	115.167
727.317	123.718
727.368	127.383
727.419	129.348
727.47	123.7
727.522	126.813
727.573	129.083
727.624	131.582
727.675	119.818
727.727	129.988
727.778	132.159
727.829	127.515
727.88	123.233
727.932	130.697
727.983	132.423
728.034	134.081
728.085	124.141
728.136	132.181
728.188	133.205
728.239	130.062
728.29	128.559
728.341	138.73
728.393	138.516
728.444	137.877
728.495	131.606
728.546	134.772
728.597	128.958
728.649	137.175
728.7	133.937
728.751	136.443
728.802	135.888
728.854	136.977
728.905	142.769
728.956	133.059
729.007	138.951
729.058	136.037
729.11	141.056
729.161	140.554
729.212	140.165
729.263	138.341
729.315	140.722
729.366	142.764
729.417	140.774
729.468	141.631
729.519	136.921
729.571	132.178
729.622	148.457
729.673	139.376
729.724	142.554
729.775	139.472
729.827	150.045
729.878	140.784
729.929	147.139
729.98	153.767
730.031	141.67
730.083	152.143
730.134	153.066
730.185	156.077
730.236	149.361
730.288	151.336
730.339	150.723
730.39	156.431
730.441	148.338
730.492	154.053
730.544	159.484
730.595	163.96
730.646	152.915
730.697	150.733
730.748	157.702
730.8	154.304
730.851	160.299
730.902	156.214
730.953	156.779
731.004	160.399
731.056	158.585
731.107	159.361
731.158	164.475
731.209	159.251
731.26	151.636
731.312	154.532
731.363	164.386
731.414	166.17
731.465	165.566
731.516	176.726
731.567	162.099
731.619	164.975
731.622	165.36
731.673	166.779
731.725	165.33
731.776	171.661
731.827	171.207
731.878	177.406
731.93	167.414
731.981	179.056
732.032	170.989
732.084	171.422
732.135	174.231
732.186	173.139
732.237	175.189
732.289	180.269
732.34	186.007
732.391	179.347
732.443	183.497
732.494	186.316
732.545	193.972
732.597	191.415
732.648	193.677
732.699	188.229
732.75	200.566
732.802	199.287
732.853	205.364
732.904	201.115
732.956	202.007
733.007	202.015
733.058	203.035
733.109	198.139
733.161	199.109
733.212	211.484
733.263	214.281
733.315	217.25
733.366	218.175
733.417	222.841
733.468	219.614
733.52	216.376
733.571	227.032
733.622	229.784
733.673	237.146
733.725	229.688
733.776	242.158
733.827	246.211
733.879	242.867
733.93	237.053
733.981	249.117
734.032	253.028
734.084	255.585
734.135	249.192
734.186	258.959
734.237	266.469
734.289	257.294
734.34	262.693
734.391	274.373
734.443	278.636
734.494	283.159
734.545	280.047
734.596	286.165
734.648	301.244
734.699	303.435
734.75	301.162
734.801	306.04
734.853	314.394
734.904	318.921
734.955	317.234
735.006	328.556
735.058	335.64
735.109	335.808
735.16	349.3
735.211	347.587
735.263	358.31
735.314	359.932
735.365	374.717
735.417	383.898
735.468	387.696
735.519	387.84
735.57	397.964
735.622	404.571
735.673	402.636
735.724	407.554
735.775	413.308
735.827	432.181
735.878	443.989
735.929	448.638
735.98	441.47
736.032	450.151
736.083	459.748
736.134	476.596
736.185	492.374
736.237	498.571
736.288	503.28
736.339	507.113
736.39	518.939
736.442	528.488
736.493	540.858
736.544	555.568
736.595	566.444
736.646	590.419
736.698	602.506
736.749	607.674
736.8	613.873
736.851	624.274
736.903	636.18
736.954	625.68
737.005	651.487
737.056	663.282
737.108	668.089
737.159	684.43
737.21	708.269
737.261	704.059
737.313	726.993
737.364	739.001
737.415	744.2
737.466	756.508
737.518	764.432
737.569	781.546
737.62	790.731
737.671	791.527
737.722	786.898
737.774	791.423
737.825	801.419
737.876	829.043
737.927	845.477
737.979	833.4
738.03	828.272
738.081	823.414
738.132	829.34
738.183	820.752
738.235	816.943
738.286	830.264
738.337	833.786
738.388	833.346
738.44	837.752
738.491	844.87
738.542	827.741
738.593	821.893
738.644	812.572
738.696	798.979
738.747	810.272
738.798	806.809
738.849	794.633
738.901	792.528
738.952	780.326
739.003	746.893
739.054	753.224
739.105	750.673
739.157	737.482
739.208	728.986
739.259	723.678
739.31	711.985
739.361	695.569
739.413	683.455
739.464	673.973
739.515	680.552
739.566	658.47
739.617	653.32
739.669	651.309
739.72	627.745
739.771	618.904
739.822	615.578
739.874	600.635
739.925	586.66
739.976	577.314
740.027	554.379
740.078	550.233
740.13	554.222
740.181	544.234
740.232	534.421
740.283	521.361
740.334	513.468
740.385	504.392
740.437	506.922
740.488	489.206
740.539	479.553
740.59	479.97
740.641	466.105
740.693	458.265
740.744	451.154
740.795	450.261
740.846	450.438
740.897	426.422
740.949	409.213
741	422.545
741.051	412.115
741.102	401.066
741.153	391.539
741.205	390.717
741.256	386.527
741.307	372.342
741.358	366.658
741.409	374.884
741.461	365.866
741.512	361.9
741.563	358.837
741.614	349.309
741.665	348.378
741.716	350.52
741.768	350.042
741.819	343.603
741.87	327.324
741.921	328.261
741.972	328.771
742.024	318.868
742.075	316.035
742.126	314.245
742.177	311.325
742.228	299.597
742.279	292.679
742.331	294.134
742.382	291.5
742.433	290.242
742.484	289.984
742.535	285.257
742.586	275.12
742.638	275.991
742.689	272.157
742.74	275.667
742.791	269.256
742.842	261.051
742.893	257.353
742.945	262.843
742.996	260.67
743.047	254.798
743.098	247.065
743.149	251.554
743.201	252.289
743.252	256.771
743.303	250.627
743.354	248.67
743.405	239.887
743.456	233.007
743.507	240.346
743.559	239.133
743.61	237.004
743.661	235.667
743.712	226.638
743.763	221.909
743.814	219.136
743.866	226.392
743.917	226.269
743.968	226.796
744.019	216.402
744.07	216.588
744.121	223.17
744.172	217.335
744.224	212.022
744.275	212.201
744.326	212.575
744.377	204.956
744.428	204.375
744.479	203.294
744.531	201.258
744.582	198.836
744.633	203.936
744.684	203.189
744.735	200.418
744.786	197.69
744.837	197.847
744.889	189.233
744.94	194.681
744.991	199.341
745.042	194.553
745.093	192.093
745.144	194.155
745.195	193.573
745.247	195.006
745.298	186.449
745.349	185.448
745.4	190.385
745.451	189.816
745.502	194.75
745.553	193.53
745.605	183.757
745.656	178.943
745.707	180.131
745.758	184.316
745.809	180.504
745.86	176.675
745.911	177.29
745.962	177.039
746.014	174.238
746.065	173.159
746.116	174.009
746.167	182.952
746.218	178.617
746.269	179.215
746.32	178.019
746.372	167.744
746.423	169.926
746.474	172.078
746.525	170.05
746.576	177.197
746.627	169.177
746.678	165.507
746.729	163.271
746.78	165.203
746.832	167.055
746.883	164.511
746.934	163.802
746.985	168.036
747.036	162.606
747.087	157.542
747.138	164.479
747.189	162.328
747.241	162.716
747.292	161.404
747.343	161.086
747.394	152.921
747.445	155.504
747.496	156.109
747.547	155.263
747.598	158.503
747.649	161.22
747.701	159.85
747.752	156.723
747.803	158.381
747.854	158.815
747.905	156.625
747.956	158.702
748.007	157.34
748.058	159.222
748.109	152.176
748.161	147.121
748.212	154.224
748.263	156.706
748.314	152.784
748.365	151.604
748.416	153.358
748.467	153.92
748.518	150.337
748.569	155.022
748.62	157.052
748.672	155.211
748.723	157.489
748.774	150.277
748.825	148.812
748.876	153.415
748.927	149.665
748.978	147.157
749.029	145.907
749.08	141.146
749.131	145.575
749.173	148.352
749.224	146.793
749.275	152.315
749.326	143.825
749.378	145.006
749.429	143.799
749.48	149.217
749.531	141.118
749.582	137.221
749.634	144.778
749.685	149.68
749.736	143.313
749.787	148.02
749.838	144.493
749.89	145.911
749.941	145.254
749.992	145.971
750.043	149.123
750.094	146.526
750.146	144.225
750.197	147.944
750.248	148.175
750.299	149.968
750.35	146.149
750.401	145.408
750.453	129.013
750.504	141.224
750.555	141.416
750.606	140.458
750.657	146.188
750.709	137.094
750.76	138.081
750.811	144.523
750.862	139.821
750.913	142.315
750.964	139.912
751.016	141.589
751.067	141.746
751.118	145.794
751.169	140.777
751.22	141.401
751.272	142.735
751.323	141.49
751.374	150.19
751.425	136.468
751.476	137.288
751.528	141.415
751.579	148.979
751.63	139.888
751.681	138.664
751.732	147.461
751.783	137.091
751.835	133.066
751.886	134.682
751.937	135.228
751.988	137.578
752.039	132.292
752.09	143.072
752.142	143.469
752.193	138.066
752.244	133.838
752.295	144.144
752.346	137.091
752.397	133.457
752.449	139.394
752.5	132.893
752.551	142.085
752.602	133.681
752.653	143.323
752.704	129.389
752.756	139.571
752.807	140.689
752.858	144.718
752.909	137.801
752.96	134.384
753.011	135.412
753.063	137.048
753.114	141.168
753.165	138.424
753.216	137.555
753.267	140.433
753.318	134.395
753.37	140.505
753.421	133.667
753.472	132.715
753.523	142.298
753.574	137.049
753.625	138.138
753.676	129.789
753.728	131.693
753.779	136.17
753.83	137.136
753.881	136.768
753.932	134.877
753.983	138.08
754.034	135.229
754.086	128.678
754.137	134.152
754.188	136.629
754.239	136.301
754.29	136.13
754.341	133.521
754.393	140.836
754.444	133.359
754.495	128.075
754.546	143.621
754.597	141.748
754.648	136.425
754.699	140.277
754.75	141.491
754.802	133.344
754.853	129.557
754.904	132.688
754.955	126.864
755.006	129.424
755.057	135.013
755.108	134.584
755.16	134.102
755.211	129.52
755.262	128.205
755.313	136.157
755.364	137.581
755.415	123.956
755.466	127.697
755.518	129.58
755.569	129.328
755.62	134.521
755.671	129.945
755.722	132.835
755.773	128.096
755.824	132.342
755.875	135.623
755.927	128.002
755.978	137.541
756.029	130.539
756.08	131.724
756.131	123.183
756.182	137.887
756.233	128.96
756.284	132.778
756.336	130.332
756.387	130.283
756.438	130.956
756.489	127.019
756.54	128.595
756.591	125.595
756.642	126.757
756.693	133.753
756.745	128.804
756.796	130.854
756.847	133.542
756.898	130.402
756.949	127.692
757	132.181
757.051	122.629
757.102	125.53
757.153	125.524
757.205	131.853
757.256	126.088
757.307	124.597
757.358	133.996
757.409	125.008
757.46	132.885
757.511	126.752
757.562	132.484
757.613	127.698
757.664	133.923
757.716	135.936
757.767	131.813
757.818	133.762
757.869	126.487
757.92	132.205
757.971	125.568
758.022	125.603
758.073	128.26
758.124	129.057
758.175	126.438
758.227	125.851
758.278	129.124
758.329	122.496
758.38	127.835
758.431	127.333
758.482	131.891
758.533	135.132
758.584	133.648
758.635	125.491
758.686	122.928
758.738	114.625
758.789	127.802
758.84	128.914
758.891	131.31
758.942	119.622
758.993	125.865
759.044	130.667
759.095	133.622
759.146	121.421
759.197	120.885
759.248	127.906
759.3	129.896
759.351	128.106
759.402	120.794
759.453	124.381
759.504	127.627
759.555	126.577
759.606	124.207
759.657	127.911
759.708	121.064
759.759	119.376
759.81	115.506
759.861	120.662
759.913	120.297
759.964	119.896
760.015	127.87
760.066	123.601
760.117	121.059
760.168	124.306
760.219	127.681
760.27	125.844
760.321	121.984
760.372	121.468
760.423	124.774
760.474	119.826
760.525	120.644
760.576	111.884
760.628	117.935
760.679	117.242
760.73	116.829
760.781	125.91
760.832	125.632
760.883	123.844
760.934	122.303
760.985	123.45
761.036	123.289
761.087	122.379
761.138	118.849
761.189	119.837
761.24	118.71
761.291	121.083
761.342	119.697
761.393	115.945
761.445	120.572
761.496	126.603
761.547	124.419
761.598	119.515
761.649	122.998
761.7	126.259
761.751	123.879
761.802	115.585
761.853	117.179
761.904	118.546
761.955	117.428
762.006	118.398
762.057	119.559
762.108	115.847
762.159	121.849
762.21	120.628
762.261	120.944
762.313	121.543
762.364	112.616
762.415	117.523
762.466	121.359
762.517	117.257
762.568	115.111
762.619	115.762
762.67	116.649
762.721	112.78
762.772	118.016
762.823	122.69
762.874	122.346
762.925	118.374
762.976	120.118
763.027	117.492
763.078	120.304
763.129	119.205
763.18	115.55
763.231	124.028
763.282	126.231
763.333	123.017
763.384	119.784
763.435	119.691
763.486	122.312
763.537	117.685
763.589	116.169
763.64	121.802
763.691	122.93
763.742	118.974
763.793	115.116
763.844	118.831
763.895	121.664
763.946	125.719
763.997	127.442
764.048	122.464
764.099	119.45
764.15	121.614
764.201	116.009
764.252	116.355
764.303	119.378
764.354	120.252
764.405	118.474
764.456	118.002
764.507	116.763
764.558	117.046
764.609	122.713
764.66	122.847
764.711	117.973
764.762	120.598
764.813	119.631
764.864	117.074
764.915	118.276
764.966	117.377
765.017	119.513
765.068	124.899
765.119	126.937
765.17	123.563
765.221	122.172
765.272	124.495
765.323	126.585
765.374	127.791
765.425	121.551
765.476	114.148
765.527	116.464
765.578	122.731
765.629	123.308
765.68	118.069
765.731	117.136
765.782	117.179
765.833	115.922
765.884	120.347
765.935	125.191
765.986	121.194
766.037	119.689
766.088	119.924
766.139	122.346
766.19	123.499
766.241	121.289
766.292	119.603
766.343	116.174
766.394	113.204
766.445	116.056
766.496	118.276
766.547	115.267
766.598	114.51
766.649	113.69
766.677	109.32
766.729	119.737
766.78	116.11
766.831	124.794
766.882	111.471
766.933	119.502
766.984	117.009
767.035	108.412
767.086	112.797
767.137	112.759
767.188	122.518
767.24	115.345
767.291	111.025
767.342	118.362
767.393	115.117
767.444	111.146
767.495	108.967
767.546	111.674
767.597	111.014
767.648	102.056
767.7	115.193
767.751	106.542
767.802	110.057
767.853	107.036
767.904	112.701
767.955	113.896
768.006	117.339
768.057	104.506
768.108	112.894
768.159	105.307
768.21	113.829
768.262	112.564
768.313	110.049
768.364	104.513
768.415	111.743
768.466	104.639
768.517	110.289
768.568	107.396
768.619	110.358
768.67	109.724
768.721	108.979
768.772	105.292
768.823	108.24
768.875	102.567
768.926	106.099
768.977	106.092
769.028	106.05
769.079	113.1
769.13	102.788
769.181	110.021
769.232	101.435
769.283	97.9027
769.334	95.4567
769.385	103.131
769.436	103.089
769.488	100.281
769.539	95.2778
769.59	95.3611
769.641	97.1839
769.692	100.778
769.743	96.7186
769.794	92.81
769.845	98.0869
769.896	102.669
769.947	104.859
769.998	102.673
770.049	97.5143
770.1	95.7039
770.151	105.369
770.203	99.2109
770.254	100.287
770.305	94.3411
770.356	104.827
770.407	97.4991
770.458	99.3873
770.509	101.479
770.56	98.9314
770.611	97.4387
770.662	95.4995
770.713	98.5611
770.764	98.6466
770.815	102.227
770.866	99.6861
770.917	98.0561
770.968	106.153
771.02	99.5446
771.071	99.7225
771.122	105.347
771.173	100.565
771.224	96.6987
771.275	92.4889
771.326	93.6347
771.377	100.045
771.428	96.1136
771.479	95.4627
771.53	94.503
771.581	87.7345
771.632	93.8027
771.683	95.4062
771.734	90.8871
771.785	96.9353
771.836	93.9862
771.887	90.8092
771.938	93.5979
771.99	97.9225
772.041	94.3756
772.092	93.0292
772.143	92.683
772.194	90.8662
772.245	94.4801
772.296	89.8799
772.347	90.5175
772.398	95.3078
772.449	94.299
772.5	89.8981
772.551	94.1313
772.602	86.404
772.653	89.5864
772.704	86.058
772.755	91.1907
772.806	88.9209
772.857	86.9304
772.908	84.8034
772.959	95.1029
773.01	90.7434
773.061	90.267
773.112	87.6919
773.163	95.4775
773.214	86.352
773.265	91.5326
773.316	91.4499
773.367	89.9567
773.419	88.8818
773.47	87.0591
773.521	86.9668
773.572	85.0243
773.623	79.2521
773.674	81.0734
773.725	89.0928
773.776	91.7685
773.827	91.952
773.878	88.4938
773.929	78.556
773.98	87.9063
774.031	88.7101
774.082	87.3423
774.133	85.1588
774.184	85.6531
774.235	88.1615
774.286	86.7116
774.337	84.5572
774.388	91.9194
774.439	85.1866
774.49	84.1946
774.541	81.7003
774.592	79.7034
774.643	83.3632
774.694	82.0363
774.745	80.3496
774.796	82.9183
774.847	85.4914
774.898	78.3528
774.949	80.5757
775	82.1787
775.051	82.1152
775.102	75.9172
775.153	75.4037
775.204	79.5669
775.255	84.1254
775.306	82.5856
775.357	79.1028
775.408	78.586
775.459	84.396
775.51	78.0745
775.561	85.7062
775.612	86.876
775.663	83.5519
775.714	83.2974
775.765	81.0297
775.816	79.2834
775.867	80.9948
775.918	78.9978
775.969	80.2045
776.02	80.4792
776.071	81.0054
776.122	79.5797
776.173	82.5174
776.224	82.1441
776.275	80.2536
776.326	77.3127
776.377	81.2182
776.428	80.0222
776.479	79.0468
776.53	82.0447
776.581	83.2569
776.632	80.3379
776.683	81.1756
776.734	82.9983
776.785	82.5147
776.836	78.9548
776.887	75.2035
776.938	72.3493
776.989	77.7104
777.04	79.4134
777.091	78.5872
777.142	79.0308
777.193	72.582
777.244	74.8785
777.295	80.7558
777.346	78.6893
777.397	77.2651
777.448	78.1452
777.499	73.671
777.55	74.4246
777.601	80.3369
777.652	78.9722
777.703	76.0158
777.754	72.4061
777.805	77.28
777.856	77.3845
777.907	78.6263
777.958	76.6469
778.009	74.7
778.06	76.7602
778.111	70.6284
778.161	74.0564
778.212	74.9274
778.263	78.1175
778.314	75.7204
778.365	74.2407
778.416	74.9737
778.467	75.2891
778.518	74.6891
778.569	75.284
778.62	73.6906
778.671	75.8077
778.722	75.063
778.773	73.5871
778.824	73.5818
778.875	73.5335
778.926	71.4304
778.977	69.9542
779.028	71.8808
779.079	73.2674
779.13	73.0874
779.181	71.422
779.232	72.4342
779.283	76.2701
779.334	71.6166
779.385	73.0256
779.436	74.6334
779.487	76.0186
779.537	75.8635
779.588	68.0276
779.639	64.0731
779.69	71.7488
779.741	71.6452
779.792	71.3659
779.843	75.452
779.894	70.9246
779.945	72.4609
779.996	73.2622
780.047	73.8096
780.098	74.2675
780.149	71.986
780.2	72.5291
780.251	71.7508
780.302	72.1345
780.353	71.67
780.404	69.9286
780.455	68.3192
780.505	67.9769
780.556	66.8694
780.607	71.8396
780.658	73.4632
780.709	73.5286
780.76	71.4238
780.811	72.8166
780.862	70.0314
780.913	68.1172
780.964	70.662
781.015	70.9922
781.066	73.7413
781.117	69.9582
781.168	67.7461
781.219	71.8445
781.27	71.3394
781.32	69.7731
781.371	68.4049
781.422	67.2239
781.473	69.0394
781.524	68.9474
781.575	64.4151
781.626	66.1773
781.677	65.5207
781.728	64.4084
781.779	68.6125
781.83	63.8961
781.881	63.6158
781.932	66.264
781.983	70.498
782.033	69.6028
782.084	66.0292
782.135	64.6398
782.186	69.613
782.237	66.62
782.288	71.1731
782.339	67.4787
782.39	65.9403
782.441	69.9421
782.492	72.3616
782.543	74.1353
782.594	70.1673
782.644	70.9293
782.695	72.4498
782.746	68.3265
782.797	67.7662
782.848	72.0875
782.899	71.2714
782.95	70.1805
783.001	64.4457
783.052	66.011
783.103	69.9804
783.154	69.8202
783.204	62.4225
783.255	67.7834
783.306	71.1327
783.357	70.4219
783.408	66.5237
783.459	68
783.51	66.1308
783.561	60.6351
783.612	63.8432
783.663	66.7389
783.714	65.7743
783.764	63.5902
783.815	59.2184
783.866	64.186
783.917	65.0989
783.968	65.005
784.019	61.2449
784.07	63.782
784.109	66.0992
784.16	67.992
784.211	60.1929
784.262	62.936
784.313	68.9175
784.364	64.9592
784.415	59.324
784.466	74.1279
784.517	67.2239
784.568	64.0585
784.619	61.1266
784.67	69.4948
784.721	69.0562
784.772	65.1109
784.823	60.9865
784.874	68.4388
784.925	63.5558
784.976	58.298
785.027	69.416
785.078	65.9113
785.129	61.1189
785.18	64.4148
785.231	61.6486
785.282	63.285
785.333	70.3205
785.384	60.5922
785.435	64.8214
785.486	63.2012
785.537	68.5127
785.588	64.8592
785.639	68.9149
785.69	62.4372
785.741	68.3952
785.792	61.5207
785.843	61.6656
785.894	66.6914
785.945	59.5966
785.996	60.0096
786.047	65.2748
786.098	65.8392
786.149	66.2074
786.2	54.4001
786.251	58.9188
786.302	67.9734
786.353	63.4675
786.404	58.9602
786.455	59.6424
786.506	65.7129
786.557	59.0689
786.608	57.1135
786.659	62.0453
786.71	59.3528
786.761	63.5316
786.812	54.2569
786.863	64.459
786.914	61.5092
786.965	62.5037
787.016	61.8639
787.067	64.005
787.118	63.4437
787.169	57.2455
787.22	59.9082
787.271	62.8987
787.322	59.6151
787.373	59.7361
787.424	57.8712
787.475	59.8074
787.526	61.286
787.576	63.3918
787.627	62.7833
787.678	63.9376
787.729	66.3829
787.78	59.0503
787.831	53.8479
787.882	57.5115
787.933	61.4028
787.984	54.0688
788.035	58.3562
788.086	63.3771
788.137	62.5944
788.188	57.6638
788.239	58.0179
788.29	60.1301
788.341	62.4566
788.392	61.9835
788.443	64.8
788.494	59.897
788.545	59.5548
788.596	57.1294
788.647	57.5308
788.698	60.8971
788.749	58.8555
788.8	57.0423
788.851	58.3479
788.901	60.1923
788.952	56.4522
789.003	57.2259
789.054	55.5865
789.105	59.9758
789.156	60.5316
789.207	57.0381
789.258	57.2858
789.309	56.7313
789.36	62.0249
789.411	56.2342
789.462	57.4884
789.513	57.3209
789.564	62.5069
789.615	58.572
789.666	55.1747
789.717	60.9439
789.768	62.9785
789.819	59.7654
789.87	57.7871
789.92	61.3398
789.971	61.4128
790.022	54.9986
790.073	61.3507
790.124	59.6074
790.175	63.4525
790.226	53.8758
790.277	55.8496
790.328	60.7068
790.379	62.8605
790.43	49.7316
790.481	53.5308
790.532	58.5399
790.583	60.9788
790.634	52.2706
790.685	56.8125
790.735	60.4177
790.786	55.6895
790.837	53.1306
790.888	59.7482
790.939	60.06
790.99	56.4679
791.041	53.784
791.092	58.399
791.143	60.6289
791.194	56.5683
791.245	53.809
791.296	60.2219
791.347	59.419
791.397	54.382
791.448	53.9213
791.499	55.9132
791.55	55.7383
791.601	51.1334
791.652	53.0548
791.703	58.6538
791.754	57.6406
791.805	57.8164
791.856	55.9435
791.907	54.2179
791.958	55.3847
792.008	53.1855
792.059	56.3545
792.11	62.8318
792.161	60.4793
792.212	58.1544
792.263	55.4153
792.314	58.457
792.365	60.2326
792.416	54.1568
792.467	60.6357
792.518	60.2888
792.569	61.4554
792.619	58.7854
792.67	57.4472
792.721	60.9892
792.772	61.8369
792.823	58.6375
792.874	60.9663
792.925	61.3271
792.976	59.5146
793.027	58.4917
793.078	54.6165
793.128	60.6677
793.179	57.6336
793.23	52.986
793.281	57.8868
793.332	57.022
793.383	56.4358
793.434	51.406
793.485	58.1505
793.536	56.9553
793.587	52.7111
793.638	53.2027
793.688	57.9957
793.739	59.9362
793.79	56.4057
793.841	54.5545
793.892	56.7646
793.943	57.9616
793.994	55.1538
794.045	53.4949
794.096	57.76
794.146	57.9967
794.197	59.3541
794.248	56.5233
794.299	59.7145
794.35	59.6962
794.401	57.1692
794.452	54.3697
794.503	55.0569
794.554	57.8517
794.604	56.7658
794.655	55.9308
794.706	60.6707
794.757	62.5166
794.808	58.824
794.859	58.1851
794.91	60.4659
794.961	59.0558
795.011	61.7968
795.062	62.5279
795.113	59.0168
795.164	59.2277
795.215	58.4083
795.266	58.9661
795.317	60.7771
795.368	59.9414
795.418	55.5654
795.469	53.476
795.52	54.7212
795.571	59.449
795.622	59.9483
795.673	55.8477
795.724	56.9823
795.775	61.4142
795.825	58.1521
795.876	57.9983
795.927	54.89
795.978	59.3016
796.029	58.3329
796.08	56.3676
796.131	59.9208
796.181	53.9304
796.232	54.451
796.283	56.6299
796.334	56.751
796.385	58.48
796.436	55.6986
796.487	54.4651
796.537	59.7727
796.588	60.1503
796.639	59.498
796.69	57.1452
796.741	58.2387
796.792	58.1434
796.843	60.3154
796.893	56.617
796.944	60.1619
796.995	61.0224
797.046	54.8446
797.097	53.5095
797.148	58.3967
797.199	58.8425
797.249	53.7189
797.3	54.0478
797.351	62.5161
797.402	56.0737
797.453	54.9165
797.504	57.2618
797.555	61.7425
797.605	58.4297
797.656	57.4275
797.707	58.9767
797.758	63.2284
797.809	59.8448
797.86	55.0298
797.91	56.8675
797.961	55.9633
798.012	56.1519
798.063	56.3642
798.114	52.9957
798.165	59.0043
798.216	57.5284
798.266	55.2574
798.317	56.3471
798.368	58.4813
798.419	55.7959
798.47	54.2483
798.521	52.3457
798.571	58.9379
798.622	55.4877
798.673	49.9521
798.724	52.921
798.775	55.2671
798.826	53.3526
798.876	55.1315
798.927	50.6595
798.978	53.9514
799.029	56.4567
799.08	58.064
799.13	53.3839
799.181	55.9155
799.232	53.4545
799.283	55.7463
799.334	54.5694
799.385	52.8794
799.435	54.905
799.486	53.4932
799.537	55.4501
799.588	57.2436
799.639	56.3843
799.69	52.0828
799.74	53.1054
799.791	55.7246
799.842	54.7428
799.893	52.7265
799.944	56.5764
799.994	57.882
800.045	55.5193
800.096	50.8591
800.147	56.0116
800.198	53.9095
800.248	53.5934
800.299	48.1785
800.35	50.7666
800.401	51.9427
800.452	51.7651
800.503	49.8815
800.553	51.8182
800.604	50.4406
800.655	52.4342
800.706	47.566
800.757	55.9075
800.807	52.9522
800.858	50.0092
800.909	53.894
800.96	53.2324
801.011	52.3294
801.061	53.7383
801.112	50.969
801.163	53.2672
801.214	50.7955
801.265	53.5155
801.315	52.5287
801.366	49.7126
801.417	51.7091
801.457	53.5048
801.508	49.0139
801.558	50.7674
801.609	51.2621
801.66	48.4929
801.711	48.5006
801.762	53.0703
801.813	51.8933
801.864	55.6642
801.915	48.6369
801.966	53.6341
802.017	55.9168
802.068	53.588
802.118	47.6134
802.169	52.7337
802.22	57.0791
802.271	55.4411
802.322	50.9022
802.373	53.793
802.424	54.2406
802.475	49.9567
802.526	46.9442
802.577	51.5746
802.627	47.9461
802.678	45.1192
802.729	41.9004
802.78	52.6636
802.831	50.2956
802.882	52.5661
802.933	52.4866
802.984	56.2654
803.035	51.8247
803.086	42.9004
803.136	48.7763
803.187	52.4688
803.238	49.4808
803.289	44.1069
803.34	47.1046
803.391	50.0771
803.442	44.7873
803.493	42.2976
803.544	49.8504
803.594	49.1028
803.645	49.7532
803.696	49.559
803.747	48.8833
803.798	56.5106
803.849	47.9283
803.9	48.5485
803.951	44.7465
804.002	50.8409
804.052	45.3649
804.103	45.3824
804.154	47.1784
804.205	55.9239
804.256	49.4893
804.307	46.1766
804.358	49.9337
804.409	50.8488
804.459	48.6883
804.51	46.3083
804.561	48.6268
804.612	51.8888
804.663	48.749
804.714	43.6274
804.765	49.468
804.816	50.7119
804.866	42.2508
804.917	43.8796
804.968	53.037
805.019	50.3629
805.07	42.2392
805.121	46.1002
805.172	50.4083
805.223	49.4787
805.273	49.0188
805.324	45.1159
805.375	49.8595
805.426	54.6989
805.477	50.9188
805.528	44.4175
805.579	50.9069
805.629	49.003
805.68	45.9097
805.731	43.7505
805.782	49.4785
805.833	48.0738
805.884	47.9581
805.935	50.9112
805.985	51.0939
806.036	47.9843
806.087	50.4829
806.138	43.2573
806.189	45.8102
806.24	42.9062
806.291	44.7011
806.341	46.9872
806.392	50.9585
806.443	46.4553
806.494	41.0001
806.545	40.0535
806.596	47.2419
806.647	41.1038
806.697	46.8526
806.748	41.6098
806.799	52.5768
806.85	50.7499
806.901	49.9194
806.952	45.3388
807.003	46.0735
807.053	46.3272
807.104	43.0878
807.155	48.596
807.206	54.0023
807.257	50.0314
807.308	42.7269
807.358	48.8127
807.409	49.9418
807.46	49.0722
807.511	50.2872
807.562	46.7721
807.613	50.4976
807.663	48.8572
807.714	45.7729
807.765	45.9407
807.816	45.4634
807.867	45.3936
807.918	44.7351
807.969	45.8028
808.019	51.4099
808.07	44.7969
808.121	41.9081
808.172	46.1146
808.223	53.4625
808.273	42.4843
808.324	44.829
808.375	49.1589
808.426	46.1829
808.477	51.0603
808.528	46.0835
808.578	48.9152
808.629	50.302
808.68	43.7383
808.731	43.55
808.782	39.1541
808.833	48.5135
808.883	43.2636
808.934	42.0795
808.985	51.9997
809.036	46.7774
809.087	46.0815
809.138	44.5694
809.188	40.4275
809.239	49.0955
809.29	40.4635
809.341	41.9105
809.392	47.732
809.442	46.8783
809.493	42.8771
809.544	38.632
809.595	51.6158
809.646	48.3595
809.696	46.2714
809.747	45.2266
809.798	46.1544
809.849	47.4416
809.9	48.4562
809.951	44.6598
810.001	45.5205
810.052	48.8174
810.103	48.5499
810.154	39.5169
810.205	45.8573
810.255	47.99
810.306	46.0447
810.357	41.0007
810.408	47.8659
810.459	51.652
810.509	50.2506
810.56	47.8432
810.611	47.5082
810.662	49.9891
810.713	41.017
810.763	41.8506
810.814	48.7978
810.865	45.7363
810.916	47.2422
810.967	40.9225
811.017	46.0131
811.068	45.9184
811.119	41.665
811.17	40.577
811.221	44.8978
811.271	47.8582
811.322	45.8767
811.373	45.7834
811.424	48.6559
811.474	47.9796
811.525	47.3342
811.576	42.9583
811.627	49.6436
811.678	44.9853
811.728	43.7679
811.779	42.0942
811.83	46.5529
811.881	49.0138
811.932	44.9446
811.982	47.0751
812.033	44.5878
812.084	50.1527
812.135	47.085
812.185	49.4885
812.236	47.6387
812.287	46.8294
812.338	42.7231
812.389	47.2719
812.439	49.2945
812.49	42.0005
812.541	44.5503
812.592	49.0071
812.642	42.4397
812.693	45.3044
812.744	44.8067
812.795	47.2378
812.846	46.7098
812.896	46.8895
812.947	47.6976
812.998	45.0566
813.049	44.1555
813.099	44.036
813.15	42.6267
813.201	49.1119
813.252	44.0852
813.302	43.6288
813.353	43.1457
813.404	47.6668
813.455	48.1278
813.506	43.724
813.556	42.6499
813.607	43.6152
813.658	49.3965
813.709	49.1968
813.759	41.031
813.81	45.0183
813.861	47.4181
813.912	44.0893
813.962	46.2996
814.013	47.9314
814.064	45.8824
814.115	47.2231
814.165	46.8984
814.216	44.4591
814.267	42.2322
814.318	42.8304
814.368	38.8939
814.419	42.4489
814.47	44.054
814.521	47.3864
814.571	45.8428
814.622	44.6329
814.673	46.949
814.724	43.3644
814.774	40.133
814.825	49.1839
814.876	44.9201
814.927	41.6538
814.977	38.0834
815.028	40.8402
815.079	42.2947
815.13	39.4776
815.18	40.6537
815.231	45.2748
815.282	47.3453
815.333	43.441
815.383	42.5357
815.434	45.6068
815.485	45.4857
815.536	42.2635
815.586	38.9182
815.637	41.2906
815.688	42.9607
815.739	44.3794
815.789	41.6736
815.84	46.1803
815.891	45.0757
815.941	43.6347
815.992	43.9231
816.043	44.6676
816.094	42.5057
816.144	42.3866
816.195	41.8364
816.246	40.8732
816.297	37.5373
816.347	36.4945
816.398	38.3484
816.449	43.7833
816.499	44.7075
816.55	42.8962
816.601	41.8201
816.652	40.5185
816.702	39.1544
816.753	42.8438
816.804	44.8822
816.855	45.497
816.905	46.0052
816.956	46.7144
817.007	40.501
817.057	39.0241
817.108	44.5845
817.159	45.1647
817.21	42.1089
817.26	42.1792
817.311	46.9056
817.362	42.1364
817.412	41.1032
817.463	41.2653
817.514	39.6616
817.565	39.5634
817.615	38.9934
817.666	38.9821
817.717	44.722
817.767	46.28
817.818	45.1843
817.869	39.9386
817.919	39.4748
817.97	40.6552
818.021	41.0021
818.072	43.8265
818.122	42.8645
818.173	42.6462
818.224	38.5743
818.274	40.4269
818.325	45.5113
818.376	40.9725
818.427	37.045
818.477	38.203
818.528	40.6529
818.579	46.2917
818.629	41.9974
818.68	38.7467
818.731	42.2168
818.781	42.789
818.806	37.8705
818.857	41.4115
818.908	40.2967
818.959	44.1067
819.01	36.5313
819.06	40.9279
819.111	38.1139
819.162	37.332
819.213	33.5556
819.264	38.1582
819.315	40.2865
819.365	41.5805
819.416	36.0262
819.467	43.4355
819.518	43.9985
819.569	44.7098
819.619	39.3091
819.67	39.5726
819.721	41.1786
819.772	40.8908
819.823	38.5542
819.873	43.8952
819.924	43.6387
819.975	39.3655
820.026	35.2275
820.077	42.1879
820.127	36.6002
820.178	41.1599
820.229	36.9551
820.28	40.8336
820.331	32.9607
820.381	38.9449
820.432	35.9443
820.483	37.839
820.534	40.3705
820.585	42.0488
820.635	36.6703
820.686	39.2093
820.737	38.2591
820.788	39.6529
820.839	38.0082
820.889	44.4727
820.94	41.8499
820.991	41.5542
821.042	35.5768
821.092	43.9982
821.143	41.6037
821.194	37.1022
821.245	31.1713
821.296	38.9916
821.346	36.3762
821.397	42.0215
821.448	40.9465
821.499	43.559
821.549	40.9327
821.6	39.3558
821.651	38.3307
821.702	41.7754
821.753	39.6224
821.803	34.8128
821.854	33.769
821.905	33.406
821.956	38.3297
822.006	37.6505
822.057	34.9926
822.108	34.9091
822.159	36.5292
822.21	37.0777
822.26	38.536
822.311	36.8453
822.362	38.5522
822.413	37.1495
822.463	36.4716
822.514	40.9438
822.565	38.6874
822.616	33.9941
822.667	38.9405
822.717	41.0448
822.768	39.3721
822.819	35.5122
822.87	41.7793
822.92	37.106
822.971	40.626
823.022	38.7462
823.073	39.6013
823.123	36.2351
823.174	36.534
823.225	33.1036
823.276	35.5748
823.326	37.8576
823.377	40.7866
823.428	33.7303
823.479	36.4355
823.529	35.1369
823.58	33.153
823.631	31.1759
823.682	36.4048
823.732	35.5843
823.783	40.6156
823.834	34.1373
823.885	34.618
823.935	34.7686
823.986	36.3859
824.037	36.723
824.088	38.6074
824.138	37.1677
824.189	35.5587
824.24	32.9269
824.291	39.3539
824.341	36.2931
824.392	35.4634
824.443	34.8566
824.494	39.285
824.544	38.2741
824.595	39.2927
824.646	34.9573
824.697	37.0861
824.747	36.507
824.798	36.8789
824.849	33.432
824.9	39.4825
824.95	37.1603
825.001	42.3501
825.052	37.4448
825.103	38.2687
825.153	41.3364
825.204	38.7992
825.255	32.0192
825.305	36.5608
825.356	37.9296
825.407	37.2112
825.458	35.1367
825.508	38.3505
825.559	39.2337
825.61	36.7302
825.661	35.0485
825.711	38.4353
825.762	35.6629
825.813	36.9359
825.864	39.802
825.914	38.0481
825.965	37.9299
826.016	33.7989
826.066	32.5408
826.117	34.8025
826.168	33.7826
826.219	36.9973
826.269	38.488
826.32	38.0233
826.371	36.426
826.421	35.9277
826.472	36.9912
826.523	39.4478
826.574	40.7449
826.624	36.5195
826.675	34.0508
826.726	36.5848
826.776	37.7974
826.827	36.8882
826.878	39.7492
826.929	40.623
826.979	39.3188
827.03	37.0488
827.081	40.056
827.131	39.1606
827.182	38.9848
827.233	36.913
827.284	32.4664
827.334	31.3491
827.385	37.5004
827.436	34.7779
827.486	34.8974
827.537	35.739
827.588	37.5428
827.638	36.0793
827.689	37.055
827.74	39.0597
827.791	37.1896
827.841	34.2056
827.892	38.5668
827.943	35.4273
827.993	38.3742
828.044	37.3829
828.095	40.2411
828.146	41.7336
828.196	34.1052
828.247	28.9153
828.298	34.0668
828.348	37.3857
828.399	37.2973
828.45	38.735
828.5	36.1971
828.551	38.2479
828.602	37.0871
828.652	34.6242
828.703	36.9191
828.754	38.2421
828.805	40.8795
828.855	33.4281
828.906	35.4091
828.957	35.2394
829.007	36.2102
829.058	31.1239
829.109	36.9952
829.159	36.4178
829.21	33.3121
829.261	35.2524
829.311	35.952
829.362	36.8868
829.413	39.0286
829.463	36.7258
829.514	36.1904
829.565	33.7672
829.615	33.9377
829.666	34.358
829.717	31.6719
829.767	38.4126
829.818	32.9701
829.869	33.5958
829.919	36.8307
829.97	39.4151
830.021	38.7329
830.071	34.6209
830.122	40.1864
830.173	40.7442
830.224	34.0208
830.274	35.3239
830.325	36.911
830.376	35.5833
830.426	37.1733
830.477	32.2493
830.528	37.356
830.578	33.6867
830.629	33.9929
830.68	35.1296
830.73	36.014
830.781	35.394
830.831	37.7725
830.882	33.5446
830.933	32.6531
830.983	35.383
831.034	35.5605
831.085	33.5398
831.135	33.4267
831.186	37.6408
831.237	35.591
831.287	32.7607
831.338	35.1027
831.389	33.725
831.439	36.2017
831.49	34.6006
831.541	38.8024
831.591	37.8875
831.642	33.395
831.693	33.9128
831.743	37.0884
831.794	34.3035
831.845	38.42
831.895	34.6695
831.946	37.9446
831.997	34.6882
832.047	35.9303
832.098	34.2328
832.148	32.9495
832.199	33.9737
832.25	39.7717
832.3	34.9578
832.351	40.2325
832.402	37.9443
832.452	36.395
832.503	36.0101
832.554	36.491
832.604	35.7296
832.655	38.6695
832.706	35.0196
832.756	38.823
832.807	34.2303
832.857	38.1621
832.908	32.7628
832.959	35.6656
833.009	40.5265
833.06	40.093
833.111	38.0924
833.161	39.0926
833.212	39.1846
833.263	37.7241
833.313	33.0629
833.364	37.6685
833.414	31.442
833.465	34.9462
833.516	34.996
833.566	34.7418
833.617	33.8637
833.668	36.8632
833.718	34.1216
833.769	37.6526
833.819	35.7195
833.87	33.0206
833.921	28.2907
833.971	36.2483
834.022	30.7784
834.073	34.7017
834.123	29.0932
834.174	38.9712
834.224	36.2627
834.275	30.0139
834.326	37.0439
834.376	36.188
834.427	33.5519
834.477	34.1183
834.528	31.4874
834.579	34.1938
834.629	35.2395
834.68	32.0092
834.73	35.1708
834.781	37.4463
834.832	36.7574
834.882	32.5464
834.933	35.6462
834.984	35.1867
835.034	39.1926
835.085	34.332
835.135	31.9165
835.186	37.3632
835.237	38.6143
835.287	33.2112
835.338	38.5142
835.388	36.178
835.439	31.9488
835.49	34.0781
835.54	37.5412
835.591	34.9906
835.641	36.9449
835.692	35.0867
835.743	39.7008
835.793	35.0446
835.844	36.912
835.894	31.1737
835.945	32.7788
835.996	37.9618
836.046	32.1669
836.097	31.9576
836.099	32.1252
836.15	34.0672
836.201	40.9956
836.251	32.9061
836.302	30.1435
836.353	37.9433
836.404	32.9262
836.454	32.0643
836.505	34.1251
836.556	38.9413
836.606	37.8095
836.657	32.0042
836.708	32.9325
836.758	33.8585
836.809	35.7437
836.86	31.1194
836.911	31.0979
836.961	38.8891
837.012	33.976
837.063	33.2423
837.113	27.9901
837.164	31.9751
837.215	30.8181
837.265	44.2756
837.316	33.158
837.367	37.4669
837.418	31.4394
837.468	35.8542
837.519	35.6293
837.57	31.985
837.62	37.4409
837.671	36.2665
837.722	32.1116
837.772	40.2865
837.823	32.1316
837.874	31.7233
837.924	29.369
837.975	34.3898
838.026	33.4624
838.077	38.0641
838.127	35.9222
838.178	36.0427
838.229	27.9002
838.279	34.077
838.33	34.4408
838.381	33.3307
838.431	33.4328
838.482	34.0679
838.533	36.1079
838.583	36.5977
838.634	33.9364
838.685	30.5319
838.735	32.0097
838.786	37.9388
838.837	33.4897
838.888	31.2688
838.938	34.8836
838.989	37.5865
839.04	29.5476
839.09	29.7554
839.141	37.2091
839.192	36.41
839.242	29.5015
839.293	31.4678
839.344	30.106
839.394	36.8204
839.445	32.2602
839.496	30.8398
839.546	33.369
839.597	33.2883
839.648	35.8512
839.698	33.148
839.749	33.3164
839.8	34.053
839.85	35.0495
839.901	35.2048
839.952	35.9487
840.002	31.8335
840.053	36.1709
840.104	36.2792
840.154	32.5371
840.205	33.533
840.256	36.4704
840.306	35.0171
840.357	35.8514
840.408	32.0398
840.458	34.7518
840.509	29.2676
840.56	35.8924
840.61	30.1957
840.661	32.7515
840.711	27.6992
840.762	35.9122
840.813	34.1473
840.863	34.9816
840.914	35.7159
840.965	37.0163
841.015	34.15
841.066	33.4775
841.117	28.5379
841.167	36.1846
841.218	30.9577
841.269	34.1936
841.319	29.2602
841.37	29.9206
841.421	29.113
841.471	32.2811
841.522	32.6153
841.573	38.5859
841.623	30.0628
841.674	27.357
841.724	32.5713
841.775	38.2876
841.826	31.6852
841.876	34.6435
841.927	31.1861
841.978	33.2707
842.028	29.8889
842.079	31.9013
842.13	31.0154
842.18	33.4157
842.231	30.9923
842.281	36.4569
842.332	33.5653
842.383	33.714
842.433	34.972
842.484	33.7688
842.535	33.8209
842.585	33.3054
842.636	31.2399
842.687	29.8291
842.737	36.1046
842.788	32.9084
842.838	33.5854
842.889	31.8924
842.94	35.8564
842.99	33.813
843.041	31.1906
843.092	35.5778
843.142	37.3726
843.193	35.7207
843.243	36.0228
843.294	33.4249
843.345	37.424
843.395	33.8955
843.446	31.7688
843.497	30.7643
843.547	36.5457
843.598	30.8646
843.648	33.7826
843.699	31.9022
843.75	37.3301
843.8	35.6404
843.851	33.2556
843.901	29.3186
843.952	33.183
844.003	31.1992
844.053	33.6258
844.104	30.1712
844.155	34.3038
844.205	32.5879
844.256	33.311
844.306	32.4922
844.357	35.0188
844.408	35.5506
844.458	33.7031
844.509	28.9533
844.559	33.8716
844.61	34.0588
844.661	30.2769
844.711	30.9855
844.762	33.0201
844.812	32.232
844.863	32.6046
844.914	31.6926
844.964	34.7836
845.015	32.8255
845.065	29.0193
845.116	32.3043
845.167	32.457
845.217	29.2559
845.268	35.3854
845.318	31.5898
845.369	34.2743
845.42	30.5671
845.47	29.9933
845.521	30.8242
845.571	32.259
845.622	31.5991
845.673	33.3
845.723	32.8771
845.774	32.8981
845.824	29.4777
845.875	30.3566
845.926	29.3962
845.976	32.5631
846.027	29.4997
846.077	26.5658
846.128	33.2915
846.178	33.4959
846.229	30.7527
846.28	27.2878
846.33	30.9125
846.381	32.7367
846.431	33.4252
846.482	34.6312
846.533	34.5939
846.583	31.088
846.634	29.6388
846.684	31.882
846.735	33.4352
846.785	35.2747
846.836	31.0457
846.887	30.1347
846.937	36.0198
846.988	30.7527
847.038	30.34
847.089	31.5204
847.139	34.8006
847.19	33.4318
847.241	31.9327
847.291	33.9261
847.342	36.205
847.392	35.9944
847.443	34.4219
847.493	31.8038
847.544	34.8412
847.595	36.6736
847.645	32.429
847.696	34.7174
847.746	36.6087
847.797	30.7179
847.847	30.8846
847.898	35.4732
847.948	36.2383
847.999	34.0791
848.05	32.4939
848.1	32.4344
848.151	33.2635
848.201	30.6867
848.252	28.3556
848.302	27.7247
848.353	32.6184
848.404	32.2761
848.454	29.7848
848.505	31.1864
848.555	31.4893
848.606	32.9954
848.656	30.0089
848.707	31.2007
848.757	34.1207
848.808	32.932
848.859	29.2013
848.909	31.3418
848.96	32.272
849.01	31.2379
849.061	32.2681
849.111	33.2757
849.162	32.7181
849.212	28.9796
849.263	33.4566
849.313	33.4784
849.364	35.2362
849.414	33.5035
849.465	30.2746
849.516	32.3686
849.566	32.4996
849.617	32.8947
849.667	28.2701
849.718	30.645
849.768	33.1791
849.819	32.5618
849.869	29.2347
849.92	30.0167
849.97	34.4174
850.021	31.8113
850.071	30.3136
850.122	36.1559
850.173	34.7689
850.223	31.1722
850.274	29.2563
850.324	30.4521
850.375	35.0407
850.425	27.773
850.476	27.9431
850.526	31.3446
850.577	31.1542
850.627	33.1715
850.678	27.7463
850.728	31.0432
850.779	29.6545
850.829	32.0241
850.88	30.5999
850.93	36.1307
850.981	33.4373
851.031	29.193
851.082	30.4873
851.133	33.106
851.183	33.1622
851.234	32.7459
851.284	30.5582
851.335	34.049
851.385	35.3812
851.436	33.3996
851.486	32.2896
851.537	32.9857
851.587	28.6777
851.638	30.4816
851.688	29.9637
851.739	33.4498
851.789	31.7281
851.84	31.8139
851.89	31.3888
851.941	31.3149
851.991	35.1876
852.042	32.7675
852.092	34.1332
852.143	35.9423
852.193	33.0006
852.244	30.934
852.294	36.5623
852.345	33.0459
852.395	32.3808
852.446	33.4711
852.496	32.1285
852.547	35.9361
852.597	34.2122
852.648	29.2865
852.698	34.8759
852.749	35.9569
852.799	30.1645
852.85	29.2519
852.9	30.5689
852.951	35.2589
853.001	35.6763
853.052	28.471
853.102	33.2587
853.153	32.9926
853.203	32.9205
853.254	32.7
853.304	31.4496
853.355	28.8335
853.405	28.8987
853.443	24.5663
853.493	30.2625
853.544	35.8298
853.594	32.9213
853.645	26.0234
853.696	30.9291
853.746	28.8913
853.797	33.5308
853.847	30.2023
853.898	32.5288
853.949	31.5481
853.999	30.5637
854.05	29.1249
854.1	33.9226
854.151	33.4748
854.202	36.4479
854.252	26.2795
854.303	30.5811
854.353	28.3769
854.404	31.6815
854.455	31.2743
854.505	29.4714
854.556	32.7527
854.606	29.0542
854.657	28.9763
854.708	33.1875
854.758	32.0268
854.809	34.2485
854.859	33.0504
854.91	33.7454
854.961	32.2988
855.011	34.9135
855.062	34.4866
855.112	35.9704
855.163	40.0333
855.214	32.1134
855.264	29.6831
855.315	25.7581
855.365	30.5374
855.416	27.7282
855.466	27.6893
855.517	26.9369
855.568	37.5049
855.618	28.5834
855.669	31.4496
855.719	30.6187
855.77	34.1096
855.821	30.4312
855.871	33.7593
855.922	33.0468
855.972	37.1407
856.023	31.1033
856.073	26.4052
856.124	26.2501
856.175	30.5289
856.225	30.1659
856.276	33.2457
856.326	28.7996
856.377	34.0588
856.427	28.1587
856.478	30.1478
856.529	26.5089
856.579	35.6438
856.63	26.7025
856.68	30.7485
856.731	29.8984
856.781	34.2286
856.832	31.9886
856.883	32.6884
856.933	31.163
856.984	29.7507
857.034	24.1728
857.085	32.4009
857.135	36.5782
857.186	33.3604
857.237	28.741
857.287	32.7046
857.338	30.7373
857.388	31.1931
857.439	29.9058
857.489	29.0817
857.54	33.6736
857.59	35.7642
857.641	27.5287
857.692	28.2968
857.742	35.2059
857.793	32.0697
857.843	34.5777
857.894	31.4723
857.944	30.5854
857.995	34.7011
858.045	33.6476
858.096	28.6104
858.147	33.9693
858.197	33.1677
858.248	28.7561
858.298	27.3846
858.349	33.6739
858.399	30.0413
858.45	26.5947
858.5	29.8193
858.551	36.3498
858.601	31.9947
858.652	29.3386
858.703	28.0834
858.753	29.8344
858.804	29.2408
858.854	29.9136
858.905	28.7795
858.955	35.2751
859.006	29.9768
859.056	29.4636
859.107	27.6371
859.157	35.6044
859.208	33.5585
859.258	32.5888
859.309	29.6397
859.36	36.8135
859.41	33.8448
859.461	33.5208
859.511	30.1121
859.562	31.1094
859.612	31.9041
859.663	31.8011
859.713	26.1725
859.764	33.1497
859.814	31.7383
859.865	30.6661
859.915	26.1755
859.966	30.5653
860.016	30.5713
860.067	29.7656
860.117	30.3507
860.168	34.6092
860.219	32.0079
860.269	31.715
860.32	25.7536
860.37	35.3687
860.421	32.5702
860.471	31.798
860.522	29.4033
860.572	34.5293
860.623	31.2685
860.673	32.5258
860.724	31.8594
860.774	34.7216
860.825	29.5
860.875	34.5429
860.926	28.7806
860.976	34.9398
861.027	31.126
861.077	27.6823
861.128	29.6383
861.178	29.2088
861.229	30.8998
861.279	28.9308
861.33	27.5832
861.38	32.5315
861.431	27.301
861.481	32.3039
861.532	32.3772
861.582	32.458
861.633	32.9823
861.683	27.0419
861.734	30.6135
861.784	32.8741
861.835	26.2934
861.885	27.1371
861.936	29.7832
861.986	31.9125
862.037	27.7321
862.087	27.5064
862.138	34.3998
862.188	33.5175
862.239	29.6291
862.289	22.2751
862.34	31.8696
862.39	32.6273
862.441	29.3373
862.491	29.3797
862.542	36.4693
862.592	28.8965
862.643	27.1813
862.693	28.4767
862.744	31.572
862.794	31.5754
862.845	34.173
862.895	29.2648
862.946	32.5026
862.996	36.4535
863.047	31.5531
863.097	27.1765
863.148	34.092
863.198	29.9136
863.249	30.8192
863.299	31.7312
863.35	32.2822
863.4	32.5314
863.451	24.8024
863.501	27.9203
863.552	34.5592
863.602	33.0013
863.653	29.5934
863.703	30.3052
863.754	33.7316
863.804	28.3016
863.854	28.9672
863.905	23.6934
863.955	33.1027
864.006	27.826
864.056	28.2934
864.107	27.2077
864.157	30.1955
864.208	33.4196
864.258	30.1751
864.309	29.2589
864.359	36.3889
864.41	35.5722
864.46	33.7774
864.511	27.7805
864.561	33.7626
864.612	33.2543
864.662	32.1271
864.712	31.3757
864.763	30.921
864.813	31.1204
864.864	31.7087
864.914	30.2763
864.965	32.3945
865.015	33.2648
865.066	35.4246
865.116	33.4286
865.167	35.639
865.217	30.8944
865.268	31.0696
865.318	31.0803
865.368	28.8068
865.419	27.6404
865.469	30.8656
865.52	31.7287
865.57	34.4941
865.621	26.2618
865.671	30.9987
865.722	30.7384
865.772	30.7752
865.823	32.0573
865.873	28.7569
865.923	30.1066
865.974	33.6699
866.024	30.1883
866.075	27.174
866.125	25.5767
866.176	32.462
866.226	26.6925
866.276	27.1315
866.327	26.1904
866.377	31.2307
866.428	26.8648
866.478	26.7661
866.529	28.1476
866.579	32.0874
866.63	31.2906
866.68	27.4818
866.73	31.7167
866.781	35.1923
866.831	31.1598
866.882	28.4667
866.932	27.8004
866.983	28.5893
867.033	31.8852
867.083	34.1742
867.134	34.3188
867.184	32.5309
867.235	28.7406
867.285	32.8917
867.336	31.2395
867.386	31.4047
867.436	27.4534
867.487	25.1992
867.537	30.001
867.588	33.3184
867.638	30.2552
867.689	27.661
867.739	29.212
867.789	31.5301
867.84	33.9761
867.89	30.98
867.941	32.1943
867.991	29.2404
868.042	27.5869
868.092	29.5978
868.142	33.844
868.193	31.4431
868.243	30.6857
868.294	29.6701
868.344	27.7215
868.394	31.8301
868.445	32.4856
868.495	28.4788
868.546	31.0617
868.596	31.46
868.647	29.4609
868.697	26.9887
868.747	27.5952
868.798	29.0268
868.848	29.1325
868.899	29.6609
868.949	33.4828
868.999	32.3689
869.05	32.1119
869.1	31.5288
869.151	27.5272
869.201	29.509
869.251	30.7137
869.302	27.3291
869.352	29.3679
869.403	29.5256
869.453	32.1815
869.503	31.6701
869.554	31.2401
869.604	29.6279
869.655	33.6227
869.705	28.7829
869.755	35.1714
869.806	34.4778
869.856	28.137
869.907	29.2375
869.957	30.5537
870.007	31.1234
870.058	35.1122
870.108	30.4744
870.159	33.1031
870.209	32.8366
870.259	30.796
870.31	30.1524
870.36	32.0616
870.41	31.1764
870.461	26.016
870.511	28.0264
870.562	32.9513
870.612	31.0437
870.662	30.89
870.713	29.663
870.731	32.1623
870.782	35.916
870.832	32.9898
870.883	26.2774
870.933	29.0644
870.984	30.3095
871.034	27.7084
871.085	28.3355
871.135	33.5136
871.186	31.9484
871.236	31.2904
871.287	27.4009
871.337	31.4152
871.388	36.3866
871.438	33.3786
871.489	33.5238
871.539	30.2556
871.59	32.2508
871.64	28.9134
871.691	31.6949
871.741	31.0458
871.792	31.2888
871.842	31.4599
871.893	31.9802
871.943	34.6377
871.994	31.7253
872.044	36.8726
872.095	32.684
872.145	31.7039
872.196	28.7729
872.246	29.0907
872.297	28.6931
872.347	33.7421
872.397	32.26
872.448	31.3278
872.498	26.9719
872.549	30.0403
872.599	28.991
872.65	28.5709
872.7	26.5746
872.751	33.9491
872.801	35.984
872.852	31.6181
872.902	29.4865
872.953	28.859
873.003	31.0117
873.054	34.4245
873.104	25.4999
873.155	30.7913
873.205	27.2684
873.256	28.6772
873.306	28.3441
873.357	25.7704
873.407	32.9401
873.458	32.2302
873.508	33.1896
873.558	33.7026
873.609	27.9426
873.659	28.9986
873.71	28.3502
873.76	27.1876
873.811	28.1152
873.861	31.4313
873.912	26.2746
873.962	31.3521
874.013	25.9265
874.063	29.6496
874.114	29.8325
874.164	30.7084
874.215	34.5666
874.265	27.6061
874.315	27.5962
874.366	31.6129
874.416	32.7063
874.467	30.7243
874.517	29.6961
874.568	33.0397
874.618	34.916
874.669	28.0628
874.719	29.1087
874.77	32.0524
874.82	30.0594
874.87	28.9574
874.921	30.0179
874.971	29.0814
875.022	30.5863
875.072	30.6741
875.123	30.3595
875.173	30.6473
875.224	32.476
875.274	35.6366
875.324	28.3778
875.375	31.3238
875.425	33.101
875.476	29.4172
875.526	29.7135
875.577	32.4379
875.627	25.4728
875.678	29.0728
875.728	27.9469
875.779	29.029
875.829	29.5149
875.879	28.9094
875.93	27.2947
875.98	30.897
876.031	31.8849
876.081	29.3705
876.132	30.1293
876.182	31.9019
876.232	27.9299
876.283	27.905
876.333	32.6054
876.384	30.6247
876.434	30.6761
876.485	26.5708
876.535	34.365
876.585	34.3193
876.636	34.2288
876.686	25.4122
876.737	33.0817
876.787	31.2519
876.838	33.3398
876.888	28.0553
876.938	33.6984
876.989	28.5007
877.039	28.33
877.09	27.1273
877.14	28.8611
877.191	30.1695
877.241	32.476
877.291	26.6227
877.342	31.8654
877.392	30.4307
877.443	29.195
877.493	31.0261
877.544	34.1175
877.594	31.2113
877.644	36.1065
877.695	27.4162
877.745	32.4058
877.796	30.0844
877.846	28.6989
877.896	28.5633
877.947	33.0945
877.997	28.8118
878.048	33.0683
878.098	32.0378
878.148	33.5092
878.199	30.7085
878.249	28.6638
878.3	32.962
878.35	30.246
878.4	31.5874
878.451	29.6838
878.501	29.5027
878.552	31.1852
878.602	31.383
878.653	29.5426
878.703	24.4003
878.753	29.4516
878.804	27.394
878.854	28.4077
878.904	25.3049
878.955	29.4302
879.005	31.3684
879.056	29.0548
879.106	26.3727
879.156	28.0852
879.207	28.9637
879.257	30.4154
879.308	27.8744
879.358	28.4368
879.408	28.1423
879.459	32.4094
879.509	32.0357
879.56	30.1224
879.61	29.1214
879.66	26.7443
879.711	30.4155
879.761	32.3141
879.812	31.2315
879.862	30.1268
879.912	28.1343
879.963	27.1503
880.013	35.0906
880.063	30.9744
880.114	30.5697
880.164	30.3085
880.215	31.094
880.265	31.0471
880.315	32.4562
880.366	32.3993
880.416	39.2653
880.467	29.3308
880.517	31.8461
880.567	31.5361
880.618	31.6881
880.668	31.0036
880.718	30.3305
880.769	28.9668
880.819	29.7685
880.87	27.2928
880.92	27.9709
880.97	30.4082
881.021	30.8454
881.071	26.0445
881.121	33.5235
881.172	31.1381
881.222	33.2831
881.273	24.6124
881.323	29.2257
881.373	28.201
881.424	30.4409
881.474	27.3468
881.524	31.7125
881.575	32.9505
881.625	25.6791
881.675	25.8102
881.726	29.9107
881.776	28.0203
881.826	31.9196
881.877	29.1073
881.927	31.1241
881.978	29.7477
882.028	28.5537
882.078	29.4885
882.129	33.1253
882.179	30.7212
882.229	31.9179
882.28	27.5598
882.33	32.2058
882.38	28.5355
882.431	29.3099
882.481	28.6421
882.531	29.9996
882.582	27.7299
882.632	31.1944
882.682	28.8925
882.733	33.095
882.783	29.8539
882.834	27.9853
882.884	27.9268
882.934	28.8744
882.985	29.2106
883.035	33.1012
883.085	28.9769
883.136	28.5215
883.186	29.137
883.236	29.1778
883.287	26.7813
883.337	28.392
883.387	30.1677
883.438	28.39
883.488	26.401
883.538	32.3785
883.589	31.0932
883.639	28.0844
883.689	27.6561
883.74	28.5559
883.79	26.7762
883.84	29.8296
883.891	28.923
883.941	29.3275
883.991	29.8347
884.042	27.3053
884.092	27.0283
884.142	30.8431
884.193	31.7904
884.243	28.7092
884.293	28.1951
884.344	31.4701
884.394	30.7807
884.444	29.0695
884.495	32.5234
884.545	33.6859
884.595	33.2662
884.646	32.2217
884.696	31.0079
884.746	29.3024
884.797	30.2651
884.847	29.9658
884.897	31.437
884.947	30.5778
884.998	26.5384
885.048	28.7594
885.098	32.8755
885.149	32.1713
885.199	30.8782
885.249	29.6822
885.3	35.2049
885.35	34.5914
885.4	34.3826
885.451	32.5141
885.501	27.7793
885.551	31.3804
885.602	34.2767
885.652	33.5168
885.702	32.544
885.752	30.1527
885.803	28.8106
885.853	29.0657
885.903	28.5465
885.954	29.6854
886.004	31.5547
886.054	30.698
886.105	28.0176
886.155	28.1858
886.205	30.8842
886.255	29.6473
886.306	27.2644
886.356	26.7958
886.406	31.076
886.457	32.4679
886.507	31.7645
886.557	28.4389
886.608	30.8654
886.658	29.6296
886.708	28.981
886.758	28.7138
886.809	31.9891
886.859	32.1931
886.909	31.1808
886.96	29.8589
887.01	29.8446
887.06	27.4583
887.11	31.0054
887.161	27.1123
887.211	29.6748
887.261	30.8895
887.312	32.0915
887.362	30.99
887.412	29.7735
887.462	33.505
887.513	31.3125
887.563	28.8863
887.613	32.6764
887.664	31.6929
887.714	32.0064
887.764	29.5646
887.814	31.5658
887.865	30.5874
887.915	31.4351
887.965	28.9815
887.987	27.7021
888.038	31.579
888.088	30.9884
888.138	27.3558
888.189	32.5462
888.239	30.9614
888.289	30.4963
888.34	28.4082
888.39	30.8558
888.441	33.738
888.491	28.903
888.542	25.24
888.592	28.9872
888.642	29.0915
888.693	28.3037
888.743	29.3333
888.793	28.597
888.844	25.4123
888.894	30.1587
888.945	27.3364
888.995	35.2011
889.045	30.0715
889.096	31.4208
889.146	29.8807
889.197	28.9419
889.247	25.6923
889.297	26.7251
889.348	28.6409
889.398	32.8916
889.448	29.5241
889.499	31.0522
889.549	29.0067
889.6	32.6617
889.65	27.4143
889.7	34.7553
889.751	29.7038
889.801	28.06
889.851	30.2297
889.902	31.5056
889.952	29.3554
890.003	29.5075
890.053	25.7033
890.103	29.6297
890.154	31.779
890.204	35.4631
890.254	28.8846
890.305	28.2259
890.355	26.9636
890.406	31.8863
890.456	26.4418
890.506	29.2562
890.557	28.2609
890.607	32.9556
890.657	26.0545
890.708	26.4338
890.758	29.3389
890.808	25.9481
890.859	24.7867
890.909	28.1953
890.96	29.8994
891.01	31.4305
891.06	30.1183
891.111	29.5964
891.161	28.3271
891.211	27.0188
891.262	26.6911
891.312	28.5152
891.362	28.4155
891.413	29.6015
891.463	29.9321
891.513	28.8188
891.564	25.0774
891.614	31.5013
891.665	30.3506
891.715	32.9639
891.765	30.0305
891.816	29.8278
891.866	29.2435
891.916	28.0584
891.967	30.2176
892.017	25.9036
892.067	29.5508
892.118	25.3144
892.168	29.9723
892.218	30.2226
892.269	30.0503
892.319	28.2158
892.369	32.2427
892.42	30.2409
892.47	31.1518
892.52	28.9415
892.571	26.8522
892.621	28.7898
892.671	29.5785
892.722	27.323
892.772	30.7532
892.822	27.8378
892.873	30.8796
892.923	29.3352
892.973	27.7342
893.024	30.6111
893.074	29.6887
893.124	24.0598
893.175	26.327
893.225	27.4646
893.275	28.9719
893.326	27.5554
893.376	27.7039
893.426	27.5668
893.477	29.2367
893.527	28.6585
893.577	28.8644
893.628	25.3479
893.678	30.1502
893.728	28.9444
893.779	28.4885
893.829	28.1184
893.879	28.6893
893.93	28.1621
893.98	28.2447
894.03	27.4607
894.081	29.427
894.131	27.9436
894.181	29.276
894.232	27.8136
894.282	29.3736
894.332	26.0373
894.383	26.3145
894.433	29.3052
894.483	32.9121
894.533	32.5456
894.584	26.9459
894.634	27.1937
894.684	30.102
894.735	28.4447
894.785	28.3527
894.835	28.2059
894.886	29.0273
894.936	29.8766
894.986	29.9686
895.037	28.9378
895.087	32.3084
895.137	29.4133
895.188	31.278
895.238	33.7638
895.288	30.2696
895.338	27.6851
895.389	25.0802
895.439	27.0679
895.489	29.801
895.54	25.7498
895.59	28.4376
895.64	29.5684
895.69	30.2731
895.741	27.6643
895.791	27.5293
895.841	29.014
895.892	29.6061
895.942	26.2377
895.992	29.4024
896.043	30.2256
896.093	27.9794
896.143	26.5267
896.193	27.8723
896.244	33.4671
896.294	30.2338
896.344	24.3161
896.395	26.8982
896.445	31.9354
896.495	27.5916
896.545	26.4444
896.596	26.5776
896.646	29.1246
896.696	29.6562
896.747	30.7969
896.797	28.4513
896.847	29.2376
896.897	27.5338
896.948	27.628
896.998	23.4646
897.048	27.626
897.099	30.6941
897.149	29.908
897.199	27.6465
897.249	31.6861
897.3	26.2561
897.35	28.1432
897.4	28.2625
897.451	29.7224
897.501	28.391
897.551	28.5123
897.601	31.4529
897.652	29.4618
897.702	29.351
897.752	27.7995
897.802	29.8427
897.853	32.1675
897.903	33.0621
897.953	30.1027
898.003	27.8705
898.054	27.322
898.104	32.8174
898.154	28.2525
898.204	27.2595
898.255	29.5736
898.305	28.3118
898.355	27.8012
898.406	25.4513
898.456	31.5584
898.506	30.6648
898.556	27.9704
898.607	27.985
898.657	24.5664
898.707	30.109
898.757	30.2021
898.808	25.9129
898.858	26.9378
898.908	28.1188
898.958	30.5826
899.009	32.6627
899.059	29.1607
899.109	25.6109
899.159	24.7177
899.21	29.3041
899.26	30.6966
899.31	26.1792
899.36	25.4271
899.411	30.0352
899.461	28.9085
899.511	31.4405
899.561	29.4568
899.612	31.1786
899.662	29.5279
899.712	25.4538
899.762	26.6
899.813	30.9797
899.863	29.0209
899.913	27.571
899.963	26.6667
