#Acq. time (s)=	2
#Accumulations=	3
#Range (nm)=	520...900
#Windows=	24
#Auto scanning=	On
#Autofocus=	Off
#AutoExposure=	Off
#Spike filter=	Multiple accum.
#Delay time (s)=	0
#Binning=	1
#Readout mode=	Signal
#DeNoise=	Off
#ICS correction=	Off
#Dark correction=	Off
#Inst. Process=	Off
#Detector temperature (°C)=	-59.98
#Instrument=	LabRAM HR Evol
#Detector=	Syncerity OE
#Objective=	x50_VIS
#Grating=	600 (500nm)
#ND Filter=	25%
#Laser=	514nm_Edge
#Hole=	199.981
#Range=	Auto
#StageXY=	Marzhauser
#StageZ=	Marzhauser
#X (µm)=	-5129.7
#Y (µm)=	8193.4
#Z (µm)=	-417.5
#Full time(mm:ss)=	3:03
#Project=	
#Sample=	
#Site=	
#Title=	M8_140224
#Remark=	
#Date=	19.02.2024 14:58
#Acquired=	19.02.2024 14:58:17
520.013	30.6806
520.065	31.9884
520.117	30.0746
520.17	30.2564
520.222	29.5997
520.274	36.0737
520.327	28.3434
520.379	30.5804
520.431	33.331
520.483	31.5863
520.536	30.756
520.588	31.6558
520.64	31.0855
520.693	32.5029
520.745	30.5128
520.797	31.9076
520.85	29.0388
520.902	32.596
520.954	30.1762
521.007	30.6838
521.059	34.7423
521.111	30.3829
521.163	30.6154
521.216	29.0566
521.268	34.6356
521.32	31.2353
521.373	31.1972
521.425	30.5968
521.477	34.0492
521.529	35.9213
521.582	28.5787
521.634	29.5004
521.686	31.9493
521.739	31.7105
521.791	33.4754
521.843	29.6487
521.896	30.7344
521.948	32.5083
522	30.7192
522.052	31.3305
522.105	35.9397
522.157	31.5149
522.209	31.8585
522.262	29.4865
522.314	31.5214
522.366	28.62
522.418	32.0256
522.471	34.1849
522.523	33.3256
522.575	29.2764
522.628	33.6958
522.68	31.4386
522.732	29.4338
522.784	30.6986
522.837	31.8225
522.889	31.4391
522.941	35.361
522.994	27.7213
523.046	28.4646
523.098	29.2544
523.15	32.7446
523.203	30.1858
523.255	28.4937
523.307	29.9035
523.36	33.519
523.412	33.3204
523.464	32.2098
523.516	25.5661
523.569	31.0706
523.621	31.6501
523.673	36.4263
523.726	29.7188
523.778	35.169
523.83	31.7573
523.882	34.1916
523.935	31.1294
523.987	28.0152
524.039	32.7115
524.091	34.8698
524.144	34.6592
524.196	31.6442
524.248	28.0497
524.301	31.3753
524.353	34.0422
524.405	32.1756
524.457	30.1708
524.51	33.0229
524.562	32.3228
524.614	33.5456
524.666	33.76
524.719	31.3881
524.771	31.9487
524.823	30.7156
524.875	26.2693
524.928	28.7064
524.98	28.1601
525.032	35.662
525.085	32.3318
525.137	31.1789
525.189	33.5377
525.241	30.634
525.294	32.1622
525.346	32
525.398	30.5301
525.45	35.0894
525.503	29.6115
525.555	28.6391
525.607	30.1507
525.659	32.2984
525.712	30.7037
525.764	26.5504
525.816	32.972
525.868	31.8682
525.921	28.9214
525.973	27.0583
526.025	32.8374
526.077	30.3149
526.13	33.1132
526.182	29.2885
526.234	32.7335
526.286	31.2147
526.339	29.9207
526.391	30.7758
526.443	37.5462
526.495	32.5706
526.548	33.4342
526.6	29.7374
526.652	29.7788
526.704	31.0536
526.757	29.6258
526.809	30.7388
526.861	32.1259
526.913	31.8568
526.966	32.5284
527.018	29.8664
527.07	27.7633
527.122	29.5097
527.175	33.0402
527.227	32.609
527.279	31.8785
527.331	32.3626
527.384	30.7612
527.436	29.2909
527.488	33.986
527.54	28.8317
527.593	32.9665
527.645	30.934
527.697	33.3282
527.749	30.6311
527.802	29.4076
527.854	34.1678
527.906	30.6811
527.958	31.0772
528.011	32.1027
528.063	32.1382
528.115	36.3007
528.167	32.1334
528.219	28.573
528.272	33.8281
528.324	33.0497
528.376	26.5664
528.428	26.6566
528.481	29.9114
528.533	34.9294
528.585	29.1038
528.637	27.5258
528.69	31.0052
528.742	33.6143
528.794	32.732
528.846	27.9397
528.898	29.8944
528.951	34.2108
529.003	30.8509
529.055	30.4056
529.107	33.7683
529.16	30.798
529.212	30.9187
529.264	28.4271
529.316	30.0093
529.369	29.121
529.421	32.0605
529.473	32.4067
529.525	35.556
529.577	29.5061
529.63	32.784
529.682	31.933
529.734	33.238
529.786	32.2632
529.839	30.5851
529.891	27.1205
529.943	30.491
529.995	29.7449
530.047	34.9696
530.1	34.4506
530.152	33.2647
530.204	30.7124
530.256	32.3442
530.308	30.5877
530.361	30.8188
530.413	27.8279
530.465	32.2662
530.517	30.1955
530.57	30.4758
530.622	30.2306
530.674	33.9681
530.726	28.8127
530.778	33.9232
530.831	29.4836
530.883	33.6509
530.935	28.9007
530.987	28.2803
531.039	29.7901
531.092	32.538
531.144	34.3181
531.196	31.4897
531.248	31.2476
531.3	35.938
531.353	32.9628
531.405	31.2989
531.457	31.2981
531.509	32.1157
531.561	39.7391
531.614	32.0544
531.666	28.127
531.718	24.6488
531.77	35.7668
531.822	34.4881
531.875	30.0635
531.927	33.9889
531.979	32.3647
532.031	30.1454
532.083	32.8525
532.136	33.4606
532.188	32.5027
532.24	31.0899
532.292	33.3725
532.344	29.4066
532.397	33.0143
532.449	29.7867
532.501	36.0598
532.553	33.8339
532.605	35.1654
532.658	30.8296
532.71	37.1668
532.762	35.248
532.814	32.9653
532.866	27.9452
532.919	32.9512
532.971	33.4085
533.023	34.9497
533.075	31.5359
533.127	32.8318
533.179	29.589
533.232	37.0668
533.284	30.3265
533.336	31.1026
533.388	33.9125
533.44	33.58
533.493	28.2125
533.545	38.1303
533.597	35.5846
533.649	34.8561
533.701	30.7971
533.753	33.9035
533.806	33.1263
533.858	32.8113
533.91	34.4133
533.962	35.6948
534.014	31.7025
534.067	33.9868
534.119	31.8124
534.171	34.4919
534.223	30.4145
534.275	33.0531
534.327	33.9283
534.38	35.0476
534.432	35.4953
534.484	37.3874
534.536	31.954
534.588	40.8774
534.641	37.5735
534.693	37.2776
534.745	38.7904
534.797	41.169
534.849	42.7677
534.901	42.6865
534.953	38.5234
535.006	42.786
535.058	41.9017
535.11	43.562
535.162	45.3421
535.214	46.6197
535.267	41.5959
535.319	38.6744
535.371	38.0741
535.423	39.2111
535.475	42.2809
535.527	34.4773
535.58	41.9766
535.632	39.5623
535.684	40.9
535.736	40.1405
535.788	37.4705
535.84	38.4636
535.892	39.8949
535.945	33.0933
535.997	39.8229
536.049	38.4031
536.101	38.003
536.153	36.9063
536.205	30.8971
536.258	37.9667
536.31	38.3899
536.362	37.6231
536.414	43.5947
536.466	33.6144
536.518	36.2116
536.57	31.5445
536.623	37.1287
536.675	35.8337
536.727	35.3777
536.779	34.3143
536.831	39.8897
536.883	38.0862
536.936	37.9981
536.988	35.7125
537.04	36.6012
537.092	36.6835
537.144	33.2854
537.196	33.4837
537.248	37.9597
537.301	34.4636
537.353	42.3463
537.405	36.0426
537.457	33.4756
537.509	35.3825
537.561	28.7611
537.613	35.4275
537.666	38.2205
537.718	39.2453
537.77	36.6679
537.778	37.3023
537.831	35.1815
537.883	41.761
537.935	37.1989
537.987	38.4568
538.04	32.3596
538.092	37.1965
538.144	32.1048
538.196	33.8153
538.249	35.2385
538.301	40.197
538.353	32.989
538.405	34.8866
538.457	32.0581
538.51	33.3094
538.562	33.7178
538.614	39.427
538.666	34.5681
538.719	40.9353
538.771	34.6382
538.823	33.3079
538.875	34.3763
538.927	35.2245
538.98	33.0544
539.032	33.6574
539.084	36.5191
539.136	35.7311
539.189	35.1604
539.241	34.9221
539.293	34.5139
539.345	41.4171
539.397	36.975
539.45	33.561
539.502	36.4646
539.554	37.5298
539.606	39.5191
539.659	33.1277
539.711	35.1145
539.763	36.4901
539.815	35.0659
539.867	35.3718
539.92	38.5445
539.972	37.3792
540.024	35.2179
540.076	35.0873
540.128	37.0028
540.181	33.6296
540.233	35.8595
540.285	33.5971
540.337	41.5982
540.39	36.1003
540.442	32.3352
540.494	37.212
540.546	39.0451
540.598	34.9603
540.651	36.1015
540.703	33.151
540.755	33.6323
540.807	30.0874
540.859	34.2335
540.912	35.3987
540.964	32.5898
541.016	33.5205
541.068	36.0414
541.12	29.6403
541.173	34.6547
541.225	35.1903
541.277	32.1785
541.329	35.2958
541.381	36.159
541.434	36.4933
541.486	35.3332
541.538	37.9151
541.59	34.5476
541.642	32.2068
541.695	31.2609
541.747	41.009
541.799	41.4053
541.851	39.3967
541.903	36.4325
541.956	36.6103
542.008	37.5473
542.06	31.0138
542.112	39.6932
542.164	39.8209
542.217	36.0941
542.269	35.1337
542.321	37.8663
542.373	29.9417
542.425	39.6612
542.478	36.1018
542.53	34.9298
542.582	36.4258
542.634	39.6235
542.686	36.302
542.738	33.7764
542.791	35.4654
542.843	41.1763
542.895	35.1111
542.947	34.658
542.999	35.704
543.052	38.4571
543.104	38.8448
543.156	41.6325
543.208	39.3467
543.26	39.872
543.313	37.8223
543.365	34.25
543.417	38.8691
543.469	42.0296
543.521	45.001
543.573	32.6164
543.626	39.9709
543.678	37.0504
543.73	39.9497
543.782	33.1838
543.834	43.6666
543.886	36.4525
543.939	39.9943
543.991	40.4969
544.043	33.015
544.095	33.5098
544.147	37.9415
544.2	35.1712
544.252	39.0789
544.304	39.209
544.356	41.8802
544.408	38.0299
544.46	40.2723
544.513	40.1729
544.565	38.626
544.617	41.1968
544.669	35.3352
544.721	35.4559
544.773	34.3238
544.826	34.9578
544.878	36.6013
544.93	36.1109
544.982	36.8464
545.034	38.0276
545.086	43.4048
545.139	35.1751
545.191	35.2697
545.243	43.189
545.295	40.915
545.347	38.3118
545.399	34.3528
545.452	42.923
545.504	42.1299
545.556	34.4813
545.608	41.1095
545.66	39.9786
545.712	42.2708
545.765	37.0282
545.817	41.1123
545.869	34.1658
545.921	38.0759
545.973	31.3859
546.025	40.8939
546.077	43.2516
546.13	43.8198
546.182	47.4802
546.234	41.8325
546.286	41.3924
546.338	42.3108
546.39	39.7395
546.443	42.4936
546.495	38.9682
546.547	41.3538
546.599	46.6346
546.651	44.5478
546.703	35.5224
546.755	41.9342
546.808	45.7682
546.86	39.6861
546.912	39.624
546.964	41.271
547.016	42.3214
547.068	38.5445
547.12	39.6574
547.173	45.5061
547.225	43.2611
547.277	40.3967
547.329	44.8964
547.381	34.5732
547.433	42.924
547.485	38.9566
547.538	41.684
547.59	44.2887
547.642	46.8824
547.694	47.4118
547.746	46.3058
547.798	43.971
547.85	42.2979
547.903	44.8351
547.955	43.5795
548.007	39.012
548.059	43.9275
548.111	43.9242
548.163	50.4264
548.215	43.5024
548.268	44.6223
548.32	46.2202
548.372	41.7534
548.424	48.0034
548.476	48.4838
548.528	44.8571
548.58	48.4285
548.633	41.9158
548.685	42.5289
548.737	45.5567
548.789	47.8076
548.841	41.7099
548.893	43.2442
548.945	38.7391
548.997	41.4406
549.049	46.4889
549.102	48.0589
549.154	44.7492
549.206	49.8842
549.258	47.432
549.31	44.9125
549.362	48.4877
549.414	49.4073
549.467	44.0552
549.519	48.2644
549.571	45.6518
549.623	50.6643
549.675	51.5137
549.727	54.5578
549.779	49.6086
549.831	54.0773
549.883	40.6243
549.936	48.2766
549.988	49.132
550.04	49.2097
550.092	54.917
550.144	52.1385
550.196	52.1354
550.248	52.3744
550.3	49.972
550.353	51.7612
550.405	55.7847
550.457	57.64
550.509	51.9598
550.561	56.2033
550.613	52.6407
550.665	63.951
550.717	60.1992
550.769	61.9563
550.822	56.8562
550.874	59.9132
550.926	59.2192
550.978	67.2799
551.03	69.8074
551.082	65.9084
551.134	70.1966
551.186	70.3689
551.238	76.2072
551.291	78.8283
551.343	74.1577
551.395	87.5973
551.447	85.8887
551.499	81.6551
551.551	91.7275
551.603	100.047
551.655	108.155
551.707	106.709
551.759	117.452
551.812	121.392
551.864	127.905
551.916	142.685
551.968	150.027
552.02	164.667
552.072	193.022
552.124	219.749
552.176	255.76
552.228	311.138
552.28	382.121
552.332	527.65
552.385	860.819
552.437	1812.04
552.489	3895.75
552.541	7396.98
552.593	13512.5
552.645	23076.8
552.697	26173.8
552.749	17712
552.801	8391.26
552.853	3182.75
552.905	1273.1
552.958	704.698
553.01	463.209
553.062	346.518
553.114	279.491
553.166	227.065
553.218	192.591
553.27	169.483
553.322	151.849
553.374	136.213
553.426	121.827
553.478	117.16
553.531	109.198
553.583	98.425
553.635	95.0646
553.687	93.3035
553.739	92.1861
553.791	88.2187
553.843	80.5574
553.895	76.4989
553.947	77.1216
553.999	73.4126
554.051	67.762
554.103	66.236
554.155	64.3802
554.208	68.8
554.26	66.2846
554.312	64.5883
554.364	64.936
554.416	60.9868
554.468	60.9393
554.52	60.6249
554.572	58.1964
554.624	57.0306
554.676	59.4858
554.728	58.8029
554.78	56.8591
554.832	57.4214
554.884	61.0265
554.937	56.0261
554.989	54.4732
555.041	57.3981
555.093	59.091
555.145	56.2508
555.197	55.2156
555.249	54.193
555.301	57.3563
555.353	59.9863
555.405	56.9953
555.457	56.2016
555.509	55.174
555.529	54.0266
555.582	55.0208
555.634	50.0867
555.686	60.8832
555.738	47.221
555.79	48.0266
555.842	51.936
555.895	54.9464
555.947	53.1202
555.999	59.8435
556.051	53.4931
556.103	51.2528
556.155	51.9196
556.207	59.6639
556.26	53.2244
556.312	52.316
556.364	53.9498
556.416	54.6871
556.468	48.5228
556.52	49.1795
556.573	55.3329
556.625	53.8208
556.677	47.2659
556.729	51.142
556.781	51.1084
556.833	59.3364
556.885	53.3056
556.938	52.235
556.99	48.7823
557.042	47.4174
557.094	51.0115
557.146	56.9037
557.198	50.1052
557.25	54.9639
557.302	54.779
557.355	57.3993
557.407	54.1284
557.459	59.0909
557.511	58.3858
557.563	53.1889
557.615	52.4279
557.667	54.6791
557.72	53.327
557.772	55.8345
557.824	54.0632
557.876	55.3779
557.928	54.3527
557.98	58.3504
558.032	49.0628
558.085	55.1831
558.137	51.9016
558.189	54.7939
558.241	55.3314
558.293	57.3075
558.345	55.0979
558.397	57.9495
558.449	54.2223
558.502	54.609
558.554	51.2914
558.606	57.6711
558.658	56.7503
558.71	59.0584
558.762	53.0521
558.814	59.1665
558.866	54.0756
558.919	58.1475
558.971	52.5014
559.023	56.7114
559.075	56.1535
559.127	58.3321
559.179	57.2452
559.231	56.5101
559.283	54.4501
559.336	60.4615
559.388	59.842
559.44	57.1208
559.492	57.1662
559.544	53.9384
559.596	54.86
559.648	56.4324
559.7	57.052
559.753	49.926
559.805	59.9474
559.857	64.7977
559.909	58.0761
559.961	57.6642
560.013	58.4158
560.065	60.2082
560.117	62.5621
560.169	52.6836
560.222	58.4598
560.274	58.2878
560.326	61.6981
560.378	55.508
560.43	58.3812
560.482	62.3635
560.534	56.898
560.586	56.0285
560.638	60.1681
560.69	59.7614
560.743	63.2596
560.795	57.1713
560.847	58.4229
560.899	63.3569
560.951	61.9412
561.003	54.1942
561.055	61.2618
561.107	59.2933
561.159	63.2976
561.212	58.1363
561.264	58.0955
561.316	60.7349
561.368	63.8443
561.42	59.5721
561.472	64.5714
561.524	62.3108
561.576	64.2141
561.628	62.1026
561.68	59.4089
561.733	64.121
561.785	62.0833
561.837	58.6274
561.889	61.5533
561.941	61.1886
561.993	57.5963
562.045	59.741
562.097	63.5231
562.149	56.8324
562.201	67.1273
562.253	64.016
562.306	60.2551
562.358	57.3324
562.41	58.6842
562.462	58.1045
562.514	64.6106
562.566	67.0932
562.618	67.4863
562.67	65.6588
562.722	70.3764
562.774	62.7553
562.826	62.7238
562.879	69.4183
562.931	63.9116
562.983	71.553
563.035	71.8854
563.087	65.9023
563.139	74.4218
563.191	67.2563
563.243	63.6502
563.295	64.4884
563.347	65.3844
563.399	72.1233
563.451	67.0989
563.504	68.7985
563.556	69.6706
563.608	64.454
563.66	65.4588
563.712	69.3288
563.764	71.0517
563.816	77.2056
563.868	73.5648
563.92	68.9211
563.972	72.2961
564.024	71.5868
564.076	71.444
564.128	75.7406
564.181	72.7137
564.233	72.1863
564.285	69.6227
564.337	75.3482
564.389	73.1508
564.441	74.1971
564.493	71.9545
564.545	73.8949
564.597	72.8431
564.649	72.0567
564.701	67.464
564.753	72.2459
564.805	72.7801
564.857	72.4887
564.909	68.0246
564.962	74.2409
565.014	71.9492
565.066	69.7529
565.118	68.9164
565.17	70.0319
565.222	75.8356
565.274	76.4802
565.326	71.4846
565.378	73.3187
565.43	76.6326
565.482	75.3
565.534	71.6552
565.586	71.6988
565.638	74.3471
565.69	75.5438
565.742	70.6845
565.795	75.9103
565.847	73.5249
565.899	67.698
565.951	70.6029
566.003	73.2514
566.055	74.1404
566.107	78.0473
566.159	76.8695
566.211	76.0155
566.263	73.9671
566.315	74.0767
566.367	78.2072
566.419	76.7506
566.471	78.6604
566.523	78.8888
566.575	75.4174
566.627	73.5616
566.679	71.8931
566.732	70.7881
566.784	73.7986
566.836	73.2113
566.888	75.4724
566.94	74.3832
566.992	74.4148
567.044	77.3871
567.096	75.8377
567.148	71.6918
567.2	73.7513
567.252	74.8441
567.304	77.9843
567.356	80.3639
567.408	77.3363
567.46	78.5635
567.512	79.3158
567.564	75.1777
567.616	81.3303
567.668	79.9618
567.72	80.4407
567.772	83.021
567.824	80.9486
567.876	81.9094
567.928	80.79
567.98	80.7693
568.033	82.4673
568.085	86.6561
568.137	86.6076
568.189	77.1108
568.241	79.6711
568.293	81.6019
568.345	76.9469
568.397	79.2234
568.449	86.3505
568.501	86.3787
568.553	83.4745
568.605	86.7718
568.657	86.0281
568.709	83.6425
568.761	83.6666
568.813	82.9229
568.865	83.5308
568.917	83.2986
568.969	84.3887
569.021	82.3806
569.073	85.2346
569.125	85.8299
569.177	83.2269
569.229	82.5653
569.281	87.4861
569.333	89.9478
569.385	86.8953
569.437	88.788
569.489	88.9442
569.541	88.0565
569.593	88.2451
569.645	85.5849
569.697	86.8912
569.749	89.287
569.801	87.7911
569.853	89.7316
569.905	88.3368
569.957	89.2466
570.009	90.5713
570.061	90.0829
570.113	91.9778
570.165	94.1867
570.217	88.6301
570.269	93.1105
570.321	94.0154
570.374	91.7919
570.426	90.9039
570.478	97.9409
570.53	97.8601
570.582	94.0424
570.634	87.9381
570.686	90.6067
570.738	93.699
570.79	94.6091
570.842	93.3442
570.894	97.0908
570.946	98.5568
570.998	98.857
571.05	91.9713
571.102	95.2801
571.154	101.729
571.206	98.3227
571.258	94.8059
571.31	97.6359
571.362	100.786
571.414	101.115
571.466	100.804
571.518	100.265
571.57	105.076
571.622	100.943
571.674	101.475
571.726	103.153
571.778	105.118
571.83	104.648
571.882	103.098
571.934	104.017
571.986	111.428
572.038	108.606
572.09	113.061
572.142	112.112
572.194	114.643
572.246	115.731
572.298	110.439
572.349	112.791
572.401	114.901
572.453	115.46
572.505	115.252
572.557	117.72
572.609	118.746
572.661	116.9
572.713	117.459
572.765	116.267
572.817	123.74
572.869	124.033
572.921	121.344
572.973	119.779
573.025	121.712
573.077	123.408
573.129	126.836
573.181	131.493
573.212	140.937
573.264	130.327
573.316	140.179
573.368	134.863
573.421	132.668
573.473	133.195
573.525	135.951
573.577	142.252
573.629	143.492
573.681	143.893
573.733	149.084
573.785	139.811
573.837	144.792
573.889	152.69
573.941	146.743
573.993	155.064
574.045	154.536
574.097	155.258
574.15	157.908
574.202	162.432
574.254	161.179
574.306	166.142
574.358	167.727
574.41	172.132
574.462	172.84
574.514	172.136
574.566	181.466
574.618	179.843
574.67	181.823
574.722	189.892
574.774	194.981
574.826	188.796
574.878	194.743
574.931	190.754
574.983	191.244
575.035	191.335
575.087	199.631
575.139	205.126
575.191	201.869
575.243	212.446
575.295	204.037
575.347	209.49
575.399	209.261
575.451	218.423
575.503	222.773
575.555	223.656
575.607	214.71
575.659	221.844
575.711	225.313
575.763	215.274
575.815	211.454
575.868	220.424
575.92	218.865
575.972	223.194
576.024	220.245
576.076	223.139
576.128	218.371
576.18	213.63
576.232	218.036
576.284	213.034
576.336	212.366
576.388	207.756
576.44	208.552
576.492	211.006
576.544	213.937
576.596	209.959
576.648	211.158
576.7	205.67
576.752	200.728
576.804	202.208
576.856	199.203
576.909	201.205
576.961	198.529
577.013	198.458
577.065	195.402
577.117	198.628
577.169	190.852
577.221	193.09
577.273	188.966
577.325	183.258
577.377	186.949
577.429	183.05
577.481	176.789
577.533	178.881
577.585	180.093
577.637	180.5
577.689	180.765
577.741	173.561
577.793	163.448
577.845	174.122
577.897	168.211
577.949	175.065
578.001	168.983
578.053	169.483
578.105	163.399
578.157	174.004
578.209	164.15
578.261	165.318
578.313	170.741
578.365	171.538
578.417	162.695
578.469	162.983
578.522	161.647
578.574	152.555
578.626	163.446
578.678	165.579
578.73	160.763
578.782	165.717
578.834	160.178
578.886	155.9
578.938	158.767
578.99	158.957
579.042	167.788
579.094	162.753
579.146	160.029
579.198	162.216
579.25	161.127
579.302	161.116
579.354	166.176
579.406	164.035
579.458	164.06
579.51	161.07
579.562	165.756
579.614	164.144
579.666	166.754
579.718	170.267
579.77	170.465
579.822	167.806
579.874	171.238
579.926	171.948
579.978	163.979
580.03	161.045
580.082	162.582
580.134	168.677
580.186	174.034
580.238	173.132
580.29	174.81
580.342	172.034
580.394	170.474
580.446	171.649
580.498	166.604
580.55	165.191
580.602	170.177
580.654	170.894
580.706	172.148
580.758	164.129
580.81	162.194
580.862	167.334
580.914	165.97
580.966	161.932
581.018	162.069
581.07	171.809
581.122	170.576
581.174	168.331
581.226	165.119
581.278	169.274
581.33	173.006
581.382	175.713
581.434	181.212
581.486	176.369
581.538	180.735
581.59	179.259
581.642	179.921
581.694	179.289
581.746	180.803
581.798	168.603
581.85	172.907
581.902	182.138
581.954	179.165
582.006	173.831
582.058	177.574
582.11	180.297
582.162	181.337
582.214	182.068
582.266	191.613
582.318	188.405
582.37	185.094
582.422	193.629
582.474	191.404
582.526	188.267
582.578	188.075
582.63	195.409
582.682	195.97
582.734	191.602
582.786	187.324
582.838	195.604
582.89	196.322
582.942	198.211
582.994	197.529
583.046	194.842
583.098	191.694
583.15	197.161
583.202	196.545
583.254	198.309
583.306	196.422
583.358	203.28
583.41	205.809
583.462	205.792
583.514	200.531
583.566	201.757
583.618	209.484
583.67	206.607
583.721	207.962
583.773	209.408
583.825	212.089
583.877	215.439
583.929	211.346
583.981	213.248
584.033	210.856
584.085	206.387
584.137	208.367
584.189	221.305
584.241	216.653
584.293	215.581
584.345	217.004
584.397	215.901
584.449	215.635
584.501	227.567
584.553	227.292
584.605	228.459
584.657	233.099
584.709	228.313
584.761	227.653
584.813	227.572
584.865	234.075
584.917	238.76
584.969	233.027
585.021	230.68
585.073	234.377
585.125	237.127
585.177	233.666
585.229	235.244
585.281	237.97
585.332	234.296
585.384	239.814
585.436	245.346
585.488	235.9
585.54	238.792
585.592	236.942
585.644	245.861
585.696	242.793
585.748	237.976
585.8	241.533
585.852	243.579
585.904	237.055
585.956	234.569
586.008	242.384
586.06	250.787
586.112	245.702
586.164	243.429
586.216	251.589
586.268	250.43
586.32	250.817
586.371	247.937
586.423	250.312
586.475	252.992
586.527	244.762
586.579	245.59
586.631	252.763
586.683	252.749
586.735	256.444
586.787	253.77
586.839	258.447
586.891	250.809
586.943	250.058
586.995	247.512
587.047	252.625
587.099	259.566
587.151	258.898
587.203	254.706
587.255	254.14
587.306	255.33
587.358	265.789
587.41	262.294
587.462	264.507
587.514	269.049
587.566	272.221
587.618	264.488
587.67	265.313
587.722	265.73
587.774	270.131
587.826	271.319
587.878	269.471
587.93	270.543
587.982	266.786
588.034	269.927
588.085	277.571
588.137	270.147
588.189	265.983
588.241	279.142
588.293	277.232
588.345	276.73
588.397	279.903
588.449	278.986
588.501	277.374
588.553	284.107
588.605	293.75
588.657	293.316
588.709	289.77
588.76	290.171
588.812	283.422
588.864	288.733
588.916	296.265
588.968	299.84
589.02	300.959
589.072	294.235
589.124	303.684
589.176	304.067
589.228	321.23
589.28	323.832
589.332	321.289
589.383	310.96
589.435	324.775
589.487	316.571
589.539	313.133
589.591	309.814
589.643	309.118
589.695	322.066
589.747	320.864
589.799	319.369
589.851	302.347
589.903	303.692
589.955	295.781
590.006	303.11
590.058	305.469
590.11	304.856
590.162	304.881
590.214	301.917
590.266	297.092
590.318	300.351
590.37	300.906
590.422	307.205
590.474	305.135
590.525	302.777
590.577	311.333
590.629	295.506
590.681	299.504
590.733	303.87
590.785	289.146
590.837	291.666
590.889	296.707
590.932	280.044
590.984	292.017
591.036	272.231
591.088	295.849
591.14	295.03
591.192	266.343
591.244	282.01
591.296	269.694
591.348	274.549
591.4	277.108
591.452	277.044
591.504	267.087
591.556	279.205
591.608	267.188
591.66	251.817
591.712	258.765
591.764	252.227
591.816	244.432
591.868	256.262
591.92	254.86
591.972	246.544
592.024	256.676
592.076	254.22
592.128	248.662
592.18	252.383
592.232	244.68
592.284	243.198
592.336	244.571
592.388	247.775
592.44	260.099
592.492	244.307
592.544	240.535
592.596	258.568
592.648	248.542
592.7	243.653
592.752	248.595
592.804	246.037
592.856	253.278
592.908	246.728
592.96	250.168
593.012	248.171
593.064	239.491
593.116	247.349
593.168	248.061
593.22	239.192
593.272	251.648
593.324	248.38
593.376	252.438
593.428	243.949
593.479	249.446
593.531	241.473
593.583	245.074
593.635	246.579
593.687	252.377
593.739	242.4
593.791	245.973
593.843	242.357
593.895	253.827
593.947	242.497
593.999	246.941
594.051	242.336
594.103	237.591
594.155	246.918
594.207	239.162
594.259	247.441
594.311	250.064
594.363	251.818
594.415	239.018
594.467	237.396
594.519	245.664
594.571	234.54
594.623	249.503
594.675	253.628
594.727	250.321
594.779	254.19
594.831	243.972
594.883	242.712
594.935	241.49
594.986	246.511
595.038	252.752
595.09	248.749
595.142	245.714
595.194	243.324
595.246	243.099
595.298	246.279
595.35	245.224
595.402	251.461
595.454	244.432
595.506	246.048
595.558	249.456
595.61	246.442
595.662	254.944
595.714	252.372
595.766	248.695
595.818	253.09
595.87	259.395
595.922	252.076
595.974	255.809
596.026	262.499
596.077	261.583
596.129	252.852
596.181	261.453
596.233	267.883
596.285	258.133
596.337	269.993
596.389	267.118
596.441	276.879
596.493	273.783
596.545	281.614
596.597	282.548
596.649	287.54
596.701	278.165
596.753	281.035
596.805	276.148
596.857	265.058
596.909	259.376
596.96	257.546
597.012	255.62
597.064	249.638
597.116	245.363
597.168	247.068
597.22	243.972
597.272	254.079
597.324	247.197
597.376	241.377
597.428	240.717
597.48	248.573
597.532	242.84
597.584	245.693
597.636	245.346
597.688	250.476
597.739	255.816
597.791	258.91
597.843	246.897
597.895	248.825
597.947	240.605
597.999	240.801
598.051	236.209
598.103	247.93
598.155	245.745
598.207	249.494
598.259	240.411
598.311	247.937
598.363	247.095
598.414	249.221
598.466	239.232
598.518	241.471
598.57	248.801
598.622	248.149
598.674	249.721
598.726	249.66
598.778	245.863
598.83	238.47
598.882	232.473
598.934	238.577
598.986	233.981
599.037	242.049
599.089	245.929
599.141	243.228
599.193	244.953
599.245	248.722
599.297	237.184
599.349	238.569
599.401	237.927
599.453	241.644
599.505	235.583
599.557	232.783
599.609	241.732
599.66	244.812
599.712	239.189
599.764	240.658
599.816	242.697
599.868	237.695
599.92	236.861
599.972	241.968
600.024	235.304
600.076	240.934
600.128	240.701
600.18	245.061
600.231	230.824
600.283	232.329
600.335	239.515
600.387	242.642
600.439	240.683
600.491	244.03
600.543	245.367
600.595	242.321
600.647	236.279
600.699	236.861
600.75	237.88
600.802	232.542
600.854	237.667
600.906	240.053
600.958	242.776
601.01	237.649
601.062	239.546
601.114	239.247
601.166	237.996
601.217	232.482
601.269	234.494
601.321	235.232
601.373	228.964
601.425	236.178
601.477	237.379
601.529	237.637
601.581	241.718
601.633	240.731
601.685	235.299
601.736	238.887
601.788	239.379
601.84	241.384
601.892	233.577
601.944	233.644
601.996	229.587
602.048	235.21
602.1	239.708
602.151	245.045
602.203	242.258
602.255	244.787
602.307	241.222
602.359	248.401
602.411	243.075
602.463	238.028
602.515	241.573
602.567	243.814
602.618	241.201
602.67	247.09
602.722	240.587
602.774	240.088
602.826	245.316
602.878	246.483
602.93	238.431
602.982	243.679
603.033	241.431
603.085	243.161
603.137	246.304
603.189	242.374
603.241	242.002
603.293	244.405
603.345	239.257
603.396	252.337
603.448	248.324
603.5	241.177
603.552	243.66
603.604	247.333
603.656	247.109
603.708	242.351
603.76	234.062
603.811	243.956
603.863	245.836
603.915	248.605
603.967	249.46
604.019	249.109
604.071	248.011
604.123	254.599
604.174	246.734
604.226	253.506
604.278	253.507
604.33	249.965
604.382	242.17
604.434	248.238
604.486	251.731
604.538	247.457
604.589	252.588
604.641	249.385
604.693	247.268
604.745	241.489
604.797	246.78
604.849	251.006
604.901	245.285
604.952	243.9
605.004	245.129
605.056	243.965
605.108	253.091
605.16	249.929
605.212	240.534
605.263	246.03
605.315	249.079
605.367	246.996
605.419	252.593
605.471	247.826
605.523	248.833
605.575	237.683
605.626	247.519
605.678	257.4
605.73	257.604
605.782	250.404
605.834	251.86
605.886	253.103
605.938	252.323
605.989	246.343
606.041	248.802
606.093	258.198
606.145	249.595
606.197	240.375
606.249	248.426
606.3	254.933
606.352	252.293
606.404	240.693
606.456	245.529
606.508	250.012
606.56	242.576
606.611	250.994
606.663	254.68
606.715	256.095
606.767	254.804
606.819	242.563
606.871	251.21
606.922	251.608
606.974	256.112
607.026	250.954
607.078	253.425
607.13	256.403
607.182	260.816
607.233	253.418
607.285	249.965
607.337	249.23
607.389	251.627
607.441	247.69
607.493	249.801
607.544	253.845
607.596	248.62
607.648	254.431
607.7	247.538
607.752	244.53
607.803	255.256
607.855	258.288
607.907	249.519
607.959	248.679
608.011	244.649
608.063	247.748
608.114	255.633
608.166	256.53
608.218	253.846
608.27	250.578
608.322	259.117
608.374	255.668
608.425	256.699
608.477	252.894
608.529	252.416
608.56	249.105
608.612	258.499
608.664	245.572
608.716	254.824
608.768	256.839
608.82	260.341
608.872	256.317
608.924	256.577
608.976	254.365
609.027	257.319
609.079	249.561
609.131	249.825
609.183	262.422
609.235	266.566
609.287	257.28
609.339	266.664
609.391	260.794
609.443	254.819
609.495	258.081
609.547	254.283
609.598	262.789
609.65	265.942
609.702	258.242
609.754	263.934
609.806	264.368
609.858	259.487
609.91	261.526
609.962	256.899
610.014	270.587
610.065	263.949
610.117	260.952
610.169	260.888
610.221	272.611
610.273	275.543
610.325	246.449
610.377	258.333
610.429	274.038
610.481	265.788
610.533	263.424
610.584	256.106
610.636	260.774
610.688	256.957
610.74	260.337
610.792	270.001
610.844	261.534
610.896	255.919
610.948	270.507
611	272.463
611.052	271.856
611.103	252.829
611.155	263.348
611.207	273.421
611.259	271.847
611.311	263.823
611.363	273.354
611.415	271.762
611.467	276.235
611.518	276.757
611.57	268.16
611.622	258.584
611.674	257.393
611.726	265.315
611.778	268.715
611.83	274.639
611.882	271.328
611.934	266.563
611.985	266.251
612.037	260.449
612.089	267.573
612.141	267.329
612.193	275.641
612.245	269.525
612.297	268.203
612.349	258.955
612.4	275.286
612.452	275.286
612.504	271.498
612.556	272.16
612.608	289.538
612.66	268.167
612.712	268.663
612.764	270.89
612.815	274.915
612.867	281.577
612.919	272.824
612.971	270.15
613.023	285.916
613.075	282.873
613.127	290.097
613.179	264.095
613.23	285.797
613.282	275.816
613.334	272.72
613.386	272.415
613.438	275.585
613.49	283.226
613.542	278.479
613.594	266.576
613.645	275.813
613.697	275.398
613.749	289.948
613.801	273.116
613.853	272.017
613.905	293.585
613.957	286.667
614.008	274.638
614.06	278.262
614.112	278.022
614.164	281.009
614.216	276.762
614.268	290.895
614.32	281.695
614.371	284.36
614.423	271.604
614.475	279.843
614.527	282.874
614.579	281.808
614.631	292.626
614.683	272.71
614.734	278.564
614.786	287.133
614.838	285.557
614.89	284.907
614.942	286.576
614.994	289.102
615.045	288.35
615.097	277.652
615.149	292.835
615.201	276.401
615.253	283.789
615.305	287.456
615.357	291.537
615.408	287.526
615.46	281.828
615.512	291.221
615.564	291.079
615.616	278.97
615.668	288.179
615.719	295.394
615.771	307.036
615.823	288.394
615.875	300.242
615.927	290.598
615.979	295.987
616.031	289.474
616.082	300.473
616.134	297.268
616.186	299.099
616.238	291.385
616.29	297.799
616.342	301.32
616.393	295.561
616.445	302.466
616.497	309.285
616.549	300.045
616.601	304.297
616.653	299.718
616.704	301.437
616.756	303.928
616.808	296.474
616.86	294.335
616.912	290.849
616.964	304.791
617.015	303.394
617.067	303.107
617.119	301.175
617.171	305.618
617.223	302.133
617.274	294.948
617.326	313.519
617.378	305.844
617.43	305.663
617.482	297.89
617.534	316.677
617.585	294.942
617.637	309.399
617.689	296.638
617.741	308.101
617.793	302.411
617.845	309.573
617.896	307.536
617.948	305.962
618	314.695
618.052	314.796
618.104	312.596
618.155	317.401
618.207	311.163
618.259	305.853
618.311	312.653
618.363	302.475
618.415	306.495
618.466	314.887
618.518	313.232
618.57	324.673
618.622	312.735
618.674	297.657
618.725	308.747
618.777	313.946
618.829	313.8
618.881	305.248
618.933	314.13
618.984	313.321
619.036	312.674
619.088	323.328
619.14	312.092
619.192	316.164
619.244	316.131
619.295	312.868
619.347	328.308
619.399	321.062
619.451	326.085
619.503	320.393
619.554	315.247
619.606	317.081
619.658	317.221
619.71	316.647
619.762	314.67
619.813	325.052
619.865	322.078
619.917	317.979
619.969	327.968
620.021	309.327
620.072	313.972
620.124	323.379
620.176	326.666
620.228	329.722
620.279	326.804
620.331	318.457
620.383	311.585
620.435	319.122
620.487	333.654
620.538	321.374
620.59	314.062
620.642	327.954
620.694	322.886
620.746	313.808
620.797	322.269
620.849	327.155
620.901	333.45
620.953	325.111
621.005	322.29
621.056	331.503
621.108	328.493
621.16	329.851
621.212	334.298
621.263	331.711
621.315	319.279
621.367	319.238
621.419	321.857
621.471	312.569
621.522	326.686
621.574	326.091
621.626	327.983
621.678	336.938
621.729	333.286
621.781	331.991
621.833	322.777
621.885	337.584
621.937	327.195
621.988	324.665
622.04	327.23
622.092	328.42
622.144	322.584
622.195	325.179
622.247	329.349
622.299	324.656
622.351	311.378
622.403	325.947
622.454	321.149
622.506	325.754
622.558	336.65
622.61	331.227
622.661	327.751
622.713	325.241
622.765	324.056
622.817	330.226
622.869	331.552
622.92	329.516
622.972	333.103
623.024	329.781
623.076	324.228
623.127	325.711
623.179	331.513
623.231	319.64
623.283	329.847
623.334	339.785
623.386	328.384
623.438	325.471
623.49	328.065
623.541	326.853
623.593	332.937
623.645	324.734
623.697	332.174
623.748	329.899
623.8	328.411
623.852	332.602
623.904	335.762
623.956	339.57
624.007	326.608
624.059	320.233
624.111	332.556
624.162	329.098
624.214	327.701
624.266	323.084
624.318	332.713
624.37	336.709
624.421	331.827
624.473	329.952
624.525	334.999
624.576	332.74
624.628	320.762
624.68	330.288
624.732	326.183
624.784	327.517
624.835	324.273
624.887	337.914
624.939	337.993
624.99	331.569
625.042	326.097
625.094	325.368
625.146	327.066
625.197	323.282
625.249	324.51
625.301	323.469
625.353	325.971
625.404	328.961
625.456	337.048
625.508	339.513
625.56	331.447
625.611	332.885
625.663	335.171
625.715	323.246
625.767	326.327
625.818	325.026
625.87	330.273
625.922	337.702
625.974	328.762
626.025	340.608
626.077	339.29
626.129	337.787
626.18	332.169
626.197	323.398
626.249	329.055
626.3	343.367
626.352	332.9
626.404	339.923
626.456	336.979
626.508	332.529
626.56	342.766
626.611	342.385
626.663	338.496
626.715	331.634
626.767	343.674
626.819	340.886
626.87	344.499
626.922	335.746
626.974	335.24
627.026	353.606
627.078	346.001
627.13	334.497
627.181	333.58
627.233	340.973
627.285	340.588
627.337	342.55
627.389	339.982
627.44	348.067
627.492	336.957
627.544	338.144
627.596	330.842
627.648	350.674
627.7	346.094
627.751	338.181
627.803	320.888
627.855	339.101
627.907	350.167
627.959	346.729
628.01	347.603
628.062	351.82
628.114	343.4
628.166	342.474
628.218	336.489
628.27	346.073
628.321	351.707
628.373	347.899
628.425	336.822
628.477	339.979
628.529	357.594
628.58	347.593
628.632	345.202
628.684	343.956
628.736	346.331
628.788	349.66
628.839	352.231
628.891	349.82
628.943	343.924
628.995	353.165
629.047	346.487
629.098	341.658
629.15	344.573
629.202	364.67
629.254	340.534
629.306	356.5
629.357	343.234
629.409	338.66
629.461	350.181
629.513	352.227
629.565	346.536
629.616	348.854
629.668	351.964
629.72	344.077
629.772	348.653
629.824	351.608
629.875	341.244
629.927	352.091
629.979	350.992
630.031	363.446
630.083	360.854
630.134	343.539
630.186	337.104
630.238	354.796
630.29	359.775
630.342	342.253
630.393	349.831
630.445	352.888
630.497	351.898
630.549	356.762
630.6	359.199
630.652	359.566
630.704	356.719
630.756	360.432
630.808	361.579
630.859	357.088
630.911	359.752
630.963	363.414
631.015	345.894
631.067	354.913
631.118	360.996
631.17	360.095
631.222	358.465
631.274	360.104
631.325	359.4
631.377	366.265
631.429	366.131
631.481	364.34
631.533	366.665
631.584	357.795
631.636	365.516
631.688	365.621
631.74	360.504
631.791	349.842
631.843	354.846
631.895	366.76
631.947	361.462
631.999	369.46
632.05	369.696
632.102	363.481
632.154	366.256
632.206	367.464
632.257	370.769
632.309	365.904
632.361	372.453
632.413	368.547
632.464	368.453
632.516	371.814
632.568	375.896
632.62	370.243
632.672	361.255
632.723	372.6
632.775	373.44
632.827	361.082
632.879	372.015
632.93	369.369
632.982	366.133
633.034	383.062
633.086	374.828
633.137	382.264
633.189	383.34
633.241	381.362
633.293	372.888
633.344	372.655
633.396	373.545
633.448	378.656
633.5	367.193
633.551	374.44
633.603	370.401
633.655	385.497
633.707	387.112
633.758	378.64
633.81	381.15
633.862	372.783
633.914	379.497
633.965	377.392
634.017	394.06
634.069	391.361
634.121	383.925
634.172	379.551
634.224	363.111
634.276	371.518
634.328	383.727
634.379	376.94
634.431	377.411
634.483	391.952
634.535	381.969
634.586	383.772
634.638	394.721
634.69	379.46
634.742	385.596
634.793	385.01
634.845	397.206
634.897	395.154
634.949	394.649
635	388.48
635.052	385.217
635.104	390.504
635.156	394.835
635.207	398.424
635.259	389.125
635.311	397.84
635.363	393.572
635.414	393.018
635.466	385.569
635.518	402.653
635.57	400.894
635.621	406.559
635.673	409.234
635.725	404.5
635.776	410.827
635.828	405.751
635.88	414.193
635.932	409.841
635.983	413.625
636.035	402.441
636.087	414.655
636.139	418.614
636.19	413.709
636.242	416.941
636.294	420.599
636.345	419.081
636.397	426.828
636.449	429.09
636.501	439.9
636.552	429.926
636.604	421.462
636.656	437.553
636.708	434.066
636.759	444.783
636.811	461.805
636.863	447.862
636.914	444.488
636.966	448.738
637.018	452.001
637.07	455.907
637.121	460.633
637.173	464.247
637.225	478.446
637.276	479.542
637.328	474.264
637.38	487.012
637.432	486.684
637.483	486.974
637.535	485.54
637.587	487.697
637.638	501.259
637.69	490.434
637.742	496.526
637.794	488.796
637.845	488.535
637.897	490.642
637.949	507.178
638	514.068
638.052	519.44
638.104	521.107
638.156	514.469
638.207	511.034
638.259	525.604
638.311	522.529
638.362	500.514
638.414	499.057
638.466	511.507
638.517	510.751
638.569	521.048
638.621	514.659
638.673	505.427
638.724	501.836
638.776	508.021
638.828	488.008
638.879	496.194
638.931	501.877
638.983	492.497
639.034	490.326
639.086	497.221
639.138	495.908
639.19	488.39
639.241	485.774
639.293	486.46
639.345	487.352
639.396	483.986
639.448	492.123
639.5	492.347
639.551	476.949
639.603	486.998
639.655	482.082
639.706	479.702
639.758	472.643
639.81	472.786
639.862	468.048
639.913	474.802
639.965	472.248
640.017	465.248
640.068	468.065
640.12	465.871
640.172	469.793
640.223	464.323
640.275	465.86
640.327	448.757
640.378	454.699
640.43	452.244
640.482	442.668
640.533	452.475
640.585	447.461
640.637	440.849
640.688	457.451
640.74	454.426
640.792	443.282
640.844	449.314
640.895	447.711
640.947	448.953
640.999	445.091
641.05	449.862
641.102	456.959
641.154	450.248
641.205	440.297
641.257	445.538
641.309	440.143
641.36	440.828
641.412	446.633
641.464	441.588
641.515	442.924
641.567	438.082
641.619	444.268
641.67	449.385
641.722	449.28
641.774	439.015
641.825	432.989
641.877	438.717
641.929	447.243
641.98	448.642
642.032	444.595
642.084	442.622
642.135	448.723
642.187	437.969
642.239	441.014
642.29	440.128
642.342	444.945
642.394	437.845
642.445	438.489
642.497	446.839
642.549	454.545
642.6	444.911
642.652	458.538
642.704	442.606
642.755	438.872
642.807	449.148
642.859	447.577
642.91	428.888
642.962	431.823
643.013	440.212
643.065	441.356
643.117	436.191
643.168	440.367
643.22	439.035
643.272	442.944
643.323	447.053
643.375	453.657
643.427	442.128
643.478	454.894
643.53	430.354
643.582	437.192
643.633	449.804
643.685	443.263
643.737	446.336
643.788	460.648
643.84	440.725
643.891	455.94
643.898	454.845
643.949	448.729
644.001	456.658
644.053	447.099
644.105	453.73
644.156	441.231
644.208	456.853
644.26	453.255
644.312	444.539
644.363	440.027
644.415	456.476
644.467	454.172
644.519	446.017
644.57	447.007
644.622	451.276
644.674	443.964
644.726	442.572
644.777	436.033
644.829	434.446
644.881	441.246
644.932	442.421
644.984	462.115
645.036	445.706
645.088	442.873
645.139	448.921
645.191	448.632
645.243	453.462
645.295	452.745
645.346	457.877
645.398	456.346
645.45	458.663
645.502	452.201
645.553	445.775
645.605	441.413
645.657	451.765
645.708	443.304
645.76	447.059
645.812	462.745
645.864	475.875
645.915	447.016
645.967	446.508
646.019	449.745
646.071	459.405
646.122	450.613
646.174	464.945
646.226	459.665
646.277	461.249
646.329	461.057
646.381	450.2
646.433	473.568
646.484	456.165
646.536	472.158
646.588	466.295
646.639	457.608
646.691	468.274
646.743	457.98
646.795	447.375
646.846	453.347
646.898	462.263
646.95	469.83
647.001	454.375
647.053	469.664
647.105	468.109
647.157	465.181
647.208	458.726
647.26	467.394
647.312	453.094
647.363	466.754
647.415	449.082
647.467	462.681
647.519	464.068
647.57	462.022
647.622	454.683
647.674	456.645
647.725	459.788
647.777	463.277
647.829	455.511
647.881	476.962
647.932	466.491
647.984	450.364
648.036	465.152
648.087	473.402
648.139	456.694
648.191	467.381
648.242	471.067
648.294	464.813
648.346	459.499
648.398	467.037
648.449	460.194
648.501	465.521
648.553	476.736
648.604	462.057
648.656	461.78
648.708	467.508
648.759	467.226
648.811	471.203
648.863	467.933
648.914	469.732
648.966	467.332
649.018	447.769
649.07	476.613
649.121	474.806
649.173	469.475
649.225	487.719
649.276	472.656
649.328	487.611
649.38	462.888
649.431	468.945
649.483	480.969
649.535	476.925
649.586	472.273
649.638	474.447
649.69	479.106
649.742	480.677
649.793	482.133
649.845	482.713
649.897	472.81
649.948	471.926
650	477.961
650.052	463.592
650.103	489.118
650.155	479.013
650.207	466.588
650.258	471.955
650.31	480.138
650.362	483.929
650.413	472.815
650.465	479.502
650.517	486.39
650.568	489.429
650.62	480.154
650.672	498.387
650.723	483.76
650.775	480.273
650.827	493.568
650.878	488.18
650.93	491.008
650.982	497.84
651.034	497.183
651.085	473.233
651.137	488.229
651.189	492.168
651.24	502.555
651.292	500.104
651.344	501.715
651.395	489.988
651.447	481.57
651.499	498.489
651.55	488.851
651.602	500.984
651.654	496.401
651.705	484.245
651.757	500.566
651.809	488.88
651.86	496.696
651.912	482.898
651.964	501.307
652.015	500.801
652.067	480.79
652.118	498.328
652.17	503.344
652.222	508.325
652.273	501.392
652.325	497.488
652.377	504.018
652.428	508.455
652.48	502.842
652.532	504.117
652.583	492.663
652.635	498.407
652.687	510.341
652.738	500.504
652.79	503.719
652.842	500.669
652.893	490.628
652.945	494.821
652.997	501.2
653.048	509.382
653.1	505.645
653.152	513.771
653.203	507.396
653.255	505.934
653.307	510.034
653.358	517.225
653.41	507.78
653.461	512.583
653.513	507.587
653.565	511.598
653.616	520.069
653.668	514.409
653.72	515.135
653.771	521.931
653.823	526.479
653.875	527.468
653.926	516.801
653.978	525.598
654.029	516.244
654.081	497.309
654.133	496.807
654.184	510.889
654.236	525.905
654.288	512.093
654.339	527.688
654.391	529.014
654.443	525.699
654.494	524.268
654.546	526.872
654.597	525.039
654.649	527.686
654.701	525.304
654.752	516.118
654.804	536.818
654.856	528.007
654.907	539.284
654.959	527.114
655.01	536.347
655.062	524.651
655.114	525.609
655.165	521.156
655.217	538.056
655.269	528.329
655.32	531.26
655.372	531.695
655.424	537.7
655.475	536.844
655.527	546.995
655.578	552.627
655.63	539.417
655.682	528.83
655.733	529.337
655.785	533.197
655.836	548.906
655.888	555.106
655.94	547.953
655.991	543.501
656.043	555.298
656.095	543.067
656.146	548.647
656.198	549.187
656.249	559.853
656.301	553.165
656.353	543.506
656.404	563.204
656.456	565.344
656.508	568.514
656.559	555.336
656.611	563.071
656.662	560.595
656.714	570.341
656.766	558.029
656.817	565.096
656.869	574.543
656.92	560.828
656.972	564.847
657.024	557.225
657.075	569.409
657.127	583.035
657.178	579.69
657.23	571.328
657.282	584.029
657.333	569.006
657.385	575.514
657.436	572.865
657.488	564.999
657.54	566.275
657.591	564.737
657.643	579.676
657.694	588.437
657.746	587.282
657.798	575.491
657.849	583.741
657.901	588.051
657.952	574.759
658.004	584.553
658.056	585.64
658.107	582.672
658.159	579.484
658.21	579.589
658.262	574.822
658.314	575.479
658.365	578.009
658.417	572.773
658.468	584.763
658.52	594.429
658.571	576.851
658.623	586.241
658.675	585.095
658.726	593.92
658.778	583.016
658.829	588.254
658.881	595.936
658.933	595.63
658.984	594.693
659.036	607.884
659.087	604.978
659.139	589.095
659.19	588.947
659.242	593.371
659.294	591.625
659.345	583.376
659.397	588.126
659.448	589.853
659.5	587.581
659.552	592.666
659.603	590.738
659.655	592.064
659.706	590.118
659.758	602.289
659.809	594.761
659.861	589.924
659.913	592.124
659.964	592.432
660.016	606.263
660.067	594.146
660.119	581.696
660.17	605.345
660.222	590.448
660.274	584.218
660.325	588.879
660.377	594.692
660.428	582.873
660.48	591.279
660.531	594.829
660.583	586.652
660.635	582.059
660.686	605.843
660.738	583.028
660.789	580.677
660.841	591.012
660.892	577.606
660.944	594.203
660.995	596.991
661.047	596.492
661.099	600.485
661.15	603.728
661.202	596.817
661.253	581.721
661.305	588.827
661.356	588.71
661.408	582.967
661.46	590.413
661.511	599.345
661.532	598.944
661.583	607.959
661.635	584.36
661.687	594.729
661.738	591.335
661.79	598.486
661.842	577.25
661.893	581.428
661.945	577.735
661.997	596.274
662.048	582.535
662.1	590.333
662.151	600.547
662.203	583.394
662.255	586.404
662.306	600.792
662.358	600.866
662.41	597.541
662.461	592.144
662.513	592.055
662.565	587.553
662.616	586.894
662.668	589.883
662.72	589.82
662.771	589.525
662.823	601.104
662.875	584.687
662.926	583.235
662.978	611.256
663.03	586.681
663.081	595.156
663.133	588.669
663.184	600.436
663.236	585.075
663.288	585.491
663.339	595.485
663.391	599.742
663.443	597.474
663.494	585.998
663.546	595.444
663.598	585.51
663.649	583.296
663.701	576.268
663.752	596.372
663.804	591.883
663.856	579.851
663.907	585.703
663.959	596.854
664.011	597.459
664.062	610.329
664.114	586.749
664.166	600.255
664.217	591.973
664.269	589.485
664.32	593.198
664.372	590.499
664.424	596.178
664.475	598.734
664.527	588.872
664.579	609.931
664.63	597.597
664.682	588.928
664.733	611.793
664.785	589.467
664.837	596.621
664.888	594.167
664.94	581.099
664.992	589.986
665.043	593.795
665.095	582.68
665.146	589.363
665.198	597.619
665.25	591.821
665.301	582.774
665.353	580.013
665.405	590.521
665.456	597.867
665.508	594.459
665.559	576.925
665.611	589.155
665.663	603.828
665.714	594.574
665.766	582.067
665.817	595.105
665.869	595.872
665.921	592.197
665.972	586.479
666.024	591.441
666.076	587.211
666.127	580.384
666.179	602.741
666.23	579.906
666.282	603.219
666.334	577.939
666.385	602.316
666.437	580.197
666.488	582.911
666.54	589.391
666.592	574.397
666.643	598.249
666.695	584.756
666.746	582.084
666.798	583.54
666.85	588.051
666.901	587.132
666.953	572.162
667.004	590.583
667.056	606.729
667.108	575.255
667.159	582.413
667.211	577.847
667.262	581.875
667.314	588.886
667.366	602.06
667.417	584.384
667.469	587.475
667.52	602.802
667.572	579.213
667.624	578.535
667.675	596.159
667.727	583.471
667.778	572.208
667.83	581.5
667.882	575.902
667.933	592.341
667.985	573.552
668.036	594.03
668.088	590.333
668.14	602.745
668.191	586.268
668.243	596.888
668.294	597.646
668.346	598.413
668.397	565.432
668.449	582.277
668.501	591.396
668.552	578.453
668.604	582.837
668.655	608.539
668.707	573.12
668.759	597.914
668.81	574.799
668.862	577.037
668.913	587.691
668.965	574.528
669.016	580.974
669.068	608.606
669.12	589.553
669.171	594.408
669.223	586.279
669.274	600.505
669.326	584.581
669.377	576.981
669.429	584.777
669.481	582.131
669.532	585.581
669.584	565.175
669.635	573.471
669.687	588.524
669.738	586.426
669.79	569.108
669.842	571.113
669.893	593.156
669.945	570.016
669.996	580.791
670.048	581.422
670.099	582.92
670.151	586.922
670.203	580.195
670.254	568.628
670.306	585.217
670.357	582.349
670.409	579.874
670.46	577.272
670.512	595.831
670.564	594.276
670.615	584.063
670.667	583.43
670.718	583.381
670.77	575.172
670.821	570.284
670.873	576.894
670.924	587.681
670.976	587.669
671.028	570.784
671.079	573.289
671.131	581.273
671.182	585.259
671.234	567.571
671.285	588.532
671.337	564.382
671.388	576.527
671.44	577.231
671.492	596.729
671.543	573.141
671.595	583.848
671.646	579.488
671.698	581.761
671.749	581.124
671.801	579.731
671.852	585.982
671.904	583.324
671.956	577.262
672.007	573.945
672.059	568.708
672.11	576.816
672.162	586.508
672.213	579.086
672.265	575.055
672.316	580.035
672.368	572.253
672.419	579.019
672.471	585.296
672.522	578.688
672.574	582.898
672.626	575.619
672.677	572.583
672.729	579.235
672.78	581.18
672.832	584.499
672.883	587.185
672.935	597.835
672.986	580.214
673.038	570.275
673.089	577.58
673.141	590.319
673.192	606.003
673.244	597.478
673.296	580.452
673.347	586.335
673.399	582.623
673.45	577.792
673.502	580.579
673.553	598.813
673.605	590.023
673.656	590.957
673.708	590.279
673.759	582.472
673.811	571.286
673.862	592.385
673.914	588.902
673.965	606.776
674.017	604.809
674.068	599.138
674.12	602.426
674.171	595.771
674.223	605.171
674.275	591.877
674.326	604.156
674.378	610.575
674.429	613.928
674.481	599.987
674.532	587.904
674.584	591.037
674.635	592.81
674.687	604.806
674.738	613.557
674.79	596.44
674.841	602.957
674.893	606.615
674.944	607.317
674.996	620.556
675.047	598.73
675.099	602.397
675.15	606.618
675.202	620.478
675.253	606.172
675.305	613.277
675.356	602.219
675.408	605.134
675.459	605.184
675.511	591.718
675.562	606.999
675.614	603.915
675.665	613.19
675.717	599.539
675.768	610.359
675.82	609.484
675.871	600.084
675.923	603.327
675.974	618.335
676.026	617.979
676.077	617.557
676.129	606.657
676.18	598.516
676.232	617.352
676.283	610.735
676.335	613.562
676.386	618.393
676.438	618.044
676.489	605.011
676.541	612.815
676.592	624.737
676.644	614.996
676.695	620.41
676.747	611.51
676.798	590.959
676.85	616.236
676.901	623.587
676.953	593.464
677.004	607.028
677.056	618.387
677.107	609.125
677.159	600.747
677.21	607.1
677.262	602.479
677.313	605.039
677.365	603.075
677.416	611.462
677.468	623.618
677.519	616.279
677.571	607.324
677.622	624.587
677.674	607.667
677.725	591.772
677.777	608.645
677.828	603.602
677.88	618.888
677.931	609.784
677.982	619.189
678.034	622.136
678.085	605.174
678.137	615.558
678.188	600.169
678.24	601.728
678.291	606.793
678.343	609.54
678.394	609.523
678.446	614.31
678.497	600.35
678.549	605.39
678.6	613.097
678.652	604.428
678.703	609.305
678.755	606.951
678.806	614.416
678.857	607.988
678.909	607.762
678.96	602.34
679.012	605.357
679.063	601.635
679.083	603.382
679.135	603.505
679.186	594.36
679.238	600.991
679.289	631.297
679.341	608.888
679.392	600.744
679.444	604.807
679.496	611.559
679.547	607.897
679.599	613.851
679.65	604.247
679.702	605.376
679.753	610.773
679.805	604.998
679.857	617.878
679.908	612.837
679.96	616.675
680.011	602.183
680.063	604.569
680.114	616.001
680.166	612.067
680.217	589.854
680.269	614.645
680.321	626.085
680.372	606.384
680.424	616.633
680.475	611.853
680.527	617.57
680.578	634.335
680.63	618.329
680.682	632.768
680.733	611.895
680.785	604.272
680.836	609.191
680.888	602.314
680.939	604.754
680.991	604.958
681.042	614.381
681.094	623.249
681.146	629.327
681.197	623.425
681.249	619.443
681.3	618.499
681.352	621.354
681.403	603.941
681.455	608.872
681.506	603.051
681.558	624.122
681.609	633.504
681.661	615.13
681.712	618.901
681.764	622.22
681.816	614.511
681.867	615.01
681.919	624.345
681.97	614.974
682.022	614.724
682.073	631.193
682.125	608.843
682.176	626.43
682.228	627.82
682.279	627.788
682.331	626.449
682.383	633.378
682.434	617.694
682.486	628.733
682.537	634.14
682.589	615.605
682.64	628.754
682.692	622.36
682.743	618.335
682.795	630.004
682.846	634.267
682.898	622.876
682.949	620.78
683.001	631.51
683.052	635.892
683.104	638.572
683.156	612.614
683.207	613.082
683.259	624.357
683.31	633.531
683.362	611.129
683.413	611.968
683.465	621.002
683.516	628.886
683.568	636.788
683.619	617.646
683.671	610.278
683.722	626.771
683.774	631.656
683.825	632.711
683.877	631.459
683.928	621.129
683.98	622.933
684.031	623.456
684.083	622.136
684.134	609.771
684.186	620.604
684.237	627.017
684.289	620.646
684.341	611.991
684.392	620.554
684.444	621.33
684.495	627.306
684.547	618.042
684.598	604.496
684.65	614.316
684.701	616.983
684.753	620.59
684.804	607.621
684.856	597.782
684.907	619.759
684.959	617.07
685.01	622.879
685.062	614.908
685.113	606.156
685.165	614.287
685.216	625.636
685.268	615.263
685.319	603.556
685.371	622.329
685.422	604.542
685.474	610.061
685.525	608.29
685.577	612.75
685.628	632.568
685.68	615.004
685.731	616.934
685.783	611.75
685.834	616.009
685.886	609.079
685.937	622.838
685.989	596.216
686.04	607.863
686.092	622.968
686.143	613.96
686.195	609.941
686.246	629.106
686.298	599.497
686.349	595.248
686.401	614.653
686.452	623.227
686.504	604.962
686.555	607.914
686.607	609.299
686.658	612.444
686.71	594.847
686.761	609.029
686.813	625.564
686.864	610.849
686.916	594.191
686.967	611.817
687.018	616.99
687.07	606.094
687.121	597.023
687.173	613.16
687.224	619.339
687.276	609.064
687.327	585.814
687.379	594.365
687.43	617.101
687.482	609.548
687.533	606.753
687.585	593.619
687.636	605.807
687.688	603.486
687.739	614.068
687.791	598.741
687.842	608.302
687.894	602.404
687.945	605.734
687.997	606.317
688.048	589.432
688.1	612.157
688.151	605.328
688.203	600.238
688.254	604.829
688.305	604.719
688.357	595.416
688.408	603.956
688.46	609.139
688.511	600.034
688.563	603.978
688.614	611.838
688.666	598.891
688.717	602.242
688.769	606.92
688.82	611.214
688.872	610.266
688.923	601.118
688.974	585.425
689.026	622.443
689.077	605.174
689.129	603.035
689.18	590.878
689.232	585.617
689.283	604.449
689.335	605.031
689.386	608.459
689.438	597.771
689.489	599.339
689.541	599.928
689.592	591.062
689.643	603.224
689.695	604.23
689.746	607.262
689.798	606.768
689.849	602.591
689.901	603.134
689.952	613.347
690.004	610.776
690.055	598.394
690.107	601.738
690.158	603.783
690.209	604.158
690.261	601.691
690.312	608.915
690.364	586.733
690.415	611.792
690.467	612.474
690.518	592.856
690.57	596.267
690.621	593.861
690.672	601.606
690.724	603.843
690.775	602.154
690.827	594.101
690.878	594.345
690.93	599.207
690.981	591.956
691.033	590.546
691.084	590.388
691.135	602.385
691.187	604.711
691.238	599.216
691.29	606.529
691.341	594.425
691.393	595.749
691.444	581.906
691.495	588.322
691.547	583.468
691.598	585.585
691.65	585.689
691.701	590.945
691.753	596.051
691.804	590.321
691.856	589.453
691.907	580.83
691.958	572.123
692.01	582.717
692.061	586.311
692.113	593.222
692.164	596.346
692.216	591.069
692.267	580.382
692.318	576.334
692.37	576.505
692.421	583.369
692.473	594.77
692.524	590.586
692.576	588.742
692.627	583.299
692.678	583.666
692.73	580.448
692.781	580.283
692.833	586.343
692.884	586.04
692.935	588.086
692.987	589.696
693.038	589.68
693.09	570.553
693.141	580.83
693.193	592.834
693.244	581.164
693.295	577.376
693.347	594.379
693.398	591.046
693.45	579.85
693.501	587.94
693.552	578.826
693.604	577.022
693.655	593.318
693.707	584.64
693.758	585.317
693.809	576.919
693.861	573.628
693.912	571.811
693.964	585.358
694.015	578.086
694.066	572.753
694.118	568.989
694.169	578.568
694.221	569.716
694.272	576.31
694.323	581.182
694.375	574.802
694.426	569.136
694.478	572.695
694.529	571.37
694.581	579.214
694.632	570.965
694.683	563.097
694.735	574.664
694.786	574.418
694.837	574.385
694.889	580.234
694.94	563.032
694.992	566.005
695.043	575.016
695.094	555.264
695.146	563.41
695.197	564.888
695.249	572.617
695.3	584.099
695.351	566.035
695.403	565.476
695.454	567.628
695.506	580.906
695.557	575.677
695.608	556.752
695.66	561.927
695.711	570.488
695.763	567.571
695.814	583.296
695.865	577.122
695.917	581.384
695.968	573.462
696.019	567.969
696.071	566.865
696.122	568.838
696.174	568.692
696.225	570.428
696.276	560.075
696.328	557.448
696.379	571.56
696.43	565.408
696.482	563.973
696.533	569.677
696.585	560.734
696.636	571.901
696.687	565.916
696.707	560.878
696.759	573.942
696.81	568.873
696.862	569.633
696.913	559.868
696.965	564.087
697.016	571.125
697.068	559.346
697.119	565.364
697.171	553.74
697.222	568.002
697.274	569.618
697.325	574.886
697.377	557.027
697.428	565.48
697.479	561.724
697.531	563.393
697.582	563.576
697.634	574.886
697.685	566.27
697.737	562.268
697.788	554.085
697.84	546.099
697.891	555.756
697.943	551.217
697.994	559.087
698.046	567.027
698.097	553.235
698.149	553.172
698.2	548.827
698.252	549.302
698.303	530.615
698.354	542.359
698.406	556.474
698.457	554.847
698.509	543.937
698.56	533.073
698.612	544.851
698.663	545.281
698.715	549.559
698.766	543.029
698.818	547.892
698.869	553.685
698.921	541.169
698.972	532.714
699.023	538.865
699.075	552.877
699.126	546.956
699.178	531.842
699.229	538.744
699.281	545.204
699.332	545.198
699.384	548.833
699.435	545.015
699.487	537.554
699.538	550.024
699.589	535.544
699.641	540.979
699.692	547.436
699.744	536.724
699.795	543.638
699.847	540.07
699.898	537.555
699.95	527.864
700.001	540.886
700.052	536.77
700.104	543.545
700.155	539.516
700.207	532.643
700.258	539.624
700.31	536.12
700.361	530.207
700.413	533.375
700.464	536.46
700.515	535.581
700.567	535.236
700.618	538.966
700.67	533.323
700.721	539.771
700.773	532.773
700.824	542.465
700.875	541.534
700.927	533.292
700.978	528.713
701.03	531.178
701.081	544.614
701.133	525.576
701.184	536.169
701.235	532.609
701.287	533.519
701.338	543.342
701.39	532.398
701.441	540.038
701.493	545.517
701.544	537.262
701.596	542.825
701.647	531.05
701.698	524.193
701.75	535.286
701.801	539.703
701.853	534.597
701.904	534.645
701.956	546.044
702.007	540.449
702.058	541.146
702.11	540.233
702.161	527.773
702.213	541.801
702.264	541.82
702.315	528.813
702.367	539.741
702.418	542.556
702.47	536.175
702.521	542.237
702.573	541.412
702.624	538.929
702.675	541.533
702.727	544.572
702.778	531.694
702.83	531.437
702.881	533.804
702.932	540.331
702.984	549.3
703.035	550.281
703.087	542.017
703.138	537.83
703.19	528.47
703.241	542.046
703.292	537.666
703.344	536.646
703.395	532.215
703.447	529.301
703.498	535.053
703.549	535.5
703.601	536.814
703.652	538.828
703.704	532.495
703.755	540.006
703.806	541.84
703.858	531.503
703.909	537.299
703.961	541.536
704.012	541.573
704.063	526.064
704.115	526.701
704.166	526.194
704.218	532.155
704.269	529.681
704.32	538.459
704.372	534.828
704.423	531.127
704.475	537.411
704.526	537.712
704.577	532.28
704.629	525.926
704.68	536.17
704.732	536.716
704.783	534.087
704.834	535.417
704.886	538.403
704.937	531.835
704.988	523.244
705.04	541.048
705.091	532.42
705.143	522.526
705.194	520.631
705.245	515.621
705.297	515.529
705.348	530.095
705.4	528.073
705.451	526.708
705.502	513.354
705.554	521.466
705.605	524.913
705.656	520.75
705.708	519.587
705.759	529.398
705.811	523.846
705.862	507.064
705.913	515.815
705.965	515.922
706.016	525.921
706.068	523.675
706.119	513.387
706.17	528.299
706.222	518.175
706.273	509.238
706.324	505.965
706.376	513.718
706.427	516.89
706.479	523.168
706.53	516.099
706.581	518.751
706.633	499.758
706.684	522.34
706.735	515.033
706.787	499.928
706.838	501.169
706.889	501.58
706.941	515.17
706.992	525.665
707.044	516.63
707.095	518.68
707.146	505.407
707.198	505.989
707.249	493.094
707.3	503.119
707.352	508.17
707.403	502.139
707.454	509.691
707.506	509.929
707.557	504.006
707.609	506.508
707.66	502.781
707.711	498.014
707.763	500.424
707.814	496.365
707.865	498.298
707.917	502.333
707.968	505.543
708.019	501.521
708.071	511.775
708.122	516.733
708.173	502.409
708.225	513.788
708.276	506.942
708.328	499.598
708.379	511.526
708.43	503.187
708.482	499.865
708.533	493.057
708.584	505.191
708.636	508.874
708.687	492.373
708.738	509.314
708.79	497.371
708.841	489.219
708.892	493.011
708.944	510.689
708.995	494.919
709.046	497.488
709.098	492.212
709.149	493.613
709.2	494.643
709.252	499.493
709.303	499.094
709.354	489.622
709.406	487.966
709.457	507.91
709.508	497.361
709.56	501.42
709.611	499.048
709.662	497.546
709.714	497.662
709.765	496.1
709.816	491.186
709.868	488.18
709.919	492.214
709.97	488.781
710.022	498.612
710.073	491.625
710.124	489.215
710.176	497.517
710.227	500.753
710.278	497.241
710.33	505.009
710.381	504.587
710.432	506.786
710.484	496.621
710.535	494.288
710.586	494.276
710.638	483.37
710.689	499.761
710.74	497.859
710.792	499.749
710.843	499.334
710.894	486.067
710.946	481.927
710.997	491.328
711.048	493.962
711.1	483.094
711.151	495.648
711.202	479.015
711.254	482.563
711.305	477.926
711.356	496.453
711.407	477.728
711.459	486.508
711.51	485.689
711.561	496.287
711.613	487.199
711.664	497.437
711.715	484.174
711.767	498.674
711.818	491.502
711.869	478.354
711.921	496.557
711.972	484.152
712.023	465.913
712.075	485.826
712.126	478.521
712.177	491.949
712.228	480.695
712.28	474.724
712.331	480.386
712.382	479.152
712.434	463.415
712.485	486.101
712.536	471.685
712.588	478.282
712.639	475.604
712.69	465.786
712.741	484.738
712.793	473.166
712.844	477.46
712.895	464.256
712.947	475.352
712.998	471.49
713.049	490.095
713.101	472.505
713.152	481.781
713.203	457.649
713.254	477.238
713.306	452.41
713.357	478.977
713.408	484.614
713.46	471.303
713.511	482.122
713.562	481.101
713.613	467.437
713.665	480.402
713.716	470.779
713.767	462.612
713.819	449.048
713.87	464.217
713.921	473.114
713.972	480.747
714.024	465.563
714.075	474.514
714.126	466.631
714.178	478.521
714.18	479.303
714.231	471.638
714.283	473.267
714.334	468.937
714.385	467.343
714.437	474.69
714.488	475.552
714.539	467.613
714.591	460.018
714.642	460.956
714.694	459.948
714.745	454.606
714.796	460.631
714.848	457.829
714.899	457.323
714.951	461.117
715.002	463.501
715.053	450.274
715.105	446.108
715.156	445.807
715.207	460.344
715.259	449.512
715.31	465.928
715.362	461.267
715.413	448.972
715.464	448.732
715.516	453.125
715.567	454.543
715.618	454.525
715.67	460.586
715.721	444.233
715.773	453.039
715.824	451.08
715.875	449.587
715.927	449.849
715.978	456.924
716.029	447.245
716.081	456.877
716.132	450.016
716.184	447.186
716.235	449.021
716.286	451.656
716.338	460.068
716.389	457.367
716.44	456.787
716.492	455.071
716.543	442.495
716.594	441.968
716.646	444.35
716.697	446.611
716.749	450.841
716.8	446.433
716.851	450.908
716.903	453.031
716.954	449.342
717.005	450.148
717.057	441.576
717.108	448.201
717.159	447.112
717.211	459.662
717.262	449.227
717.314	445.751
717.365	443.405
717.416	445.16
717.468	440.956
717.519	450.9
717.57	444.935
717.622	455.653
717.673	452.046
717.724	444.324
717.776	435.817
717.827	439.23
717.878	437.405
717.93	441.967
717.981	458.181
718.032	441.09
718.084	439.811
718.135	443.371
718.187	440.554
718.238	444.471
718.289	443.225
718.341	441.156
718.392	443.165
718.443	452.646
718.495	437.133
718.546	440.565
718.597	436.023
718.649	438.373
718.7	424.443
718.751	425.901
718.803	433.916
718.854	432.213
718.905	441.465
718.957	436.195
719.008	419.784
719.059	423.731
719.111	440.626
719.162	440.945
719.213	428.725
719.265	435.834
719.316	440.799
719.367	437.875
719.419	432.131
719.47	428.177
719.521	433.583
719.573	433.747
719.624	434.434
719.675	424.359
719.727	433.408
719.778	431.493
719.829	426.848
719.881	432.925
719.932	444.346
719.983	444.705
720.035	435.111
720.086	428.304
720.137	434.38
720.189	429.637
720.24	413.428
720.291	425.778
720.343	417.247
720.394	430.271
720.445	430.394
720.496	435.331
720.548	426.886
720.599	418.255
720.65	434.327
720.702	436.533
720.753	429.25
720.804	443.083
720.856	448.952
720.907	440.857
720.958	420.898
721.01	418.165
721.061	426.992
721.112	426.08
721.164	415.98
721.215	428.28
721.266	432.126
721.318	419.477
721.369	411.452
721.42	421.622
721.471	432.87
721.523	423.067
721.574	422.619
721.625	422.468
721.677	418.674
721.728	431.422
721.779	426.257
721.831	426.362
721.882	427.006
721.933	425.216
721.984	420.63
722.036	419.661
722.087	426.113
722.138	422.587
722.19	413.363
722.241	421.833
722.292	420.748
722.344	429.754
722.395	413.128
722.446	414.942
722.497	416.63
722.549	423.851
722.6	424.363
722.651	417.47
722.703	411.531
722.754	411.97
722.805	410.967
722.857	417.694
722.908	421.972
722.959	433.277
723.01	423.196
723.062	412.059
723.113	421.03
723.164	429.062
723.216	413.845
723.267	411.393
723.318	409.161
723.369	406.472
723.421	402.163
723.472	416.322
723.523	410.165
723.575	412.773
723.626	412.605
723.677	417.556
723.728	415.658
723.78	414.034
723.831	417.73
723.882	415.224
723.934	427.73
723.985	411.506
724.036	413.94
724.087	412.932
724.139	414.439
724.19	420.715
724.241	429.402
724.292	420.075
724.344	415.708
724.395	417.168
724.446	413.125
724.498	412.313
724.549	419.357
724.6	423.252
724.651	405.868
724.703	415.769
724.754	411.508
724.805	420.699
724.856	414.101
724.908	410.998
724.959	413.419
725.01	415.852
725.062	420.522
725.113	413.945
725.164	412.382
725.215	418.104
725.267	420.898
725.318	417.198
725.369	416.767
725.42	412.786
725.472	421.759
725.523	415.963
725.574	415.63
725.625	405.117
725.677	401.113
725.728	403.579
725.779	405.523
725.83	407.573
725.882	415.271
725.933	409.302
725.984	411.351
726.036	416.071
726.087	415.966
726.138	411.107
726.189	416.208
726.241	402.636
726.292	416.646
726.343	408.14
726.394	405.597
726.445	402.038
726.497	415.064
726.548	420.716
726.599	416.118
726.651	407.457
726.702	410.504
726.753	409.093
726.804	406.208
726.855	413.395
726.907	403.838
726.958	416.684
727.009	406.784
727.06	401.223
727.112	400.246
727.163	409.872
727.214	405.916
727.265	412.743
727.317	416.388
727.368	411.836
727.419	421.663
727.47	415.711
727.522	421.168
727.573	412.612
727.624	395.241
727.675	397.36
727.727	393.918
727.778	411.823
727.829	416.42
727.88	413.478
727.932	423.144
727.983	391.566
728.034	411.936
728.085	405.482
728.136	416.204
728.188	402.391
728.239	408.211
728.29	418.33
728.341	413.286
728.393	407.058
728.444	407.764
728.495	411.507
728.546	407.667
728.597	398.811
728.649	395.834
728.7	394.381
728.751	395.91
728.802	390.71
728.854	406.408
728.905	412.262
728.956	414.63
729.007	404.302
729.058	402.002
729.11	401.429
729.161	389.636
729.212	397.752
729.263	415.505
729.315	396.514
729.366	398.453
729.417	401.245
729.468	394.853
729.519	406.091
729.571	391.489
729.622	404.699
729.673	405.486
729.724	408.772
729.775	396.682
729.827	410.973
729.878	398.666
729.929	412.443
729.98	402.573
730.031	394.838
730.083	402.942
730.134	408.152
730.185	385.857
730.236	402.11
730.288	401.813
730.339	387.729
730.39	398.879
730.441	404.665
730.492	397.645
730.544	404.359
730.595	404.396
730.646	407.392
730.697	420.945
730.748	411.488
730.8	407.168
730.851	402.007
730.902	390.494
730.953	395.481
731.004	386.949
731.056	403.969
731.107	399.455
731.158	407.815
731.209	410.076
731.26	389.762
731.312	402.493
731.363	405.285
731.414	400.425
731.465	400.021
731.516	414.351
731.567	399.691
731.619	406.225
731.622	406.702
731.673	401.579
731.725	404.031
731.776	397.03
731.827	403.007
731.878	408.833
731.93	406.141
731.981	415.177
732.032	407.823
732.084	408.363
732.135	408.058
732.186	405.955
732.237	397.722
732.289	401.534
732.34	408.932
732.391	415.952
732.443	412.921
732.494	415.336
732.545	408.552
732.597	411.764
732.648	410.237
732.699	415.493
732.75	404.135
732.802	415.874
732.853	406.343
732.904	417.337
732.956	419.655
733.007	420.962
733.058	407.222
733.109	404.018
733.161	416.679
733.212	408.557
733.263	409.398
733.315	426.731
733.366	419.791
733.417	401.357
733.468	430.487
733.52	429.811
733.571	421.592
733.622	426.02
733.673	418.122
733.725	433.86
733.776	431.485
733.827	426.151
733.879	435.366
733.93	431.195
733.981	438.749
734.032	446.693
734.084	447.048
734.135	439.993
734.186	443.773
734.237	442.784
734.289	451.015
734.34	450.38
734.391	449.224
734.443	433.68
734.494	446.583
734.545	440.32
734.596	443.917
734.648	443.783
734.699	460.746
734.75	456.086
734.801	476.987
734.853	458.935
734.904	467.606
734.955	466.817
735.006	470.362
735.058	472.649
735.109	473.403
735.16	478.524
735.211	485.62
735.263	487.456
735.314	481.96
735.365	500.408
735.417	504.664
735.468	504.679
735.519	499.877
735.57	505.085
735.622	519.069
735.673	512.891
735.724	513.761
735.775	523.553
735.827	508.953
735.878	535.023
735.929	537.253
735.98	530.09
736.032	540.116
736.083	558.261
736.134	554.038
736.185	558.574
736.237	560.948
736.288	559.234
736.339	570.006
736.39	575.639
736.442	581.159
736.493	590.269
736.544	601.957
736.595	592.675
736.646	603.706
736.698	613.249
736.749	621.861
736.8	624.984
736.851	613.375
736.903	635.569
736.954	623.861
737.005	635.624
737.056	646.775
737.108	669.056
737.159	673.54
737.21	683.38
737.261	681.024
737.313	699.699
737.364	693.634
737.415	697.311
737.466	719.322
737.518	704.742
737.569	718.149
737.62	715.539
737.671	732.951
737.722	741.445
737.774	741.029
737.825	755.469
737.876	732.912
737.927	749.772
737.979	753.868
738.03	750.817
738.081	769.861
738.132	788.605
738.183	790.529
738.235	782.92
738.286	774.583
738.337	775.958
738.388	787.512
738.44	792.39
738.491	762.167
738.542	760.89
738.593	768.656
738.644	769.086
738.696	757.789
738.747	772.282
738.798	769.142
738.849	763.949
738.901	757.872
738.952	747.254
739.003	749.477
739.054	753.49
739.105	733.771
739.157	733.839
739.208	731.418
739.259	725.274
739.31	708.867
739.361	713.894
739.413	703.286
739.464	707.814
739.515	691.185
739.566	691.872
739.617	684.153
739.669	664.323
739.72	672.303
739.771	676.26
739.822	666.718
739.874	643.466
739.925	651.465
739.976	644.243
740.027	630.326
740.078	624.084
740.13	620.777
740.181	617.807
740.232	608.052
740.283	601.913
740.334	601.714
740.385	594.083
740.437	593.591
740.488	590.408
740.539	573.132
740.59	569.259
740.641	571.719
740.693	563.391
740.744	569.155
740.795	557.068
740.846	544.1
740.897	536.746
740.949	541.391
741	535.394
741.051	534.119
741.102	525.021
741.153	519.219
741.205	520.733
741.256	516.378
741.307	503.156
741.358	497.22
741.409	498.432
741.461	496.462
741.512	499.279
741.563	487.061
741.614	478.261
741.665	482.859
741.716	472.568
741.768	469.536
741.819	473.965
741.87	479.157
741.921	458.983
741.972	462.214
742.024	459.057
742.075	462.485
742.126	465.268
742.177	464.581
742.228	452.991
742.279	451.989
742.331	442.288
742.382	442.753
742.433	436.287
742.484	443.64
742.535	437.053
742.586	450.099
742.638	440.508
742.689	436.765
742.74	426.944
742.791	418.356
742.842	423.085
742.893	420.782
742.945	417.939
742.996	420.113
743.047	421.96
743.098	416.536
743.149	413.827
743.201	406.354
743.252	411.53
743.303	410.149
743.354	404.314
743.405	405.25
743.456	409.537
743.507	413.171
743.559	409.88
743.61	403.865
743.661	398.954
743.712	393.526
743.763	389.97
743.814	390.01
743.866	400.835
743.917	389.612
743.968	389.261
744.019	388.349
744.07	385.315
744.121	390.945
744.172	389.287
744.224	381.86
744.275	381.794
744.326	385.207
744.377	375.91
744.428	375.411
744.479	382.31
744.531	370.154
744.582	373.761
744.633	370.431
744.684	373.967
744.735	377.098
744.786	374.738
744.837	370.222
744.889	373.568
744.94	373.251
744.991	373.054
745.042	375.841
745.093	379.729
745.144	372.793
745.195	361.164
745.247	362.079
745.298	365.176
745.349	352.897
745.4	356.619
745.451	359.894
745.502	356.767
745.553	361.561
745.605	354.098
745.656	359.749
745.707	360.756
745.758	351.247
745.809	359.155
745.86	361.996
745.911	355.963
745.962	355.204
746.014	358.453
746.065	348.509
746.116	348.742
746.167	349.212
746.218	349.502
746.269	342.924
746.32	344.936
746.372	339.642
746.423	340.907
746.474	348.602
746.525	349.4
746.576	351.716
746.627	355.623
746.678	350.335
746.729	345.483
746.78	342.955
746.832	328.229
746.883	340.299
746.934	352.838
746.985	342.243
747.036	342.043
747.087	346.386
747.138	347.187
747.189	348.833
747.241	337.163
747.292	340.504
747.343	343.382
747.394	331.53
747.445	340.826
747.496	340.885
747.547	334.067
747.598	328.61
747.649	340.153
747.701	340.246
747.752	339.042
747.803	321.288
747.854	323.232
747.905	335.596
747.956	341.297
748.007	335.198
748.058	334.269
748.109	327.732
748.161	327.914
748.212	322.619
748.263	328.512
748.314	329.324
748.365	323.131
748.416	332.403
748.467	322.957
748.518	326.611
748.569	334.101
748.62	329.675
748.672	338.143
748.723	330.472
748.774	327.798
748.825	332.672
748.876	320.635
748.927	321.969
748.978	327.01
749.029	310.654
749.08	317.367
749.131	324.685
749.173	321.194
749.224	318.433
749.275	317.424
749.326	322.778
749.378	330.321
749.429	319.803
749.48	304.636
749.531	319.051
749.582	318.282
749.634	321.721
749.685	329.616
749.736	318.233
749.787	316.617
749.838	312.706
749.89	313.648
749.941	332.115
749.992	316.882
750.043	324.226
750.094	320.029
750.146	319.82
750.197	309.265
750.248	297.295
750.299	316.183
750.35	330.211
750.401	315.163
750.453	318.518
750.504	298.922
750.555	312.051
750.606	308.991
750.657	309.926
750.709	295.396
750.76	307.318
750.811	316.113
750.862	306.328
750.913	323.777
750.964	308.441
751.016	310.71
751.067	308.34
751.118	313.122
751.169	308.849
751.22	309.894
751.272	308.213
751.323	308.61
751.374	306.177
751.425	312.893
751.476	296.35
751.528	309.107
751.579	304.045
751.63	304.207
751.681	312.013
751.732	312.637
751.783	295.467
751.835	296.931
751.886	310.771
751.937	316.34
751.988	317.903
752.039	303.046
752.09	306.492
752.142	318.79
752.193	303.417
752.244	307.11
752.295	309.082
752.346	307.775
752.397	302.872
752.449	297.187
752.5	301.413
752.551	298.389
752.602	299.952
752.653	294.353
752.704	296.719
752.756	300.349
752.807	306.184
752.858	299.988
752.909	301.748
752.96	301.621
753.011	293.945
753.063	300.239
753.114	301.969
753.165	303.687
753.216	298.464
753.267	292.624
753.318	295.637
753.37	304.659
753.421	289.115
753.472	296.132
753.523	300.555
753.574	297.899
753.625	302.327
753.676	300.525
753.728	288.306
753.779	296.895
753.83	295.792
753.881	293.042
753.932	289.691
753.983	296.74
754.034	302.097
754.086	299.162
754.137	300.442
754.188	303.787
754.239	282.884
754.29	296.231
754.341	287.99
754.393	287.902
754.444	287.438
754.495	283.614
754.546	289.817
754.597	285.296
754.648	299.14
754.699	290.229
754.75	290.286
754.802	295.298
754.853	292.648
754.904	281.334
754.955	280.04
755.006	291.498
755.057	292.735
755.108	287.256
755.16	299.91
755.211	289.484
755.262	283.789
755.313	290.948
755.364	289.269
755.415	284.612
755.466	289.864
755.518	287.88
755.569	296.617
755.62	280.405
755.671	276.309
755.722	279.002
755.773	273.923
755.824	287.125
755.875	284.298
755.927	285.007
755.978	288.647
756.029	283.594
756.08	269.381
756.131	274.388
756.182	271.519
756.233	283.726
756.284	280.595
756.336	276.601
756.387	284.003
756.438	284.371
756.489	277.728
756.54	284.092
756.591	277.666
756.642	280.576
756.693	283.172
756.745	288.285
756.796	281.814
756.847	279.319
756.898	277.657
756.949	280.832
757	271.682
757.051	280.792
757.102	274.269
757.153	281.365
757.205	280.642
757.256	276.473
757.307	268.43
757.358	277.673
757.409	267.96
757.46	276.123
757.511	272.732
757.562	272.676
757.613	281.071
757.664	274.029
757.716	276.067
757.767	272.639
757.818	273.467
757.869	272.252
757.92	276.794
757.971	272.957
758.022	270.522
758.073	266.037
758.124	268.494
758.175	272.903
758.227	265.301
758.278	266.193
758.329	261.293
758.38	261.39
758.431	272.166
758.482	264.223
758.533	268.074
758.584	267.384
758.635	262.21
758.686	258.414
758.738	256.804
758.789	258.639
758.84	261.637
758.891	260.647
758.942	259.61
758.993	261.158
759.044	266.154
759.095	253.215
759.146	264.597
759.197	263.411
759.248	266.57
759.3	272.313
759.351	264.338
759.402	267.367
759.453	264.784
759.504	268.022
759.555	266.038
759.606	262.11
759.657	270.613
759.708	259.535
759.759	269.477
759.81	264.661
759.861	260.801
759.913	250.463
759.964	254.07
760.015	252.709
760.066	267.519
760.117	263.609
760.168	260.487
760.219	262.822
760.27	262.372
760.321	249.346
760.372	260.736
760.423	259.044
760.474	263.348
760.525	256.327
760.576	264.385
760.628	258.993
760.679	249.587
760.73	267.063
760.781	261.667
760.832	250.649
760.883	254.125
760.934	256.137
760.985	256.343
761.036	255.408
761.087	258.367
761.138	254.829
761.189	256.654
761.24	251.979
761.291	250.316
761.342	248.59
761.393	243.761
761.445	253.054
761.496	250.222
761.547	252.965
761.598	252.391
761.649	260.139
761.7	251.313
761.751	250.795
761.802	255.461
761.853	253.366
761.904	250.114
761.955	245.362
762.006	249.084
762.057	248.373
762.108	255.095
762.159	252.76
762.21	252.757
762.261	251.797
762.313	245.593
762.364	237.699
762.415	246.223
762.466	258.125
762.517	256.351
762.568	245.197
762.619	245.904
762.67	253.531
762.721	248.856
762.772	244.249
762.823	251.474
762.874	249.412
762.925	245.458
762.976	239.989
763.027	234.409
763.078	249.366
763.129	249.302
763.18	242.065
763.231	245.574
763.282	246.804
763.333	244.539
763.384	248.432
763.435	249.508
763.486	248.647
763.537	240.716
763.589	240.758
763.64	245.362
763.691	243.397
763.742	238.315
763.793	244.14
763.844	241.606
763.895	239.571
763.946	241.084
763.997	242.885
764.048	246.379
764.099	247.486
764.15	244.027
764.201	244.795
764.252	238.844
764.303	242.583
764.354	247.001
764.405	239.315
764.456	238.379
764.507	245.961
764.558	243.397
764.609	239.618
764.66	234.162
764.711	233.48
764.762	238.252
764.813	243.409
764.864	246.469
764.915	244.336
764.966	240.177
765.017	237.047
765.068	230.41
765.119	231.265
765.17	234.413
765.221	230.661
765.272	231.399
765.323	234.507
765.374	241.074
765.425	247.358
765.476	241.132
765.527	231.021
765.578	235.088
765.629	235.918
765.68	234.558
765.731	243.4
765.782	242.135
765.833	233.628
765.884	230.961
765.935	230.189
765.986	233.162
766.037	235.799
766.088	233.725
766.139	233.434
766.19	232.988
766.241	230.914
766.292	229.273
766.343	234.381
766.394	237.715
766.445	232.391
766.496	236.2
766.547	233.593
766.598	233.632
766.649	239.455
766.677	237.248
766.729	238.785
766.78	242.816
766.831	237.03
766.882	234.249
766.933	240.626
766.984	238.077
767.035	218.791
767.086	237.023
767.137	224.64
767.188	220.774
767.24	233.19
767.291	225.537
767.342	232.654
767.393	230.821
767.444	232.199
767.495	229.874
767.546	228.096
767.597	226.171
767.648	230.171
767.7	225.808
767.751	233.006
767.802	218
767.853	217.04
767.904	222.575
767.955	209.422
768.006	211.468
768.057	236.769
768.108	217.647
768.159	226.932
768.21	213.917
768.262	223.111
768.313	224.388
768.364	234.075
768.415	219.617
768.466	223.805
768.517	207.25
768.568	221.958
768.619	222.97
768.67	223.421
768.721	222.416
768.772	219.905
768.823	217.848
768.875	217.72
768.926	215.388
768.977	227.211
769.028	218.77
769.079	217.495
769.13	214.441
769.181	214.562
769.232	214.523
769.283	220.436
769.334	215.313
769.385	212.847
769.436	208.177
769.488	215.522
769.539	225.966
769.59	216.165
769.641	218.775
769.692	218.381
769.743	209.303
769.794	216.003
769.845	219.601
769.896	213.367
769.947	205.043
769.998	205.244
770.049	207.46
770.1	210.503
770.151	206.253
770.203	215.318
770.254	214.78
770.305	208.08
770.356	205.286
770.407	207.656
770.458	210.225
770.509	212.277
770.56	203.986
770.611	202.21
770.662	204.441
770.713	207.814
770.764	208.931
770.815	208.835
770.866	210.89
770.917	205.975
770.968	206.913
771.02	208.66
771.071	206.635
771.122	208.644
771.173	209.421
771.224	193.709
771.275	208.608
771.326	210.733
771.377	205.605
771.428	206.18
771.479	206.101
771.53	203.394
771.581	202.085
771.632	209.396
771.683	205.756
771.734	209.184
771.785	207.3
771.836	203.098
771.887	207.918
771.938	196.294
771.99	203.265
772.041	198.744
772.092	205.426
772.143	204.427
772.194	201.36
772.245	205.977
772.296	204.649
772.347	200.754
772.398	206.314
772.449	191.281
772.5	201.842
772.551	196.104
772.602	194.555
772.653	192.724
772.704	202.158
772.755	193.183
772.806	203.129
772.857	200.285
772.908	201.673
772.959	199.636
773.01	189.131
773.061	188.937
773.112	194.109
773.163	185.05
773.214	189.838
773.265	190.722
773.316	195.069
773.367	199.345
773.419	193.806
773.47	195.356
773.521	199.611
773.572	191.888
773.623	189.758
773.674	179.101
773.725	191.753
773.776	195.73
773.827	187.51
773.878	182.773
773.929	186.245
773.98	188.599
774.031	192.114
774.082	190.392
774.133	194.279
774.184	191.229
774.235	189.19
774.286	182.578
774.337	181.976
774.388	187.915
774.439	182.925
774.49	186.138
774.541	187.761
774.592	184.816
774.643	176.499
774.694	177.077
774.745	182.076
774.796	179.332
774.847	181.768
774.898	183.783
774.949	180.132
775	186.214
775.051	182.96
775.102	182.188
775.153	183.705
775.204	187.263
775.255	175.272
775.306	178.439
775.357	178.766
775.408	187.96
775.459	183.704
775.51	180.67
775.561	176.718
775.612	172.619
775.663	177.75
775.714	183.868
775.765	180.151
775.816	180.291
775.867	174.706
775.918	171.747
775.969	172.616
776.02	182.29
776.071	180.507
776.122	184.467
776.173	180.99
776.224	176.428
776.275	176.102
776.326	178.001
776.377	176.975
776.428	170.665
776.479	174.219
776.53	184.052
776.581	179.112
776.632	172.723
776.683	171.78
776.734	173.063
776.785	173.064
776.836	169.572
776.887	167.392
776.938	171.687
776.989	175.891
777.04	179.448
777.091	172.961
777.142	166.866
777.193	164.6
777.244	171.889
777.295	173.524
777.346	173.143
777.397	171.337
777.448	172.481
777.499	170.309
777.55	168.125
777.601	172.693
777.652	169.238
777.703	157.671
777.754	166.064
777.805	170.517
777.856	168.324
777.907	167.985
777.958	166.685
778.009	169.119
778.06	166.417
778.111	171.052
778.161	166.839
778.212	165.504
778.263	163.656
778.314	166.172
778.365	167.819
778.416	165.77
778.467	160.164
778.518	165.562
778.569	166.943
778.62	164.9
778.671	165.629
778.722	167.368
778.773	164.697
778.824	164.382
778.875	161.373
778.926	161.499
778.977	162.569
779.028	165.485
779.079	165.001
779.13	165.221
779.181	159.412
779.232	160.138
779.283	155.652
779.334	157.804
779.385	156.13
779.436	153.856
779.487	157.72
779.537	163.151
779.588	158.559
779.639	157.496
779.69	156.713
779.741	158.552
779.792	163.052
779.843	163.164
779.894	161.722
779.945	160.12
779.996	156.863
780.047	163.188
780.098	162.465
780.149	158.482
780.2	158.007
780.251	155.836
780.302	158.89
780.353	160.448
780.404	157.466
780.455	155.664
780.505	154.386
780.556	160.688
780.607	157.216
780.658	160.456
780.709	161.482
780.76	158.385
780.811	152.714
780.862	153.285
780.913	157.679
780.964	154.875
781.015	154.73
781.066	148.587
781.117	155.428
781.168	156.948
781.219	151.022
781.27	152.217
781.32	154.743
781.371	156.646
781.422	161.377
781.473	158.882
781.524	158.886
781.575	160.704
781.626	152.266
781.677	155.923
781.728	164.2
781.779	158.4
781.83	149.431
781.881	146.805
781.932	152.198
781.983	152.116
782.033	161.449
782.084	153.415
782.135	148.21
782.186	149.44
782.237	150.014
782.288	146.893
782.339	157.962
782.39	159.439
782.441	155.066
782.492	148.799
782.543	153.58
782.594	153.626
782.644	155.308
782.695	144.221
782.746	149.474
782.797	155.029
782.848	146.184
782.899	144.569
782.95	148.125
783.001	146.842
783.052	144.054
783.103	144.365
783.154	142.919
783.204	139.307
783.255	150.404
783.306	144.756
783.357	140.898
783.408	140.885
783.459	137.598
783.51	147.188
783.561	146.091
783.612	142.98
783.663	149.473
783.714	142.651
783.764	145.874
783.815	138.779
783.866	140.955
783.917	148.238
783.968	149.787
784.019	135.1
784.07	138.234
784.109	135.155
784.16	145.584
784.211	149.26
784.262	140.042
784.313	138.066
784.364	150.372
784.415	138.592
784.466	140.751
784.517	136.081
784.568	134.232
784.619	135.039
784.67	126.291
784.721	137.76
784.772	146.528
784.823	134.953
784.874	137.685
784.925	149.631
784.976	131.242
785.027	140.528
785.078	140.491
785.129	141.514
785.18	137.164
785.231	142.943
785.282	134.463
785.333	142.365
785.384	138.764
785.435	135.892
785.486	140.91
785.537	136.041
785.588	133.852
785.639	137.643
785.69	132.581
785.741	134.134
785.792	136.32
785.843	137.145
785.894	137.141
785.945	148.854
785.996	128.902
786.047	144.524
786.098	134.223
786.149	139.042
786.2	145.582
786.251	134.133
786.302	121.908
786.353	136.015
786.404	131.936
786.455	129.822
786.506	133.623
786.557	140.019
786.608	130.697
786.659	127.683
786.71	132.983
786.761	132.92
786.812	129.575
786.863	139.628
786.914	132.708
786.965	137.751
787.016	136.54
787.067	128.481
787.118	131.504
787.169	134.308
787.22	133.246
787.271	130.934
787.322	129.308
787.373	127.846
787.424	137.203
787.475	134.538
787.526	130.24
787.576	136.132
787.627	128.365
787.678	136.131
787.729	135.857
787.78	132.422
787.831	130.645
787.882	126.674
787.933	129.362
787.984	133.576
788.035	131.08
788.086	132.484
788.137	129.046
788.188	131.512
788.239	131.9
788.29	124.972
788.341	132.796
788.392	130.127
788.443	128.576
788.494	130.682
788.545	129.987
788.596	127.565
788.647	131.878
788.698	127.893
788.749	129.399
788.8	128.761
788.851	132.703
788.901	117.207
788.952	126.422
789.003	127.527
789.054	136.664
789.105	124.971
789.156	129.429
789.207	126.604
789.258	127.512
789.309	128.136
789.36	122.62
789.411	119.082
789.462	123.128
789.513	119.246
789.564	131.646
789.615	122.878
789.666	125.637
789.717	126.298
789.768	128.105
789.819	126.761
789.87	124.254
789.92	120.917
789.971	123.653
790.022	118.967
790.073	126.557
790.124	121.785
790.175	124.249
790.226	120.445
790.277	119.369
790.328	125.419
790.379	125.206
790.43	123.902
790.481	123.876
790.532	122.483
790.583	130.13
790.634	121.125
790.685	124.242
790.735	123.731
790.786	123.037
790.837	123.195
790.888	121.907
790.939	113.406
790.99	117.952
791.041	116.949
791.092	125.033
791.143	123.251
791.194	123.75
791.245	117.831
791.296	124.359
791.347	119.907
791.397	127.111
791.448	125.288
791.499	121.757
791.55	127.108
791.601	123.784
791.652	117.988
791.703	112.435
791.754	119.717
791.805	120.292
791.856	118.297
791.907	121.325
791.958	122.241
792.008	115.117
792.059	113.811
792.11	115.874
792.161	115.622
792.212	125.115
792.263	116.733
792.314	115.378
792.365	123.355
792.416	119.875
792.467	117.3
792.518	118.303
792.569	117.335
792.619	123.469
792.67	114.792
792.721	114.605
792.772	110.456
792.823	110.769
792.874	113.824
792.925	115.9
792.976	117.592
793.027	117.538
793.078	119.959
793.128	120.576
793.179	115.945
793.23	117.133
793.281	117.013
793.332	111.696
793.383	115.894
793.434	119.746
793.485	116.111
793.536	116.535
793.587	110.885
793.638	111.798
793.688	116.211
793.739	111.777
793.79	114.927
793.841	116.521
793.892	116.292
793.943	113.363
793.994	114.557
794.045	110.41
794.096	107.923
794.146	110.427
794.197	110.278
794.248	117.052
794.299	117.032
794.35	119.825
794.401	118.441
794.452	109.928
794.503	114.317
794.554	108.34
794.604	108.668
794.655	115.146
794.706	115.128
794.757	114.54
794.808	113.475
794.859	108.92
794.91	110.563
794.961	106.998
795.011	109.562
795.062	109.08
795.113	115.959
795.164	115.585
795.215	112.042
795.266	113.635
795.317	116.102
795.368	118.843
795.418	117.15
795.469	111.444
795.52	108.744
795.571	114.835
795.622	110.934
795.673	106.683
795.724	109.005
795.775	112.29
795.825	109.713
795.876	109.23
795.927	108.331
795.978	110.646
796.029	105.153
796.08	98.7182
796.131	106.544
796.181	108.504
796.232	107.97
796.283	111.204
796.334	111.122
796.385	107.888
796.436	108.053
796.487	102.49
796.537	112.578
796.588	109.445
796.639	105.531
796.69	107.841
796.741	108.707
796.792	107.794
796.843	104.561
796.893	107.339
796.944	112.731
796.995	106.015
797.046	108.58
797.097	109.037
797.148	106.573
797.199	107.733
797.249	105.074
797.3	109.863
797.351	107.087
797.402	99.2882
797.453	106.048
797.504	103.781
797.555	98.0625
797.605	101.107
797.656	104.619
797.707	108.411
797.758	110.767
797.809	105.371
797.86	100.771
797.91	103.187
797.961	102.078
798.012	101.719
798.063	108.481
798.114	110.87
798.165	108.297
798.216	100.934
798.266	96.707
798.317	102.372
798.368	100.552
798.419	96.4501
798.47	99.7997
798.521	102.621
798.571	106.256
798.622	106.071
798.673	102.386
798.724	107.205
798.775	104.344
798.826	101.648
798.876	105.821
798.927	105.864
798.978	102.449
799.029	98.817
799.08	103.798
799.13	106.218
799.181	101.185
799.232	95.2027
799.283	100.795
799.334	101.717
799.385	103.919
799.435	105.646
799.486	99.1306
799.537	103.682
799.588	106.185
799.639	102.913
799.69	98.7783
799.74	98.5931
799.791	98.8806
799.842	102.726
799.893	96.9491
799.944	102.54
799.994	100.835
800.045	100.41
800.096	95.6405
800.147	94.4196
800.198	99.309
800.248	102.637
800.299	103.662
800.35	103.582
800.401	103.108
800.452	99.3629
800.503	96.4804
800.553	100.53
800.604	102.646
800.655	100.714
800.706	98.3282
800.757	99.1274
800.807	97.9915
800.858	92.0593
800.909	94.2393
800.96	93.8626
801.011	99.2614
801.061	101.182
801.112	94.8587
801.163	98.0682
801.214	99.0031
801.265	98.0074
801.315	98.5785
801.366	100.367
801.417	99.5455
801.457	103.486
801.508	91.244
801.558	93.2367
801.609	101.45
801.66	103.661
801.711	94.468
801.762	95.8607
801.813	92.6633
801.864	92.6008
801.915	92.0412
801.966	94.6186
802.017	91.956
802.068	91.5868
802.118	97.571
802.169	91.6756
802.22	97.8054
802.271	102.101
802.322	90.3429
802.373	96.8878
802.424	88.2523
802.475	95.7474
802.526	80.6209
802.577	96.3584
802.627	95.5443
802.678	95.4768
802.729	89.736
802.78	96.8446
802.831	92.474
802.882	94.4525
802.933	97.7205
802.984	95.4306
803.035	95.9675
803.086	97.8253
803.136	91.9035
803.187	89.0443
803.238	89.5021
803.289	85.6913
803.34	93.2274
803.391	97.8559
803.442	92.0962
803.493	93.2654
803.544	85.4445
803.594	88.5374
803.645	88.0978
803.696	91.0759
803.747	92.0619
803.798	96.4908
803.849	93.2129
803.9	94.1285
803.951	88.1472
804.002	90.3209
804.052	88.9298
804.103	91.9251
804.154	87.6992
804.205	90.9641
804.256	93.0435
804.307	89.4881
804.358	86.8098
804.409	89.2934
804.459	91.2769
804.51	90.6672
804.561	92.2746
804.612	93.0671
804.663	95.8131
804.714	93.288
804.765	82.5385
804.816	90.7013
804.866	90.2016
804.917	86.7699
804.968	94.8421
805.019	90.8089
805.07	89.2204
805.121	82.9346
805.172	84.9716
805.223	92.0934
805.273	88.0618
805.324	76.6838
805.375	86.1178
805.426	85.4213
805.477	85.7902
805.528	91.4075
805.579	87.2705
805.629	90.0484
805.68	88.6879
805.731	84.9791
805.782	85.2435
805.833	85.7125
805.884	82.532
805.935	82.4796
805.985	79.9021
806.036	84.1098
806.087	89.1832
806.138	93.4403
806.189	87.2587
806.24	85.0684
806.291	81.025
806.341	89.4268
806.392	90.0017
806.443	85.4364
806.494	93.4889
806.545	83.6998
806.596	88.3875
806.647	90.3125
806.697	86.2721
806.748	83.8646
806.799	88.0584
806.85	85.0632
806.901	82.957
806.952	79.2261
807.003	87.8463
807.053	84.192
807.104	87.8491
807.155	89.2823
807.206	89.5009
807.257	85.1116
807.308	78.877
807.358	74.5685
807.409	80.7967
807.46	81.3071
807.511	83.53
807.562	85.0339
807.613	88.9888
807.663	84.5769
807.714	86.6743
807.765	82.8259
807.816	78.4812
807.867	85.58
807.918	86.4461
807.969	87.1252
808.019	88.2694
808.07	80.2235
808.121	86.2309
808.172	86.087
808.223	82.8715
808.273	80.0385
808.324	84.0772
808.375	86.35
808.426	81.4356
808.477	79.3083
808.528	80.4529
808.578	83.4856
808.629	83.9407
808.68	86.1331
808.731	79.7438
808.782	87.1325
808.833	90.1349
808.883	83.6845
808.934	77.0275
808.985	84.9368
809.036	82.6737
809.087	77.506
809.138	73.987
809.188	82.8584
809.239	83.8445
809.29	84.9711
809.341	83.0257
809.392	79.335
809.442	83.6488
809.493	81.4324
809.544	82.9681
809.595	81.2295
809.646	77.5805
809.696	76.7666
809.747	80.6632
809.798	85.281
809.849	87.2345
809.9	85.2129
809.951	86.4741
810.001	83.4426
810.052	76.7758
810.103	76.6551
810.154	80.7301
810.205	85.2708
810.255	82.8103
810.306	82.1639
810.357	82.4668
810.408	78.8377
810.459	82.5694
810.509	75.0853
810.56	75.0005
810.611	85.2846
810.662	83.6544
810.713	85.1565
810.763	77.3814
810.814	86.0285
810.865	84.4896
810.916	76.2373
810.967	78.4781
811.017	78.8177
811.068	79.3539
811.119	84.2252
811.17	77.3865
811.221	76.3169
811.271	81.6406
811.322	79.9739
811.373	77.1534
811.424	85.267
811.474	80.0987
811.525	84.89
811.576	80.7744
811.627	79.0734
811.678	78.9821
811.728	78.3533
811.779	82.3514
811.83	85.9873
811.881	79.2782
811.932	76.474
811.982	76.9782
812.033	80.0771
812.084	79.3509
812.135	79.4686
812.185	80.03
812.236	82.8706
812.287	82.944
812.338	73.1908
812.389	79.447
812.439	80.6525
812.49	76.4711
812.541	80.391
812.592	81.6706
812.642	77.5861
812.693	74.3581
812.744	76.2783
812.795	77.4469
812.846	74.6178
812.896	76.5044
812.947	75.8705
812.998	75.328
813.049	72.5077
813.099	76.4203
813.15	80.503
813.201	79.3965
813.252	75.3274
813.302	75.2225
813.353	72.9659
813.404	80.2724
813.455	77.7431
813.506	72.8126
813.556	73.0238
813.607	80.4146
813.658	82.6586
813.709	85.097
813.759	70.4246
813.81	71.8644
813.861	77.1692
813.912	76.2806
813.962	76.894
814.013	76.2583
814.064	79.2402
814.115	79.1644
814.165	73.769
814.216	70.262
814.267	72.9029
814.318	75.1294
814.368	69.0805
814.419	68.3877
814.47	75.6552
814.521	78.8512
814.571	68.3148
814.622	72.368
814.673	77.6634
814.724	77.3586
814.774	74.763
814.825	77.4733
814.876	75.7381
814.927	74.4636
814.977	75.9902
815.028	69.9475
815.079	71.2349
815.13	75.4883
815.18	76.158
815.231	75.5121
815.282	75.7082
815.333	71.8056
815.383	72.1846
815.434	71.6245
815.485	75.0288
815.536	71.7301
815.586	68.3468
815.637	74.5327
815.688	75.5714
815.739	73.5043
815.789	71.4658
815.84	70.7959
815.891	70.1369
815.941	73.2326
815.992	69.7073
816.043	70.2239
816.094	71.034
816.144	68.6263
816.195	70.2506
816.246	70.6553
816.297	68.522
816.347	73.5912
816.398	73.1638
816.449	73.2188
816.499	70.1593
816.55	63.7029
816.601	60.8262
816.652	67.2287
816.702	69.1526
816.753	70.3096
816.804	73.691
816.855	73.2162
816.905	70.989
816.956	70.3086
817.007	68.4661
817.057	68.9504
817.108	74.7265
817.159	75.4591
817.21	71.6442
817.26	68.9055
817.311	68.9479
817.362	68.2757
817.412	70.0619
817.463	69.6302
817.514	68.2582
817.565	71.6509
817.615	69.6917
817.666	70.5032
817.717	75.7427
817.767	74.5681
817.818	75.4482
817.869	70.6541
817.919	68.4309
817.97	63.2392
818.021	61.9268
818.072	66.9695
818.122	71.3475
818.173	71.2406
818.224	74.4814
818.274	73.1521
818.325	69.16
818.376	65.2644
818.427	64.9859
818.477	66.8334
818.528	68.3828
818.579	67.7883
818.629	73.3364
818.68	70.7531
818.731	67.2671
818.781	61.8661
818.806	63.8393
818.857	70.7087
818.908	62.9135
818.959	62.4697
819.01	70.4369
819.06	70.0327
819.111	68.7099
819.162	68.3389
819.213	65.9594
819.264	65.4015
819.315	68.4574
819.365	70.9771
819.416	66.4733
819.467	70.0501
819.518	65.3445
819.569	69.9149
819.619	64.3716
819.67	64.8092
819.721	67.1382
819.772	69.3189
819.823	66.9784
819.873	67.5035
819.924	65.3036
819.975	64.1157
820.026	63.6914
820.077	59.5784
820.127	63.8562
820.178	67.9016
820.229	65.8155
820.28	65.0413
820.331	63.3265
820.381	64.2724
820.432	59.6898
820.483	64.4097
820.534	62.75
820.585	65.1938
820.635	62.105
820.686	69.6253
820.737	59.2852
820.788	64.974
820.839	67.1632
820.889	62.1072
820.94	66.0634
820.991	64.1617
821.042	61.7587
821.092	71.8122
821.143	67.7178
821.194	65.8568
821.245	61.8028
821.296	60.1048
821.346	63.1836
821.397	64.9527
821.448	59.1281
821.499	65.0755
821.549	59.4427
821.6	63.957
821.651	63.361
821.702	71.611
821.753	65.518
821.803	69.9144
821.854	66.2986
821.905	64.3507
821.956	58.425
822.006	60.2189
822.057	65.1622
822.108	64.0563
822.159	60.5536
822.21	60.7928
822.26	64.4127
822.311	67.6564
822.362	63.6986
822.413	65.557
822.463	69.3655
822.514	65.7565
822.565	59.5541
822.616	62.213
822.667	62.1214
822.717	64.4897
822.768	61.4016
822.819	60.8558
822.87	64.6547
822.92	65.3619
822.971	62.1981
823.022	60.2438
823.073	58.8181
823.123	64.1169
823.174	66.5687
823.225	62.8915
823.276	62.5687
823.326	59.0296
823.377	58.9498
823.428	58.9294
823.479	65.3274
823.529	61.9254
823.58	61.9758
823.631	61.7341
823.682	66.2901
823.732	56.5428
823.783	64.6996
823.834	65.1219
823.885	63.157
823.935	62.769
823.986	66.648
824.037	61.0721
824.088	61.4428
824.138	59.4846
824.189	59.3486
824.24	61.0654
824.291	61.4812
824.341	61.3334
824.392	60.4864
824.443	58.7993
824.494	60.5098
824.544	61.4581
824.595	62.3273
824.646	57.5038
824.697	60.7811
824.747	58.0409
824.798	57.0887
824.849	57.2788
824.9	58.3083
824.95	58.5223
825.001	62.138
825.052	62.512
825.103	61.6604
825.153	61.0423
825.204	59.0584
825.255	61.7285
825.305	63.27
825.356	58.3914
825.407	59.0345
825.458	60.459
825.508	60.0593
825.559	59.1217
825.61	59.9292
825.661	62.7087
825.711	66.3003
825.762	58.8616
825.813	58.4166
825.864	61.5958
825.914	63.1138
825.965	59.7318
826.016	59.5796
826.066	53.9384
826.117	58.6078
826.168	56.756
826.219	57.1712
826.269	56.5914
826.32	54.9161
826.371	56.6631
826.421	57.1785
826.472	58.2171
826.523	56.1559
826.574	54.0203
826.624	57.3036
826.675	63.8136
826.726	57.9115
826.776	60.0162
826.827	58.5292
826.878	62.1979
826.929	59.5034
826.979	61.362
827.03	55.9514
827.081	61.4325
827.131	58.8529
827.182	59.2566
827.233	55.2473
827.284	64.418
827.334	59.8499
827.385	58.6326
827.436	58.7199
827.486	60.2195
827.537	59.6416
827.588	63.5627
827.638	57.2979
827.689	60.426
827.74	59.1725
827.791	55.7331
827.841	55.8308
827.892	55.7714
827.943	54.9181
827.993	58.8882
828.044	56.1856
828.095	58.3362
828.146	60.9302
828.196	60.6958
828.247	55.4775
828.298	61.0596
828.348	55.0712
828.399	53.0153
828.45	54.9879
828.5	59.8546
828.551	58.3287
828.602	59.0435
828.652	56.7083
828.703	55.5956
828.754	57.9497
828.805	56.8418
828.855	55.9584
828.906	54.9119
828.957	55.8704
829.007	57.6844
829.058	53.4362
829.109	58.0008
829.159	58.5716
829.21	56.416
829.261	56.1749
829.311	58.9533
829.362	61.3261
829.413	55.5036
829.463	57.3495
829.514	54.7957
829.565	60.2138
829.615	56.2605
829.666	60.2906
829.717	56.2494
829.767	57.7318
829.818	52.1858
829.869	59.4853
829.919	59.6478
829.97	60.1772
830.021	57.2822
830.071	59.2545
830.122	56.5341
830.173	60.0862
830.224	60.5728
830.274	60.0809
830.325	59.7097
830.376	56.9742
830.426	54.9785
830.477	58.3335
830.528	55.0928
830.578	58.7858
830.629	55.5701
830.68	55.2049
830.73	58.2904
830.781	55.1893
830.831	50.368
830.882	54.7265
830.933	54.0768
830.983	53.7385
831.034	49.1667
831.085	61.2508
831.135	55.5515
831.186	57.913
831.237	52.9728
831.287	56.4146
831.338	53.9611
831.389	57.8397
831.439	51.975
831.49	54.5163
831.541	55.8136
831.591	56.7573
831.642	50.7675
831.693	52.6178
831.743	51.2919
831.794	57.4205
831.845	53.9491
831.895	51.7053
831.946	57.9378
831.997	58.5074
832.047	53.9408
832.098	52.6687
832.148	48.9827
832.199	52.2348
832.25	53.5653
832.3	52.2211
832.351	52.5002
832.402	56.0544
832.452	57.7775
832.503	59.7533
832.554	52.9756
832.604	55.1177
832.655	60.5331
832.706	56.3756
832.756	63.3184
832.807	59.0168
832.857	53.2093
832.908	57.0856
832.959	55.2433
833.009	53.1406
833.06	51.0235
833.111	53.94
833.161	53.7031
833.212	52.7276
833.263	52.0522
833.313	54.2433
833.364	60.8496
833.414	54.7777
833.465	59.3729
833.516	51.2861
833.566	55.7671
833.617	50.6882
833.668	55.8949
833.718	57.1015
833.769	49.8389
833.819	54.1698
833.87	51.5165
833.921	53.1148
833.971	55.7732
834.022	45.9766
834.073	46.1732
834.123	53.8492
834.174	54.0056
834.224	48.8287
834.275	60.2216
834.326	54.9262
834.376	51.518
834.427	51.6202
834.477	46.5725
834.528	56.0527
834.579	52.2402
834.629	48.2294
834.68	56.0034
834.73	50.9733
834.781	53.3748
834.832	54.5219
834.882	55.0817
834.933	53.0991
834.984	51.0894
835.034	49.2424
835.085	50.8708
835.135	54.3365
835.186	50.752
835.237	55.8953
835.287	56.3314
835.338	53.8868
835.388	46.7611
835.439	49.873
835.49	54.0465
835.54	52.745
835.591	51.2652
835.641	55.6741
835.692	47.3629
835.743	58.839
835.793	54.1557
835.844	51.0915
835.894	54.8927
835.945	57.0436
835.996	56.9188
836.046	53.1734
836.097	51.9517
836.099	51.9729
836.15	49.9693
836.201	51.09
836.251	53.9333
836.302	50.0427
836.353	55.8798
836.404	46.9536
836.454	52.9563
836.505	55.9819
836.556	54.0661
836.606	59.828
836.657	48.9098
836.708	54.0436
836.758	54.8947
836.809	50.1484
836.86	50.0583
836.911	41.2807
836.961	49.8516
837.012	41.2959
837.063	46.9295
837.113	53.0967
837.164	56.8401
837.215	54.162
837.265	52.8334
837.316	43.2704
837.367	52.9915
837.418	50.8983
837.468	51.728
837.519	56.068
837.57	61.5353
837.62	50.2761
837.671	44.9671
837.722	48.0292
837.772	55.4652
837.823	51.1126
837.874	46.6218
837.924	48.6333
837.975	45.0809
838.026	48.8396
838.077	48.3608
838.127	47.9184
838.178	47.7599
838.229	50.467
838.279	50.7671
838.33	57.0872
838.381	53.5346
838.431	48.2942
838.482	54.233
838.533	55.057
838.583	54.3677
838.634	54.5975
838.685	50.4836
838.735	56.5757
838.786	53.7018
838.837	48.4387
838.888	52.0161
838.938	55.1776
838.989	57.1821
839.04	44.466
839.09	48.3596
839.141	57.6938
839.192	53.0254
839.242	50.2578
839.293	46.6478
839.344	53.7557
839.394	49.4201
839.445	51.4904
839.496	49.6123
839.546	50.8038
839.597	46.1629
839.648	46.4727
839.698	49.9916
839.749	50.8411
839.8	48.8687
839.85	46.633
839.901	47.4947
839.952	49.1628
840.002	47.1254
840.053	43.0598
840.104	48.9701
840.154	49.3183
840.205	46.0004
840.256	50.5287
840.306	48.1817
840.357	51.5117
840.408	46.6166
840.458	43.6547
840.509	50.3037
840.56	50.0308
840.61	45.3858
840.661	52.4834
840.711	46.2823
840.762	49.0184
840.813	47.1143
840.863	44.1931
840.914	51.6936
840.965	51.6067
841.015	48.911
841.066	50.9528
841.117	49.9572
841.167	48.9007
841.218	47.1883
841.269	51.0055
841.319	47.2023
841.37	52.5062
841.421	54.4136
841.471	49.9319
841.522	49.5086
841.573	51.5908
841.623	44.6937
841.674	48.8348
841.724	41.9682
841.775	47.9623
841.826	45.9062
841.876	47.4279
841.927	51.3554
841.978	50.6584
842.028	48.3585
842.079	49.7902
842.13	48.5435
842.18	53.6216
842.231	48.3803
842.281	45.9237
842.332	49.167
842.383	49.7213
842.433	45.575
842.484	45.1725
842.535	54.0147
842.585	48.035
842.636	51.8676
842.687	49.3803
842.737	47.8569
842.788	48.0851
842.838	47.7362
842.889	50.5597
842.94	48.806
842.99	48.1875
843.041	46.4607
843.092	47.4428
843.142	44.0306
843.193	44.3348
843.243	46.7287
843.294	46.9125
843.345	47.4596
843.395	46.9197
843.446	46.8268
843.497	47.9434
843.547	46.9183
843.598	48.3497
843.648	46.6699
843.699	44.1434
843.75	49.585
843.8	48.0272
843.851	43.1794
843.901	43.5234
843.952	48.8439
844.003	43.9677
844.053	46.0082
844.104	47.0822
844.155	53.0514
844.205	48.7789
844.256	44.8741
844.306	47.0473
844.357	52.2268
844.408	51.6799
844.458	51.6143
844.509	50.0767
844.559	51.3437
844.61	44.445
844.661	45.2765
844.711	44.8893
844.762	49.575
844.812	50.0922
844.863	48.4379
844.914	48.2759
844.964	50.184
845.015	43.6843
845.065	46.3276
845.116	44.7995
845.167	51.2141
845.217	49.4822
845.268	50.6707
845.318	50.5619
845.369	49.8393
845.42	46.1756
845.47	46.385
845.521	49.7714
845.571	49.6604
845.622	47.9412
845.673	46.228
845.723	45.734
845.774	45.5684
845.824	42.6762
845.875	43.0745
845.926	48.7303
845.976	48.5636
846.027	44.3232
846.077	44.2177
846.128	45.706
846.178	48.2626
846.229	45.5892
846.28	46.8585
846.33	47.0094
846.381	47.0969
846.431	46.0469
846.482	44.51
846.533	45.9748
846.583	48.6249
846.634	44.7501
846.684	46.9494
846.735	47.9409
846.785	46.0272
846.836	46.5368
846.887	48.4595
846.937	45.0219
846.988	43.9342
847.038	45.0812
847.089	46.5303
847.139	50.1384
847.19	47.3031
847.241	42.5455
847.291	45.5299
847.342	47.9498
847.392	48.6586
847.443	45.4795
847.493	48.6003
847.544	48.6096
847.595	46.9171
847.645	43.5596
847.696	45.0455
847.746	48.2695
847.797	45.9583
847.847	40.9866
847.898	47.1733
847.948	48.9254
847.999	46.9684
848.05	44.1911
848.1	41.4788
848.151	46.781
848.201	44.0214
848.252	42.7118
848.302	41.8958
848.353	47.5847
848.404	47.3913
848.454	45.0495
848.505	42.7226
848.555	45.3528
848.606	47.2012
848.656	48.6745
848.707	48.0846
848.757	49.3721
848.808	46.9828
848.859	47.1182
848.909	43.4056
848.96	43.5338
849.01	46.1007
849.061	44.5832
849.111	40.7533
849.162	49.8496
849.212	44.1764
849.263	48.6235
849.313	43.6621
849.364	46.1786
849.414	43.4728
849.465	42.0951
849.516	38.0227
849.566	49.4013
849.617	48.4389
849.667	47.6162
849.718	46.5271
849.768	48.7853
849.819	49.693
849.869	45.9404
849.92	47.0742
849.97	49.6033
850.021	45.6898
850.071	45.0736
850.122	42.8981
850.173	46.6877
850.223	45.0272
850.274	41.7663
850.324	45.2772
850.375	47.9009
850.425	43.0396
850.476	47.5421
850.526	43.3912
850.577	44.533
850.627	46.2087
850.678	45.6367
850.728	46.0179
850.779	46.5388
850.829	45.1472
850.88	50.2939
850.93	43.1895
850.981	40.2766
851.031	43.3375
851.082	42.2617
851.133	45.8257
851.183	51.2711
851.234	50.0474
851.284	45.363
851.335	43.7444
851.385	45.9025
851.436	42.8029
851.486	43.431
851.537	43.0978
851.587	45.9308
851.638	44.0166
851.688	44.6356
851.739	43.0111
851.789	45.7747
851.84	42.8332
851.89	42.6549
851.941	43.8199
851.991	46.5429
852.042	44.7759
852.092	45.4384
852.143	44.78
852.193	43.9464
852.244	45.11
852.294	42.08
852.345	47.5624
852.395	47.322
852.446	43.7273
852.496	43.5605
852.547	42.5817
852.597	45.1254
852.648	43.8667
852.698	44.0034
852.749	45.6347
852.799	41.1366
852.85	40.3109
852.9	43.4834
852.951	44.0168
853.001	45.8016
853.052	41.2901
853.102	37.9202
853.153	43.3087
853.203	42.4497
853.254	40.9894
853.304	43.5396
853.355	48.5674
853.405	43.4012
853.443	43.0894
853.493	43.2155
853.544	42.9221
853.594	46.7487
853.645	42.424
853.696	44.3099
853.746	42.6063
853.797	42.1876
853.847	46.1192
853.898	44.9422
853.949	44.762
853.999	44.6431
854.05	42.0749
854.1	38.8344
854.151	43.3577
854.202	46.5329
854.252	46.1083
854.303	42.1157
854.353	44.8071
854.404	48.0685
854.455	45.7128
854.505	38.3993
854.556	41.3677
854.606	44.9192
854.657	45.7612
854.708	46.3462
854.758	47.3417
854.809	39.6065
854.859	43.516
854.91	45.4207
854.961	45.4915
855.011	45.2509
855.062	41.5783
855.112	43.1029
855.163	44.1243
855.214	42.3274
855.264	46.9257
855.315	44.4506
855.365	44.8676
855.416	47.9121
855.466	44.7422
855.517	41.4277
855.568	42.7931
855.618	47.1536
855.669	42.4531
855.719	44.0094
855.77	41.1059
855.821	43.0946
855.871	47.0551
855.922	40.4172
855.972	36.7745
856.023	41.0976
856.073	38.5196
856.124	43.8734
856.175	42.3753
856.225	47.6237
856.276	42.2416
856.326	41.0412
856.377	40.2547
856.427	43.9084
856.478	39.2641
856.529	44.5988
856.579	43.7043
856.63	46.5023
856.68	39.4828
856.731	39.4946
856.781	42.2822
856.832	44.9799
856.883	46.5885
856.933	40.4216
856.984	42.0972
857.034	42.9684
857.085	40.0653
857.135	39.9942
857.186	40.1033
857.237	40.6356
857.287	45.0466
857.338	39.5558
857.388	38.2906
857.439	40.3785
857.489	40.5067
857.54	43.6344
857.59	44.7254
857.641	39.5886
857.692	41.1764
857.742	41.6742
857.793	40.1132
857.843	46.2459
857.894	43.9512
857.944	43.5452
857.995	41.6306
858.045	44.888
858.096	40.8919
858.147	38.1621
858.197	43.8956
858.248	40.7824
858.298	41.1511
858.349	39.1928
858.399	44.0778
858.45	44.0456
858.5	45.5524
858.551	45.0235
858.601	43.5106
858.652	44.6364
858.703	42.7426
858.753	41.7731
858.804	45.2544
858.854	43.0058
858.905	42.6598
858.955	40.8302
859.006	42.7327
859.056	41.3979
859.107	39.8083
859.157	40.0466
859.208	46.217
859.258	49.1201
859.309	42.36
859.36	40.1662
859.41	38.5918
859.461	40.1769
859.511	41.6321
859.562	41.1544
859.612	41.8496
859.663	38.3824
859.713	36.757
859.764	41.6905
859.814	42.0029
859.865	40.0142
859.915	40.5839
859.966	38.8019
860.016	44.5256
860.067	39.7032
860.117	42.1755
860.168	40.7912
860.219	43.5984
860.269	43.4232
860.32	40.6974
860.37	44.4615
860.421	44.6181
860.471	37.1408
860.522	38.0496
860.572	42.5633
860.623	44.0546
860.673	37.0225
860.724	40.5384
860.774	41.1305
860.825	43.9143
860.875	40.0342
860.926	37.3072
860.976	45.41
861.027	39.143
861.077	40.097
861.128	40.3079
861.178	40.3264
861.229	48.1897
861.279	42.7374
861.33	41.032
861.38	36.7392
861.431	45.2401
861.481	45.437
861.532	36.1859
861.582	34.4992
861.633	42.4805
861.683	42.1189
861.734	37.8366
861.784	41.1807
861.835	40.0558
861.885	40.2153
861.936	41.7642
861.986	37.2845
862.037	42.8484
862.087	34.9971
862.138	35.193
862.188	37.754
862.239	39.8906
862.289	41.5566
862.34	36.957
862.39	37.535
862.441	39.6883
862.491	37.11
862.542	34.9906
862.592	39.7678
862.643	40.198
862.693	44.8678
862.744	37.0831
862.794	38.3193
862.845	38.8713
862.895	38.2515
862.946	36.4222
862.996	47.5098
863.047	42.1625
863.097	41.1652
863.148	41.9329
863.198	37.5473
863.249	42.287
863.299	38.2129
863.35	39.8606
863.4	46.9839
863.451	45.5408
863.501	44.013
863.552	37.9128
863.602	44.1896
863.653	39.071
863.703	40.3344
863.754	37.4344
863.804	43.2372
863.854	40.3613
863.905	38.7411
863.955	35.4624
864.006	39.5321
864.056	42.2414
864.107	39.7544
864.157	35.7678
864.208	39.9747
864.258	41.5641
864.309	40.7581
864.359	39.0659
864.41	37.191
864.46	39.5348
864.511	34.7191
864.561	31.5016
864.612	43.7791
864.662	39.3699
864.712	38.012
864.763	39.365
864.813	40.6755
864.864	39.4188
864.914	42.7004
864.965	35.0674
865.015	43.6397
865.066	41.9428
865.116	40.6182
865.167	38.0906
865.217	36.7114
865.268	44.6004
865.318	43.6553
865.368	37.3808
865.419	40.2358
865.469	34.8503
865.52	37.2618
865.57	39.4713
865.621	38.8399
865.671	37.1301
865.722	36.958
865.772	31.9153
865.823	40.5543
865.873	39.7032
865.923	37.9043
865.974	38.8144
866.024	39.261
866.075	46.5738
866.125	39.3124
866.176	38.559
866.226	39.8404
866.276	39.0797
866.327	37.5134
866.377	36.7293
866.428	42.3539
866.478	41.7172
866.529	39.2288
866.579	38.2098
866.63	39.426
866.68	40.4096
866.73	37.4032
866.781	39.648
866.831	38.0432
866.882	40.2933
866.932	38.2846
866.983	36.3067
867.033	42.1693
867.083	41.9254
867.134	38.2094
867.184	44.3495
867.235	40.6566
867.285	38.0252
867.336	35.1955
867.386	36.1862
867.436	37.8648
867.487	36.9128
867.537	39.647
867.588	40.926
867.638	38.4194
867.689	40.9841
867.739	37.6322
867.789	41.9689
867.84	40.7207
867.89	39.8474
867.941	34.7424
867.991	39.8662
868.042	38.6197
868.092	42.1705
868.142	40.111
868.193	40.079
868.243	41.7928
868.294	42.3377
868.344	34.6958
868.394	39.0059
868.445	38.7001
868.495	38.6247
868.546	38.6127
868.596	37.209
868.647	37.0864
868.697	40.7197
868.747	35.3845
868.798	40.0299
868.848	39.888
868.899	38.481
868.949	35.9608
868.999	40.9671
869.05	39.058
869.1	40.6912
869.151	38.2606
869.201	37.4918
869.251	36.9007
869.302	38.3706
869.352	39.4114
869.403	46.1577
869.453	41.529
869.503	39.4999
869.554	34.9621
869.604	40.487
869.655	33.7879
869.705	35.2552
869.755	36.0648
869.806	39.1233
869.856	39.0898
869.907	39.1063
869.957	38.6241
870.007	43.1385
870.058	40.7359
870.108	38.3938
870.159	37.5793
870.209	36.2674
870.259	39.7136
870.31	38.566
870.36	35.7423
870.41	34.0012
870.461	33.8605
870.511	35.6636
870.562	34.4236
870.612	45.8119
870.662	41.9461
870.713	39.6188
870.731	35.6355
870.782	39.2624
870.832	39.0504
870.883	37.312
870.933	37.9557
870.984	42.647
871.034	43.8492
871.085	39.2793
871.135	34.1024
871.186	39.2878
871.236	38.5617
871.287	37.8877
871.337	36.9618
871.388	44.5419
871.438	40.5068
871.489	41.8062
871.539	36.9502
871.59	43.5924
871.64	37.7608
871.691	41.0064
871.741	33.9897
871.792	46.9192
871.842	36.632
871.893	39.7809
871.943	37.1116
871.994	40.0379
872.044	39.1901
872.095	39.378
872.145	41.8174
872.196	42.9036
872.246	35.6971
872.297	41.1335
872.347	35.6555
872.397	38.7414
872.448	39.355
872.498	39.4999
872.549	34.3105
872.599	39.9447
872.65	39.0874
872.7	30.9368
872.751	34.6399
872.801	43.509
872.852	41.6195
872.902	32.441
872.953	33.621
873.003	35.6561
873.054	38.729
873.104	35.121
873.155	36.2203
873.205	36.5081
873.256	41.1806
873.306	35.0229
873.357	33.6868
873.407	37.7845
873.458	34.5608
873.508	31.4416
873.558	36.1846
873.609	41.7751
873.659	42.5186
873.71	34.8956
873.76	37.1849
873.811	40.4688
873.861	35.7956
873.912	35.6731
873.962	37.548
874.013	37.5139
874.063	38.1665
874.114	34.79
874.164	35.7139
874.215	37.1361
874.265	32.208
874.315	36.6569
874.366	37.7644
874.416	39.0439
874.467	40.807
874.517	40.501
874.568	41.232
874.618	40.6056
874.669	36.7845
874.719	35.3052
874.77	38.833
874.82	37.113
874.87	37.1866
874.921	35.8908
874.971	40.6883
875.022	39.5658
875.072	33.006
875.123	31.546
875.173	40.7255
875.224	39.0283
875.274	33.2285
875.324	32.0151
875.375	38.9427
875.425	37.2524
875.476	32.0924
875.526	33.4981
875.577	35.4392
875.627	38.9099
875.678	35.9211
875.728	31.2142
875.779	38.0398
875.829	38.6263
875.879	32.8305
875.93	31.9244
875.98	40.5474
876.031	35.5103
876.081	36.3252
876.132	37.085
876.182	39.6307
876.232	35.1247
876.283	38.18
876.333	35.6087
876.384	39.4758
876.434	35.0188
876.485	39.9512
876.535	32.9077
876.585	41.4946
876.636	40.286
876.686	36.2095
876.737	35.2773
876.787	38.4401
876.838	36.0985
876.888	39.0361
876.938	33.8803
876.989	41.63
877.039	35.1068
877.09	40.3914
877.14	31.6407
877.191	39.4707
877.241	36.0244
877.291	36.0449
877.342	37.1484
877.392	38.0082
877.443	33.3301
877.493	33.9739
877.544	34.5812
877.594	39.1891
877.644	35.0161
877.695	40.1801
877.745	31.8332
877.796	39.142
877.846	37.2038
877.896	38.7116
877.947	35.4656
877.997	37.1005
878.048	33.5744
878.098	35.7048
878.148	35.8592
878.199	42.5358
878.249	36.9124
878.3	31.3034
878.35	36.6514
878.4	39.5247
878.451	33.2032
878.501	38.1873
878.552	36.3738
878.602	41.01
878.653	35.2035
878.703	30.7329
878.753	33.7616
878.804	44.4298
878.854	34.3031
878.904	34.1249
878.955	34.0129
879.005	39.9124
879.056	36.8155
879.106	33.9346
879.156	35.0743
879.207	36.5065
879.257	33.5202
879.308	34.0794
879.358	37.6903
879.408	39.8148
879.459	35.5151
879.509	34.0289
879.56	38.3407
879.61	35.1409
879.66	42.8077
879.711	28.4912
879.761	36.3042
879.812	29.8074
879.862	35.2586
879.912	34.2127
879.963	40.8123
880.013	34.3328
880.063	34.8229
880.114	29.2901
880.164	37.0224
880.215	35.4712
880.265	38.802
880.315	36.458
880.366	38.6223
880.416	34.5218
880.467	33.6414
880.517	33.5496
880.567	34.6772
880.618	32.5079
880.668	34.7831
880.718	33.1778
880.769	38.1984
880.819	38.737
880.87	38.2612
880.92	33.5945
880.97	33.0447
881.021	32.8652
881.071	40.9714
881.121	37.2605
881.172	38.2031
881.222	35.8401
881.273	31.9085
881.323	33.7865
881.373	36.759
881.424	34.4021
881.474	33.3923
881.524	35.7575
881.575	39.3653
881.625	30.147
881.675	30.7899
881.726	34.4204
881.776	32.3718
881.826	28.5825
881.877	36.3824
881.927	31.0399
881.978	38.6818
882.028	39.2232
882.078	35.9596
882.129	33.4969
882.179	32.238
882.229	32.891
882.28	29.863
882.33	33.6767
882.38	35.497
882.431	33.9631
882.481	33.222
882.531	31.4765
882.582	34.8039
882.632	36.5664
882.682	37.3685
882.733	37.9362
882.783	34.883
882.834	30.6782
882.884	35.4066
882.934	39.7208
882.985	34.9302
883.035	36.0295
883.085	32.769
883.136	33.2853
883.186	35.4339
883.236	33.9268
883.287	31.8201
883.337	37.861
883.387	35.644
883.438	36.7714
883.488	32.4523
883.538	36.1948
883.589	34.6683
883.639	34.1278
883.689	32.3
883.74	32.1338
883.79	31.8158
883.84	35.7072
883.891	32.0717
883.941	36.2127
883.991	31.2011
884.042	34.0546
884.092	36.816
884.142	39.0643
884.193	36.932
884.243	37.6229
884.293	37.5725
884.344	39.3734
884.394	34.1436
884.444	32.3368
884.495	34.8699
884.545	32.4195
884.595	33.2323
884.646	36.203
884.696	35.1789
884.746	34.6749
884.797	37.5193
884.847	35.4819
884.897	31.9855
884.947	35.8987
884.998	36.7981
885.048	35.2274
885.098	32.2827
885.149	32.2434
885.199	35.4109
885.249	37.3742
885.3	32.2535
885.35	33.171
885.4	32.6509
885.451	32.7119
885.501	32.8834
885.551	36.4151
885.602	34.7805
885.652	36.2992
885.702	34.7176
885.752	33.8735
885.803	34.0338
885.853	31.8465
885.903	32.0988
885.954	32.3397
886.004	32.8071
886.054	34.1755
886.105	34.2335
886.155	36.5141
886.205	37.8312
886.255	35.7345
886.306	30.8172
886.356	32.5768
886.406	33.2753
886.457	34.8718
886.507	35.5526
886.557	38.9303
886.608	36.7219
886.658	35.7599
886.708	35.2764
886.758	33.8407
886.809	37.7825
886.859	37.86
886.909	35.7451
886.96	35.92
887.01	35.4136
887.06	33.366
887.11	36.3845
887.161	32.529
887.211	33.007
887.261	33.8035
887.312	38.3546
887.362	33.9938
887.412	31.8685
887.462	35.1976
887.513	32.8465
887.563	36.2357
887.613	36.5578
887.664	36.7756
887.714	37.2776
887.764	35.7901
887.814	35.6784
887.865	33.3502
887.915	33.3084
887.965	32.3917
887.987	29.3517
888.038	32.9708
888.088	29.3869
888.138	29.1826
888.189	27.7053
888.239	32.1651
888.289	33.0106
888.34	39.126
888.39	33.5558
888.441	36.5784
888.491	31.6977
888.542	33.6478
888.592	30.8578
888.642	34.2437
888.693	33.8886
888.743	35.2669
888.793	29.4035
888.844	29.3363
888.894	32.7483
888.945	30.2939
888.995	31.2726
889.045	34.7485
889.096	36.0998
889.146	36.9193
889.197	30.8222
889.247	34.6931
889.297	33.7652
889.348	35.4025
889.398	33.3731
889.448	36.763
889.499	30.8434
889.549	33.6763
889.6	34.3723
889.65	38.6115
889.7	35.063
889.751	32.9747
889.801	32.4502
889.851	37.1272
889.902	36.427
889.952	32.6235
890.003	30.3273
890.053	32.5796
890.103	34.0531
890.154	34.8943
890.204	32.3026
890.254	34.7303
890.305	36.0567
890.355	32.6922
890.406	34.1405
890.456	32.4866
890.506	32.717
890.557	34.9346
890.607	32.0744
890.657	35.356
890.708	36.9781
890.758	32.0154
890.808	33.5011
890.859	33.8604
890.909	37.8219
890.96	30.2553
891.01	32.5482
891.06	29.0079
891.111	35.1589
891.161	28.0131
891.211	29.6653
891.262	33.9677
891.312	34.1847
891.362	29.1586
891.413	30.1439
891.463	32.0058
891.513	38.5101
891.564	33.3158
891.614	33.261
891.665	29.0688
891.715	34.3215
891.765	31.3785
891.816	34.2892
891.866	31.022
891.916	34.1118
891.967	32.8176
892.017	32.6971
892.067	29.745
892.118	33.0723
892.168	32.3611
892.218	34.4087
892.269	30.8713
892.319	32.5076
892.369	33.0003
892.42	37.6434
892.47	34.256
892.52	36.2022
892.571	29.8986
892.621	34.3489
892.671	29.1871
892.722	32.1433
892.772	33.023
892.822	32.7164
892.873	31.1952
892.923	31.0244
892.973	31.3423
893.024	30.4692
893.074	35.1029
893.124	32.1486
893.175	32.4531
893.225	35.5057
893.275	31.2041
893.326	32.1716
893.376	28.6561
893.426	32.9107
893.477	31.5959
893.527	33.3818
893.577	29.3915
893.628	33.5201
893.678	31.9707
893.728	30.1778
893.779	28.5175
893.829	31.7116
893.879	33.1729
893.93	30.3533
893.98	29.2876
894.03	34.1858
894.081	36.3967
894.131	33.8309
894.181	28.6093
894.232	30.4463
894.282	32.7424
894.332	29.8613
894.383	33.2089
894.433	32.9887
894.483	33.4095
894.533	33.4516
894.584	32.2252
894.634	30.3761
894.684	33.6328
894.735	32.7498
894.785	33.4827
894.835	35.3341
894.886	32.1017
894.936	31.5964
894.986	29.5172
895.037	32.2185
895.087	38.0223
895.137	28.6447
895.188	31.562
895.238	34.16
895.288	28.0922
895.338	30.0504
895.389	30.2131
895.439	32.4224
895.489	36.6404
895.54	33.4029
895.59	31.7622
895.64	34.3742
895.69	35.0867
895.741	30.7225
895.791	33.1974
895.841	32.8652
895.892	36.6799
895.942	33.0957
895.992	31.1487
896.043	30.8621
896.093	30.2119
896.143	32.7616
896.193	31.1635
896.244	32.002
896.294	32.1122
896.344	27.8492
896.395	32.4621
896.445	36.5341
896.495	30.5185
896.545	29.866
896.596	36.5133
896.646	34.3823
896.696	33.3856
896.747	31.293
896.797	32.7415
896.847	33.2973
896.897	33.3333
896.948	30.0742
896.998	33.8212
897.048	35.4454
897.099	33.8716
897.149	30.9347
897.199	31.0326
897.249	34.0214
897.3	30.619
897.35	31.3401
897.4	34.4465
897.451	36.6546
897.501	29.7922
897.551	29.4284
897.601	31.6683
897.652	33.0192
897.702	28.074
897.752	32.766
897.802	32.1172
897.853	33.2943
897.903	31.1994
897.953	30.5241
898.003	32.409
898.054	33.6179
898.104	27.5811
898.154	30.1271
898.204	31.9513
898.255	33.0255
898.305	26.7364
898.355	24.6278
898.406	33.6873
898.456	37.9555
898.506	29.6026
898.556	32.6438
898.607	31.7893
898.657	30.3066
898.707	26.2179
898.757	31.0039
898.808	32.1928
898.858	35.9818
898.908	29.1679
898.958	28.6053
899.009	32.3471
899.059	35.5908
899.109	31.2215
899.159	32.4249
899.21	34.8217
899.26	36.3927
899.31	33.5421
899.36	29.0905
899.411	30.8349
899.461	36.3519
899.511	31.0244
899.561	27.2023
899.612	33.8803
899.662	35.1427
899.712	30.0107
899.762	30.9065
899.813	32.5133
899.863	30.3058
899.913	28.3767
899.963	32.6667
