#Acq. time (s)=	2
#Accumulations=	3
#Range (nm)=	520...900
#Windows=	24
#Auto scanning=	On
#Autofocus=	Off
#AutoExposure=	Off
#Spike filter=	Multiple accum.
#Delay time (s)=	0
#Binning=	1
#Readout mode=	Signal
#DeNoise=	Off
#ICS correction=	Off
#Dark correction=	Off
#Inst. Process=	Off
#Detector temperature (°C)=	-59.98
#Instrument=	LabRAM HR Evol
#Detector=	Syncerity OE
#Objective=	x50_VIS
#Grating=	600 (500nm)
#ND Filter=	25%
#Laser=	514nm_Edge
#Hole=	199.981
#Range=	Auto
#StageXY=	Marzhauser
#StageZ=	Marzhauser
#X (µm)=	4822.7
#Y (µm)=	8167.9
#Z (µm)=	-1002.4
#Full time(mm:ss)=	3:03
#Project=	
#Sample=	
#Site=	
#Title=	M9_140224
#Remark=	
#Date=	19.02.2024 15:03
#Acquired=	19.02.2024 15:03:07
520.013	33.1157
520.065	35.9418
520.117	30.8997
520.17	37.4274
520.222	39.2985
520.274	34.4261
520.327	35.0893
520.379	36.8221
520.431	34.0917
520.483	33.3333
520.536	33.2479
520.588	35.582
520.64	36.8913
520.693	32.9507
520.745	33.6628
520.797	37.4437
520.85	35.327
520.902	32.5516
520.954	34.8196
521.007	37.2192
521.059	36.5236
521.111	34.1203
521.163	35.8976
521.216	40.1012
521.268	36.603
521.32	37.5307
521.373	33.0343
521.425	31.473
521.477	32.5937
521.529	32.0256
521.582	30.6434
521.634	36.335
521.686	36.2905
521.739	33.6709
521.791	36.036
521.843	36.8423
521.896	36.7125
521.948	30.3166
522	36.0673
522.052	34.4488
522.105	34.1555
522.157	36.3509
522.209	33.4379
522.262	33.3385
522.314	35.6629
522.366	34.6106
522.418	35.1453
522.471	33.405
522.523	34.3573
522.575	34.114
522.628	33.9802
522.68	34.3381
522.732	36.7909
522.784	32.1164
522.837	33.5385
522.889	37.916
522.941	37.4231
522.994	32.5288
523.046	36.2331
523.098	36.6667
523.15	36.1894
523.203	32.291
523.255	34.7415
523.307	34.1929
523.36	35.2502
523.412	34.6985
523.464	37.6636
523.516	38.517
523.569	34.5295
523.621	36.0632
523.673	33.5981
523.726	31.1445
523.778	35.2985
523.83	34.102
523.882	35.5704
523.935	35.5773
523.987	33.6409
524.039	31.8106
524.091	33.5674
524.144	36.4581
524.196	34.8836
524.248	36.9756
524.301	38.6667
524.353	38.5879
524.405	32.5836
524.457	33.5367
524.51	33.6205
524.562	34.3776
524.614	33.7249
524.666	32.9271
524.719	35.6989
524.771	36.6247
524.823	34.2955
524.875	34.8925
524.928	38.0206
524.98	35.6255
525.032	36.3357
525.085	31.9936
525.137	39.3357
525.189	33.8205
525.241	35.7144
525.294	33.6376
525.346	36.6418
525.398	39.3396
525.45	32.5273
525.503	32.2075
525.555	33.1541
525.607	33.7867
525.659	33.4014
525.712	34.5512
525.764	36.1224
525.816	32.6472
525.868	37.6106
525.921	33.6735
525.973	34.4982
526.025	35.6893
526.077	32.467
526.13	34.8932
526.182	35.1045
526.234	35.5882
526.286	34.3694
526.339	34.5944
526.391	36.7919
526.443	32.3753
526.495	30.2443
526.548	36.8533
526.6	34.1111
526.652	34.1685
526.704	35.4297
526.757	36.0418
526.809	36.014
526.861	32.9386
526.913	32.6042
526.966	33.7836
527.018	33.9363
527.07	33.8562
527.122	36.1896
527.175	36.7996
527.227	34.2365
527.279	33.3986
527.331	34.1295
527.384	32.6491
527.436	38.5117
527.488	36.1523
527.54	36.1418
527.593	35.0548
527.645	36.5509
527.697	33.0606
527.749	36.8453
527.802	34.685
527.854	33.0629
527.906	34.1321
527.958	32.7701
528.011	35.5235
528.063	37.8832
528.115	32.4046
528.167	33.088
528.219	36.1917
528.272	33.8769
528.324	30.1914
528.376	33.0482
528.428	35.0452
528.481	32.5741
528.533	34.0677
528.585	38.2155
528.637	36.7697
528.69	36.193
528.742	34.1758
528.794	35.1608
528.846	35.4181
528.898	36.8392
528.951	35.3075
529.003	33.5373
529.055	31.6623
529.107	34.0228
529.16	38.6822
529.212	36.0121
529.264	32.4296
529.316	31.8702
529.369	29.3403
529.421	32.4063
529.473	31.1617
529.525	36.5402
529.577	34.4231
529.63	34.3088
529.682	31.7957
529.734	34.3431
529.786	29.9999
529.839	32.19
529.891	36.3478
529.943	33.4617
529.995	31.3815
530.047	34.4088
530.1	34.6262
530.152	34.9981
530.204	32.6034
530.256	32.7096
530.308	31.3112
530.361	29.6032
530.413	27.7972
530.465	36.6
530.517	36.0348
530.57	34.3665
530.622	31.2139
530.674	32.639
530.726	31.5249
530.778	31.5611
530.831	29.4394
530.883	35.3591
530.935	36.9514
530.987	33.1445
531.039	34.9352
531.092	35.2742
531.144	32.36
531.196	33.3104
531.248	33.9618
531.3	31.885
531.353	37.3442
531.405	33.4503
531.457	34.0256
531.509	33.9382
531.561	34.0332
531.614	36.7998
531.666	34.7908
531.718	32.4337
531.77	34.7827
531.822	36.482
531.875	32.7612
531.927	33.338
531.979	37.6602
532.031	34.1934
532.083	34.2776
532.136	34.6151
532.188	40.1593
532.24	42.7128
532.292	33.7241
532.344	30.5696
532.397	32.3427
532.449	34.9532
532.501	32.1109
532.553	37.8621
532.605	37.1152
532.658	36.6131
532.71	37.5657
532.762	30.4052
532.814	33.7578
532.866	37.6674
532.919	39.3548
532.971	36.8885
533.023	36.4146
533.075	36.7173
533.127	37.9209
533.179	36.6781
533.232	38.948
533.284	36.9014
533.336	34.9158
533.388	41.7842
533.44	35.9579
533.493	38.3151
533.545	38.1494
533.597	37.0009
533.649	35.9623
533.701	45.2136
533.753	35.7267
533.806	40.4378
533.858	41.3094
533.91	40.8444
533.962	45.3445
534.014	44.1414
534.067	45.1384
534.119	47.3066
534.171	47.8644
534.223	49.3695
534.275	49.4012
534.327	47.8988
534.38	48.3828
534.432	58.8171
534.484	54.6294
534.536	52.7025
534.588	55.637
534.641	55.682
534.693	53.5125
534.745	59.5313
534.797	54.5304
534.849	61.0045
534.901	58.3451
534.953	58.9807
535.006	61.2869
535.058	58.5589
535.11	62.4557
535.162	68.3571
535.214	59.8894
535.267	56.5204
535.319	56.7698
535.371	52.8905
535.423	52.0855
535.475	50.3986
535.527	53.6084
535.58	53.2251
535.632	50.5551
535.684	47.5088
535.736	51.1432
535.788	45.815
535.84	47.2034
535.892	49.42
535.945	50.7598
535.997	50.0529
536.049	46.9369
536.101	44.9947
536.153	47.357
536.205	46.9639
536.258	46.5187
536.31	45.3675
536.362	43.81
536.414	42.1171
536.466	45.2043
536.518	40.4738
536.57	41.1282
536.623	41.5047
536.675	39.4511
536.727	35.7616
536.779	43.707
536.831	44.7355
536.883	44.5714
536.936	45.2182
536.988	37.2842
537.04	37.2455
537.092	40.8342
537.144	39.1064
537.196	42.8869
537.248	37.4341
537.301	42.5295
537.353	39.9239
537.405	36.8763
537.457	44.5479
537.509	41.2838
537.561	43.6232
537.613	46.8282
537.666	38.5378
537.718	39.1882
537.77	39.1587
537.778	38.8303
537.831	39.102
537.883	39.4874
537.935	45.6053
537.987	48.6766
538.04	44.2178
538.092	40.7586
538.144	40.197
538.196	38.084
538.249	38.4856
538.301	40.6698
538.353	40.25
538.405	37.5625
538.457	43.3906
538.51	37.8055
538.562	35.4846
538.614	38.077
538.666	42.3152
538.719	40.9416
538.771	44.0709
538.823	33.1606
538.875	38.2483
538.927	35.322
538.98	39.5053
539.032	39.514
539.084	41.9878
539.136	35.6572
539.189	40.5627
539.241	36.3365
539.293	41.8205
539.345	37.3935
539.397	40.4256
539.45	43.68
539.502	44.4051
539.554	44.3723
539.606	40.11
539.659	39.1218
539.711	39.8805
539.763	41.9493
539.815	37.7366
539.867	35.7797
539.92	44.6888
539.972	40.9908
540.024	41.6418
540.076	38.0289
540.128	36.3534
540.181	34.5846
540.233	37.5036
540.285	42.4275
540.337	39.841
540.39	41.9051
540.442	41.7138
540.494	39.503
540.546	39.64
540.598	44.4445
540.651	41.0634
540.703	41.6232
540.755	41.2501
540.807	37.5387
540.859	40.6132
540.912	38.4445
540.964	37.3812
541.016	38.821
541.068	43.0414
541.12	46.3031
541.173	39.8963
541.225	41.9183
541.277	43.8289
541.329	37.5821
541.381	38.8742
541.434	40.3329
541.486	43.1841
541.538	47.4943
541.59	41.9262
541.642	39.5877
541.695	39.8028
541.747	39.1324
541.799	33.9218
541.851	44.5512
541.903	42.8302
541.956	46.7799
542.008	39.8903
542.06	39.6625
542.112	45.8778
542.164	42.3002
542.217	38.1946
542.269	42.8068
542.321	41.2156
542.373	35.9992
542.425	38.3753
542.478	40.3411
542.53	42.6157
542.582	43.6371
542.634	43.6493
542.686	42.2502
542.738	42.8539
542.791	44.9856
542.843	40.8
542.895	39.2197
542.947	43.2939
542.999	44.3042
543.052	41.432
543.104	47.9604
543.156	38.7803
543.208	36.3665
543.26	44.0732
543.313	44.2731
543.365	50.181
543.417	40.747
543.469	42.7101
543.521	50.0054
543.573	44.4653
543.626	36.8794
543.678	44.7436
543.73	44.9811
543.782	48.8529
543.834	42.6151
543.886	43.7273
543.939	45.3757
543.991	47.9522
544.043	42.8028
544.095	46.1012
544.147	42.8981
544.2	44.6593
544.252	43.9948
544.304	48.3922
544.356	46.2812
544.408	42.7981
544.46	46.5838
544.513	45.6518
544.565	45.0841
544.617	50.2894
544.669	40.9469
544.721	44.3579
544.773	41.7348
544.826	43.0466
544.878	38.3206
544.93	39.7571
544.982	43.1269
545.034	46.6474
545.086	39.7175
545.139	44.7413
545.191	51.675
545.243	51.1357
545.295	45.9444
545.347	47.3279
545.399	46.2108
545.452	53.5709
545.504	39.4131
545.556	44.1622
545.608	48.466
545.66	49.585
545.712	44.2736
545.765	47.036
545.817	44.6566
545.869	49.6199
545.921	41.5659
545.973	47.8364
546.025	46.5621
546.077	46.4964
546.13	47.6088
546.182	48.7355
546.234	45.6283
546.286	47.5316
546.338	45.6941
546.39	42.3134
546.443	41.9883
546.495	47.6201
546.547	40.7588
546.599	48.7779
546.651	46.2118
546.703	49.8209
546.755	40.8449
546.808	46.2549
546.86	49.6997
546.912	47.4091
546.964	50.3366
547.016	50.1249
547.068	42.3046
547.12	46.1717
547.173	50.1265
547.225	48.5194
547.277	51.8735
547.329	44.775
547.381	49.6943
547.433	52.3721
547.485	50.6399
547.538	45.8419
547.59	52.2199
547.642	46.4745
547.694	51.7023
547.746	50.6187
547.798	52.3471
547.85	54.6581
547.903	47.8903
547.955	43.1062
548.007	47.3659
548.059	47.2284
548.111	50.2054
548.163	47.4394
548.215	47.0868
548.268	48.7921
548.32	47.9698
548.372	42.643
548.424	50.4014
548.476	45.7029
548.528	51.0578
548.58	43.0393
548.633	44.7148
548.685	52.1439
548.737	54.4413
548.789	49.2488
548.841	52.5001
548.893	50.7167
548.945	53.2708
548.997	48.8732
549.049	51.019
549.102	54.8493
549.154	52.9379
549.206	47.6753
549.258	52.6475
549.31	54.6202
549.362	57.6634
549.414	52.0438
549.467	55.9027
549.519	53.5602
549.571	52.5761
549.623	53.305
549.675	55.1198
549.727	50.6776
549.779	56.6209
549.831	57.5159
549.883	59.032
549.936	61.6756
549.988	55.8469
550.04	55.7744
550.092	59.404
550.144	61.5615
550.196	62.0681
550.248	57.371
550.3	63.7328
550.353	64.0494
550.405	61.1257
550.457	60.1288
550.509	67.488
550.561	63.8935
550.613	63.1966
550.665	63.3749
550.717	67.3612
550.769	75.3528
550.822	71.1584
550.874	73.6689
550.926	76.6285
550.978	77.2923
551.03	73.2187
551.082	70.8936
551.134	77.026
551.186	79.6245
551.238	79.9959
551.291	86.1338
551.343	92.131
551.395	94.3637
551.447	86.1878
551.499	93.5918
551.551	96.4779
551.603	104.379
551.655	107.735
551.707	112.529
551.759	123.63
551.812	128.388
551.864	137.128
551.916	148.96
551.968	169.006
552.02	183.563
552.072	200.277
552.124	221.026
552.176	264.098
552.228	314.798
552.28	376.86
552.332	506.584
552.385	770.254
552.437	1545.84
552.489	3244.11
552.541	6219.4
552.593	11465.1
552.645	21098.3
552.697	28890.6
552.749	22212.1
552.801	11357.2
552.853	4581.74
552.905	1771.06
552.958	879.081
553.01	560.35
553.062	414.592
553.114	316.122
553.166	266.397
553.218	225.191
553.27	189.233
553.322	167.393
553.374	154.902
553.426	141.811
553.478	131.113
553.531	114.855
553.583	115.063
553.635	110.036
553.687	106.265
553.739	100.183
553.791	92.1276
553.843	86.7651
553.895	88.4063
553.947	79.8093
553.999	80.6277
554.051	81.621
554.103	81.6186
554.155	75.9387
554.208	70.9191
554.26	78.7674
554.312	73.3778
554.364	67.0748
554.416	72.6559
554.468	70.0987
554.52	70.738
554.572	69.6277
554.624	68.3553
554.676	71.1437
554.728	61.0075
554.78	62.3591
554.832	67.6865
554.884	64.9863
554.937	65.0946
554.989	63.0408
555.041	62.1323
555.093	60.5745
555.145	55.9757
555.197	59.1203
555.249	65.6816
555.301	63.1031
555.353	56.3262
555.405	53.5167
555.457	58.4451
555.509	62.5599
555.529	62.9246
555.582	60.9148
555.634	65.9249
555.686	63.9216
555.738	63.0113
555.79	55.2181
555.842	59.1292
555.895	59.2378
555.947	59.9456
555.999	58.8926
556.051	61.157
556.103	62.9314
556.155	57.0858
556.207	53.0269
556.26	59.9782
556.312	66.6792
556.364	62.1753
556.416	58.1778
556.468	55.3961
556.52	70.435
556.573	65.0296
556.625	55.5125
556.677	64.8038
556.729	64.7695
556.781	62.9378
556.833	55.3305
556.885	58.0144
556.938	61.2
556.99	61.5627
557.042	52.3032
557.094	62.3343
557.146	57.4067
557.198	62.5236
557.25	59.3868
557.302	60.9526
557.355	64.8769
557.407	65.6324
557.459	58.2138
557.511	69.0598
557.563	64.8903
557.615	60.1587
557.667	66.4939
557.72	67.0211
557.772	65.2634
557.824	60.8742
557.876	60.592
557.928	68.3248
557.98	61.9583
558.032	61.1844
558.085	57.8665
558.137	54.4109
558.189	66.7085
558.241	58.5966
558.293	62.3635
558.345	62.959
558.397	67.5827
558.449	63.0198
558.502	59.4413
558.554	61.6488
558.606	65.9466
558.658	57.958
558.71	59.0623
558.762	63.5463
558.814	61.5102
558.866	61.3933
558.919	56.632
558.971	62.6445
559.023	61.8207
559.075	64.297
559.127	63.0135
559.179	66.3048
559.231	59.8398
559.283	64.2426
559.336	66.2467
559.388	62.2491
559.44	65.4204
559.492	63.2813
559.544	66.6415
559.596	69.7193
559.648	64.5389
559.7	62.6032
559.753	71.3355
559.805	66.2655
559.857	68.7604
559.909	64.2405
559.961	65.0442
560.013	72.6899
560.065	68.2769
560.117	66.6836
560.169	73.6686
560.222	71.7234
560.274	69.9004
560.326	70.9318
560.378	71.0729
560.43	66.6397
560.482	69.326
560.534	64.8702
560.586	72.024
560.638	76.5913
560.69	77.1365
560.743	74.3628
560.795	74.4623
560.847	73.8449
560.899	76.0045
560.951	67.2753
561.003	73.2154
561.055	70.0877
561.107	65.4842
561.159	61.5926
561.212	68.6983
561.264	75.1302
561.316	67.9196
561.368	68.7352
561.42	74.9589
561.472	78.8052
561.524	75.1232
561.576	69.329
561.628	69.9151
561.68	73.5397
561.733	71.3431
561.785	74.1397
561.837	75.3963
561.889	75.3294
561.941	71.497
561.993	65.663
562.045	66.5774
562.097	68.7794
562.149	68.4591
562.201	68.2002
562.253	73.9374
562.306	72.8487
562.358	78.4759
562.41	73.1994
562.462	72.9166
562.514	72.5504
562.566	73.4665
562.618	76.702
562.67	76.1591
562.722	72.402
562.774	74.7989
562.826	74.5652
562.879	73.3195
562.931	76.653
562.983	73.3371
563.035	68.4245
563.087	76.4585
563.139	77.2786
563.191	66.9154
563.243	74.4246
563.295	80.2239
563.347	73.0496
563.399	71.7082
563.451	81.5355
563.504	86.4307
563.556	81.6028
563.608	76.9631
563.66	79.1915
563.712	75.5074
563.764	81.7578
563.816	80.8417
563.868	77.5694
563.92	83.4555
563.972	76.3646
564.024	76.934
564.076	84.0727
564.128	81.6761
564.181	79.1416
564.233	79.122
564.285	81.543
564.337	84.035
564.389	84.8823
564.441	78.7061
564.493	83.6739
564.545	82.2828
564.597	84.5052
564.649	77.6328
564.701	82.0932
564.753	81.7001
564.805	80.3145
564.857	78.6319
564.909	82.8478
564.962	79.2043
565.014	73.3454
565.066	78.2413
565.118	85.272
565.17	82.521
565.222	81.6742
565.274	77.845
565.326	82.5134
565.378	82.1331
565.43	83.3733
565.482	83.8811
565.534	84.7325
565.586	86.5099
565.638	81.6584
565.69	76.4159
565.742	87.1097
565.795	85.4411
565.847	83.3464
565.899	78.2938
565.951	81.5364
566.003	83.0879
566.055	80.5966
566.107	85.0992
566.159	88.1366
566.211	88.3403
566.263	82.4288
566.315	76.8194
566.367	86.0935
566.419	93.2455
566.471	84.7431
566.523	82.498
566.575	90.049
566.627	89.1591
566.679	84.3382
566.732	80.4756
566.784	86.1927
566.836	89.6134
566.888	81.7461
566.94	86.9422
566.992	90.73
567.044	88.4683
567.096	87.9009
567.148	87.0602
567.2	86.5437
567.252	86.3307
567.304	89.6383
567.356	91.1617
567.408	90.4379
567.46	84.6631
567.512	89.3063
567.564	89.3582
567.616	90.8195
567.668	95.3068
567.72	91.8364
567.772	86.9487
567.824	92.8457
567.876	90.9355
567.928	88.7322
567.98	93.8522
568.033	90.0055
568.085	91.4217
568.137	90.1194
568.189	93.0782
568.241	92.1719
568.293	88.5624
568.345	89.6216
568.397	92.689
568.449	92.4379
568.501	92.3982
568.553	95.4169
568.605	96.7141
568.657	98.7033
568.709	93.1844
568.761	92.4403
568.813	97.6827
568.865	97.1598
568.917	92.3617
568.969	96.7564
569.021	95.0717
569.073	98.1962
569.125	100.534
569.177	97.5427
569.229	98.6184
569.281	96.5171
569.333	98.2162
569.385	98.9424
569.437	100.273
569.489	99.535
569.541	99.3081
569.593	97.4141
569.645	95.8641
569.697	99.8789
569.749	96.5168
569.801	95.1394
569.853	100.513
569.905	104.645
569.957	101.944
570.009	100.488
570.061	103.61
570.113	107.463
570.165	98.9219
570.217	94.9367
570.269	104.765
570.321	106.515
570.374	107.51
570.426	101.942
570.478	103.316
570.53	106.938
570.582	102.978
570.634	101.218
570.686	110.97
570.738	112.027
570.79	111.257
570.842	108.405
570.894	108.514
570.946	115.229
570.998	108.414
571.05	101.909
571.102	112.385
571.154	114.308
571.206	111.184
571.258	103.913
571.31	113.34
571.362	120.53
571.414	121.321
571.466	119.689
571.518	122.561
571.57	121.965
571.622	118.19
571.674	116.88
571.726	119.972
571.778	123.289
571.83	122.549
571.882	123.322
571.934	130.427
571.986	129.441
572.038	125.627
572.09	128.332
572.142	131.896
572.194	127.833
572.246	128.93
572.298	137.375
572.349	137.674
572.401	140.959
572.453	127.381
572.505	130.657
572.557	141.227
572.609	143.241
572.661	133.899
572.713	140.38
572.765	142.22
572.817	140.94
572.869	141.93
572.921	140.061
572.973	145.945
573.025	145.043
573.077	147.734
573.129	153.696
573.181	160.728
573.212	160.727
573.264	152.252
573.316	156.977
573.368	162.15
573.421	164.626
573.473	159.011
573.525	165.194
573.577	175.745
573.629	170.045
573.681	173.574
573.733	168.76
573.785	173.398
573.837	181.576
573.889	176.446
573.941	174.254
573.993	181.523
574.045	187.715
574.097	185.072
574.15	198.345
574.202	193.528
574.254	197.642
574.306	195.359
574.358	201.764
574.41	205.047
574.462	211.654
574.514	205.266
574.566	216.58
574.618	217.244
574.67	214.264
574.722	225.158
574.774	217.35
574.826	230.296
574.878	234.299
574.931	228.029
574.983	228.151
575.035	239.72
575.087	233.339
575.139	235.714
575.191	230.825
575.243	238.788
575.295	244.16
575.347	227.324
575.399	240.34
575.451	247.252
575.503	242.255
575.555	242.821
575.607	242.35
575.659	251.741
575.711	251.356
575.763	247.724
575.815	249.044
575.868	238.485
575.92	244.806
575.972	248.744
576.024	246.222
576.076	238.182
576.128	248.759
576.18	235.273
576.232	229.202
576.284	229.059
576.336	232.397
576.388	231.401
576.44	234.311
576.492	236.742
576.544	228.352
576.596	228.465
576.648	225.369
576.7	223.533
576.752	218.227
576.804	217.489
576.856	213.739
576.909	214.473
576.961	213.733
577.013	214.703
577.065	214.219
577.117	214.557
577.169	214.8
577.221	199.943
577.273	205.293
577.325	205.613
577.377	196.243
577.429	199.43
577.481	196.154
577.533	198.881
577.585	186.518
577.637	187.912
577.689	190.232
577.741	189.769
577.793	184.356
577.845	196.325
577.897	195.993
577.949	194.982
578.001	191.685
578.053	186.345
578.105	187.474
578.157	188.041
578.209	184.039
578.261	178.512
578.313	186.994
578.365	189.286
578.417	184.908
578.469	181.814
578.522	187.212
578.574	188.311
578.626	179.969
578.678	174.305
578.73	177.184
578.782	180.178
578.834	181.643
578.886	183.725
578.938	186.785
578.99	185.338
579.042	182.116
579.094	181.078
579.146	183.761
579.198	178.983
579.25	178.775
579.302	181.396
579.354	183.59
579.406	185.7
579.458	184.804
579.51	186.367
579.562	187.297
579.614	185.33
579.666	185.719
579.718	188.631
579.77	194.373
579.822	192.85
579.874	192.666
579.926	190.543
579.978	197.779
580.03	189.386
580.082	184.367
580.134	192.034
580.186	193.437
580.238	188.701
580.29	186.721
580.342	188.24
580.394	182.832
580.446	186.527
580.498	188.22
580.55	187.251
580.602	193.959
580.654	189.412
580.706	188.685
580.758	194.628
580.81	192.378
580.862	181.307
580.914	189.032
580.966	198.756
581.018	199.224
581.07	187.659
581.122	191.753
581.174	191.466
581.226	193.451
581.278	197.84
581.33	198.232
581.382	196.245
581.434	196.919
581.486	199.452
581.538	200.059
581.59	204.099
581.642	201.058
581.694	199.676
581.746	203.509
581.798	206.879
581.85	207.767
581.902	207.196
581.954	206.436
582.006	206.264
582.058	205.103
582.11	197.319
582.162	204.256
582.214	213.809
582.266	213.156
582.318	214.562
582.37	213.174
582.422	215.142
582.474	215.746
582.526	213.6
582.578	217.256
582.63	220.067
582.682	214.879
582.734	217.307
582.786	218.043
582.838	220.69
582.89	220.076
582.942	221.295
582.994	222.99
583.046	222.491
583.098	217.345
583.15	222.631
583.202	224.28
583.254	226.822
583.306	228.381
583.358	225.436
583.41	222.973
583.462	229.267
583.514	228.438
583.566	237.053
583.618	236.576
583.67	237.085
583.721	239.23
583.773	236.926
583.825	239.843
583.877	244.275
583.929	240.261
583.981	238.573
584.033	242.154
584.085	240.958
584.137	244.128
584.189	247.077
584.241	244.369
584.293	245.606
584.345	247.773
584.397	254.956
584.449	254.213
584.501	250.304
584.553	256.999
584.605	264.154
584.657	260.092
584.709	263.195
584.761	258.093
584.813	258.439
584.865	253.966
584.917	259.299
584.969	261.543
585.021	260.941
585.073	260.642
585.125	264.872
585.177	262.194
585.229	266.823
585.281	269.739
585.332	273.965
585.384	273.93
585.436	268.74
585.488	277.704
585.54	272.843
585.592	269.828
585.644	271.892
585.696	274.618
585.748	273.183
585.8	277.164
585.852	273.914
585.904	271.655
585.956	276.148
586.008	281.075
586.06	278.695
586.112	279.659
586.164	285.487
586.216	282.323
586.268	274.553
586.32	277.175
586.371	276.678
586.423	288.354
586.475	284.284
586.527	277.969
586.579	273.708
586.631	278.797
586.683	290.329
586.735	290.347
586.787	283.207
586.839	282.631
586.891	285.53
586.943	291.201
586.995	285.474
587.047	290.858
587.099	294.432
587.151	295.022
587.203	295.731
587.255	293.037
587.306	286.516
587.358	292.173
587.41	293.168
587.462	300.685
587.514	307.552
587.566	308.331
587.618	305.794
587.67	301.973
587.722	301.847
587.774	298.618
587.826	301.84
587.878	307.891
587.93	308.128
587.982	297
588.034	312.593
588.085	312.998
588.137	303.548
588.189	311.469
588.241	310.4
588.293	311.068
588.345	311.293
588.397	317.079
588.449	321.769
588.501	299.903
588.553	311.799
588.605	320.648
588.657	323.782
588.709	325.617
588.76	325.26
588.812	328.651
588.864	326.824
588.916	317.931
588.968	329.802
589.02	337.302
589.072	342.373
589.124	340.296
589.176	341.163
589.228	345.659
589.28	351.971
589.332	352.891
589.383	362.835
589.435	367.821
589.487	359.138
589.539	356.713
589.591	363.418
589.643	359.906
589.695	352.811
589.747	349.001
589.799	356.832
589.851	343.563
589.903	349.915
589.955	355.03
590.006	350.105
590.058	341.313
590.11	349.873
590.162	350.556
590.214	348.653
590.266	337.598
590.318	335.087
590.37	342.293
590.422	335.519
590.474	337.055
590.525	338.656
590.577	327.187
590.629	327.354
590.681	340.002
590.733	327.099
590.785	335.323
590.837	329.357
590.889	338.913
590.932	328.058
590.984	317.057
591.036	332.002
591.088	302.201
591.14	307.06
591.192	326.706
591.244	307.981
591.296	319.199
591.348	315.921
591.4	321.979
591.452	301.473
591.504	302.973
591.556	303.076
591.608	308.182
591.66	298.531
591.712	288.772
591.764	304.133
591.816	290.573
591.868	298.701
591.92	298.723
591.972	287.117
592.024	280.853
592.076	293.338
592.128	288.215
592.18	289.851
592.232	290.002
592.284	289.21
592.336	284.281
592.388	290.675
592.44	283.545
592.492	289.527
592.544	297.644
592.596	284.91
592.648	289.076
592.7	288.871
592.752	290.797
592.804	298.649
592.856	290.429
592.908	285.33
592.96	279.515
593.012	295.252
593.064	283.19
593.116	286.66
593.168	285.929
593.22	288.106
593.272	285.434
593.324	283.288
593.376	274.449
593.428	286.586
593.479	287.385
593.531	282.351
593.583	284.052
593.635	280.991
593.687	280.329
593.739	271.422
593.791	288.025
593.843	275.776
593.895	285.685
593.947	289.509
593.999	284.631
594.051	288.752
594.103	290.595
594.155	292.358
594.207	276.59
594.259	272.132
594.311	287.615
594.363	286.766
594.415	282.555
594.467	281.056
594.519	279.42
594.571	278.876
594.623	297.885
594.675	296.099
594.727	294.377
594.779	287.811
594.831	292.587
594.883	295.306
594.935	288.466
594.986	287.895
595.038	294.08
595.09	291.255
595.142	298.198
595.194	291.281
595.246	294.922
595.298	295.577
595.35	292.904
595.402	302.162
595.454	296.96
595.506	305.703
595.558	297.874
595.61	303.274
595.662	309.779
595.714	310.956
595.766	304.944
595.818	302.035
595.87	304.82
595.922	304.209
595.974	322.096
596.026	310.118
596.077	312.99
596.129	323.988
596.181	325.516
596.233	328.498
596.285	324.329
596.337	332.281
596.389	327.221
596.441	324.535
596.493	322.934
596.545	329.566
596.597	351.226
596.649	346.052
596.701	343.417
596.753	347.225
596.805	344.764
596.857	338.06
596.909	325.095
596.96	329.026
597.012	318.023
597.064	310.793
597.116	298.058
597.168	311.462
597.22	286.695
597.272	298.095
597.324	291.118
597.376	295.309
597.428	290.756
597.48	297.365
597.532	291.638
597.584	285.261
597.636	297.643
597.688	292.63
597.739	292.225
597.791	298.111
597.843	282.69
597.895	286.569
597.947	289.938
597.999	298.425
598.051	293.6
598.103	296.81
598.155	286.906
598.207	290.585
598.259	290.085
598.311	284.042
598.363	289.479
598.414	284.275
598.466	287.414
598.518	284.255
598.57	294.74
598.622	279.812
598.674	281.965
598.726	285.073
598.778	283.216
598.83	285.936
598.882	287.012
598.934	277.939
598.986	274.698
599.037	273.552
599.089	280.037
599.141	271.726
599.193	275.228
599.245	277.876
599.297	280.746
599.349	286.023
599.401	283.954
599.453	273.829
599.505	274.209
599.557	276.949
599.609	279.481
599.66	269.036
599.712	277.786
599.764	279.92
599.816	280.075
599.868	273.514
599.92	278.415
599.972	277.869
600.024	281.335
600.076	281.779
600.128	276.699
600.18	280.34
600.231	278.683
600.283	280.59
600.335	280.078
600.387	275.606
600.439	279.355
600.491	282.94
600.543	277.239
600.595	277.74
600.647	280.469
600.699	277.531
600.75	276.369
600.802	277.135
600.854	283.221
600.906	270.633
600.958	282.366
601.01	285.648
601.062	283.743
601.114	275.874
601.166	281.973
601.217	286.349
601.269	284.053
601.321	281.942
601.373	284.258
601.425	289.143
601.477	288.441
601.529	282.281
601.581	288.98
601.633	274.307
601.685	280.431
601.736	284.429
601.788	283.088
601.84	278.297
601.892	287.647
601.944	289.192
601.996	288.79
602.048	284.69
602.1	276.842
602.151	281.46
602.203	279.363
602.255	285.297
602.307	291.529
602.359	279.452
602.411	277.153
602.463	286.676
602.515	292.388
602.567	291.761
602.618	282.961
602.67	278.581
602.722	283.407
602.774	284.171
602.826	285.358
602.878	290.134
602.93	291.747
602.982	282.182
603.033	280.067
603.085	287.025
603.137	284.99
603.189	278.201
603.241	289.577
603.293	286.748
603.345	295.587
603.396	284.472
603.448	283.856
603.5	289.577
603.552	299.105
603.604	298.044
603.656	287.115
603.708	299.591
603.76	293.764
603.811	289.944
603.863	286.437
603.915	291.246
603.967	297.194
604.019	301.919
604.071	299.288
604.123	290.676
604.174	292.444
604.226	303.423
604.278	300.828
604.33	300.094
604.382	301.399
604.434	293.882
604.486	291.825
604.538	293.884
604.589	297.114
604.641	297.979
604.693	292.369
604.745	295.546
604.797	298.097
604.849	299.958
604.901	298.092
604.952	298.201
605.004	295.199
605.056	297.546
605.108	291.239
605.16	301.601
605.212	305.386
605.263	309.797
605.315	309.306
605.367	303.935
605.419	298.397
605.471	303.462
605.523	293.537
605.575	298.915
605.626	302.785
605.678	308.327
605.73	303.808
605.782	305.194
605.834	301.154
605.886	303.05
605.938	299.087
605.989	303.596
606.041	307.794
606.093	297.858
606.145	299.679
606.197	299.063
606.249	290.436
606.3	291.297
606.352	291.2
606.404	300.863
606.456	291.58
606.508	298.138
606.56	303.677
606.611	309.451
606.663	299.104
606.715	293.496
606.767	304.672
606.819	302.777
606.871	307.635
606.922	297.749
606.974	296.394
607.026	288.16
607.078	297.379
607.13	295.06
607.182	291.548
607.233	301.259
607.285	306.104
607.337	300.047
607.389	294.348
607.441	287.405
607.493	287.712
607.544	300.788
607.596	307.022
607.648	303.471
607.7	304.813
607.752	301.92
607.803	298.675
607.855	297.549
607.907	305.69
607.959	303.108
608.011	313.94
608.063	300.771
608.114	304.431
608.166	298.459
608.218	297.6
608.27	299.42
608.322	303.662
608.374	311.231
608.425	315.146
608.477	308.696
608.529	307.382
608.56	308.012
608.612	309.372
608.664	307.732
608.716	304.626
608.768	317.51
608.82	313.671
608.872	300.872
608.924	319.289
608.976	311.376
609.027	313.828
609.079	306.877
609.131	312.894
609.183	311.89
609.235	315.744
609.287	315.194
609.339	316.26
609.391	306.173
609.443	305.305
609.495	320.051
609.547	319.563
609.598	326.271
609.65	325.109
609.702	326.907
609.754	307.196
609.806	313.999
609.858	320.512
609.91	314.019
609.962	309.08
610.014	307.764
610.065	312.955
610.117	316.123
610.169	309.847
610.221	325.608
610.273	314.44
610.325	315.351
610.377	317.887
610.429	320.531
610.481	327.077
610.533	311.159
610.584	308.701
610.636	321.175
610.688	323.916
610.74	312.733
610.792	326.837
610.844	312.085
610.896	326.619
610.948	329.964
611	308.006
611.052	326.023
611.103	318.819
611.155	321.843
611.207	328.394
611.259	320.852
611.311	333.525
611.363	318.912
611.415	313.681
611.467	331.307
611.518	325.312
611.57	315.152
611.622	324.064
611.674	333.3
611.726	325.604
611.778	321.716
611.83	331.521
611.882	324.267
611.934	327.013
611.985	325.404
612.037	323.051
612.089	329.909
612.141	326.172
612.193	325.74
612.245	333.185
612.297	334.029
612.349	350.3
612.4	333.427
612.452	329.846
612.504	322.966
612.556	327.475
612.608	335.002
612.66	325.838
612.712	334.615
612.764	338.052
612.815	339.029
612.867	331.754
612.919	333.024
612.971	336.058
613.023	330.877
613.075	340.365
613.127	340.657
613.179	336.738
613.23	333.641
613.282	341.061
613.334	335.446
613.386	325.587
613.438	335.549
613.49	345.678
613.542	335.806
613.594	337.515
613.645	335.635
613.697	335.183
613.749	350.749
613.801	343.905
613.853	342.749
613.905	341.783
613.957	338.731
614.008	339.538
614.06	335.811
614.112	340.958
614.164	335.579
614.216	340.979
614.268	350.724
614.32	336.514
614.371	343.475
614.423	347.208
614.475	331.376
614.527	354.146
614.579	343.62
614.631	338.974
614.683	338.484
614.734	344.46
614.786	348.466
614.838	345.616
614.89	339.844
614.942	354.137
614.994	353.906
615.045	352.854
615.097	358.788
615.149	353.838
615.201	359.619
615.253	351.323
615.305	352.427
615.357	352.129
615.408	362.441
615.46	349.527
615.512	337.847
615.564	346.448
615.616	350.718
615.668	352.662
615.719	364.8
615.771	356.162
615.823	356.173
615.875	351.299
615.927	368.853
615.979	358.732
616.031	351.931
616.082	353.287
616.134	352.351
616.186	352.21
616.238	365.168
616.29	358.56
616.342	356.246
616.393	359.581
616.445	352.019
616.497	351.739
616.549	356.747
616.601	341.811
616.653	357.68
616.704	372.319
616.756	367.916
616.808	361.079
616.86	362.71
616.912	356.356
616.964	370.01
617.015	370.813
617.067	361.805
617.119	362.557
617.171	376.475
617.223	360.453
617.274	374.882
617.326	369.289
617.378	371.063
617.43	371.248
617.482	376.823
617.534	363.957
617.585	364.812
617.637	371.508
617.689	362.482
617.741	377.245
617.793	378.708
617.845	383.385
617.896	376.419
617.948	370.032
618	365.699
618.052	380.69
618.104	377.734
618.155	371.734
618.207	380.65
618.259	384.524
618.311	378.624
618.363	373.36
618.415	375.61
618.466	369.718
618.518	384.414
618.57	382.643
618.622	372.735
618.674	383.082
618.725	385.699
618.777	385.375
618.829	385.29
618.881	399.476
618.933	390.579
618.984	394.853
619.036	398.697
619.088	384.34
619.14	378.298
619.192	389.379
619.244	403.439
619.295	402.294
619.347	399.3
619.399	392.633
619.451	402.347
619.503	395.562
619.554	386.15
619.606	411.148
619.658	391.355
619.71	396.342
619.762	408
619.813	397.165
619.865	401.944
619.917	403.566
619.969	406.259
620.021	407.617
620.072	408.657
620.124	413.725
620.176	413.902
620.228	381.089
620.279	402.443
620.331	408.041
620.383	391.749
620.435	391.708
620.487	394.139
620.538	412.076
620.59	401.137
620.642	397.372
620.694	397.11
620.746	403.228
620.797	411.773
620.849	400.638
620.901	402.653
620.953	414.764
621.005	404.139
621.056	404.285
621.108	403.982
621.16	391.411
621.212	396.402
621.263	400.418
621.315	399.736
621.367	391.986
621.419	392.212
621.471	401.868
621.522	399.742
621.574	395.455
621.626	394.273
621.678	399.805
621.729	394.724
621.781	399.982
621.833	395.54
621.885	400.261
621.937	397.447
621.988	391.409
622.04	393.868
622.092	406.098
622.144	400.424
622.195	399.843
622.247	398.372
622.299	400.769
622.351	406.196
622.403	402.892
622.454	401.13
622.506	395.034
622.558	395.299
622.61	401.499
622.661	402.288
622.713	403.095
622.765	402.856
622.817	396.512
622.869	393.576
622.92	402.792
622.972	397.7
623.024	401.948
623.076	404.852
623.127	404.115
623.179	397.869
623.231	393.267
623.283	403.566
623.334	401.563
623.386	404.363
623.438	403.541
623.49	408.278
623.541	396.645
623.593	395.418
623.645	398.501
623.697	400.958
623.748	400.65
623.8	395.67
623.852	402.523
623.904	395.215
623.956	405.304
624.007	410.033
624.059	408.135
624.111	411.166
624.162	402.657
624.214	400.714
624.266	395.2
624.318	398.882
624.37	405.699
624.421	404.638
624.473	405.067
624.525	406.741
624.576	394.819
624.628	401.317
624.68	399.668
624.732	409.848
624.784	399.13
624.835	404.561
624.887	406.529
624.939	415.614
624.99	398.501
625.042	397.41
625.094	412.824
625.146	407.131
625.197	396.744
625.249	400.593
625.301	403.039
625.353	411.521
625.404	407.566
625.456	419.884
625.508	402.787
625.56	416.372
625.611	411.713
625.663	394.424
625.715	397.228
625.767	418.803
625.818	419.925
625.87	415.565
625.922	407.486
625.974	406.303
626.025	404.744
626.077	414.47
626.129	414.755
626.18	417.49
626.197	414.97
626.249	414.049
626.3	417.961
626.352	412.483
626.404	400.488
626.456	406.367
626.508	405.533
626.56	420.282
626.611	423.69
626.663	430.689
626.715	421.889
626.767	418.019
626.819	422.709
626.87	410.308
626.922	405.737
626.974	408.61
627.026	410.872
627.078	422.695
627.13	434.074
627.181	423.655
627.233	420.246
627.285	429.094
627.337	409.664
627.389	415.817
627.44	411.519
627.492	416.774
627.544	407.669
627.596	416.547
627.648	412.595
627.7	415.632
627.751	410.072
627.803	429.922
627.855	417.395
627.907	428.658
627.959	416.211
628.01	423.202
628.062	418.824
628.114	418.24
628.166	420.587
628.218	418.787
628.27	414.078
628.321	421.02
628.373	420.61
628.425	417.628
628.477	420.878
628.529	420.33
628.58	428.473
628.632	427.509
628.684	432.564
628.736	440.193
628.788	433.706
628.839	431.387
628.891	432.963
628.943	435.197
628.995	431.378
629.047	435.682
629.098	430.924
629.15	431.155
629.202	433.508
629.254	424.301
629.306	423.978
629.357	421.579
629.409	433.708
629.461	443.256
629.513	432.434
629.565	440.6
629.616	437.685
629.668	435.523
629.72	433.688
629.772	424.998
629.824	432.453
629.875	436.82
629.927	435.768
629.979	438.463
630.031	441.293
630.083	425.868
630.134	427.526
630.186	439.094
630.238	440.53
630.29	444.394
630.342	436.794
630.393	432.144
630.445	433.851
630.497	434.672
630.549	439.189
630.6	434.145
630.652	434.232
630.704	421.244
630.756	432.981
630.808	431.481
630.859	440.895
630.911	437.088
630.963	451.047
631.015	451.753
631.067	438.791
631.118	434.784
631.17	431.798
631.222	446.095
631.274	447.914
631.325	435.423
631.377	449.169
631.429	457.539
631.481	447.161
631.533	444.206
631.584	451.029
631.636	460.362
631.688	444.618
631.74	441.822
631.791	451.197
631.843	453.176
631.895	443.729
631.947	454.911
631.999	454.131
632.05	456.825
632.102	457.922
632.154	465.06
632.206	458.112
632.257	450.005
632.309	449.722
632.361	457.508
632.413	460.244
632.464	450.111
632.516	460.121
632.568	456.723
632.62	454.809
632.672	460.033
632.723	455.682
632.775	459.594
632.827	456.923
632.879	464.691
632.93	468.956
632.982	471.171
633.034	460.831
633.086	461.112
633.137	467.755
633.189	464.384
633.241	471.665
633.293	460.138
633.344	463.412
633.396	462.289
633.448	473.83
633.5	462.32
633.551	466.703
633.603	466.412
633.655	479.157
633.707	479.823
633.758	478.964
633.81	474.443
633.862	477.457
633.914	466.469
633.965	469.562
634.017	470.778
634.069	487.074
634.121	494.333
634.172	485.487
634.224	479.262
634.276	482.309
634.328	489.549
634.379	479.437
634.431	477.075
634.483	498.83
634.535	488.553
634.586	482.162
634.638	497.565
634.69	484.675
634.742	474.204
634.793	479.22
634.845	485.858
634.897	492.65
634.949	502.053
635	495.077
635.052	497.585
635.104	497.004
635.156	492.455
635.207	490.359
635.259	504.166
635.311	511.473
635.363	511.111
635.414	501.162
635.466	508.529
635.518	517.535
635.57	518.809
635.621	513.008
635.673	527.787
635.725	548.244
635.776	530.398
635.828	529.456
635.88	535.73
635.932	531.815
635.983	549.942
636.035	543.706
636.087	547.258
636.139	556.753
636.19	552.842
636.242	553.993
636.294	560.743
636.345	560.376
636.397	560.631
636.449	567.029
636.501	579.296
636.552	584.994
636.604	575.573
636.656	594.741
636.708	606.744
636.759	604.801
636.811	588.463
636.863	615.412
636.914	621.862
636.966	614.938
637.018	620.77
637.07	625.776
637.121	623.603
637.173	629.675
637.225	625.986
637.276	630.081
637.328	629.085
637.38	654.224
637.432	645.735
637.483	643.056
637.535	647.767
637.587	655.952
637.638	648.224
637.69	650.731
637.742	650.293
637.794	649.352
637.845	666.928
637.897	662.658
637.949	644.709
638	650.799
638.052	637.8
638.104	630.413
638.156	656.147
638.207	651.753
638.259	631.425
638.311	620.892
638.362	627.457
638.414	639.514
638.466	644.69
638.517	638.885
638.569	628.05
638.621	631.143
638.673	626.182
638.724	612.809
638.776	617.868
638.828	627.01
638.879	621.553
638.931	607.445
638.983	615.236
639.034	599.512
639.086	604.184
639.138	610.521
639.19	584.235
639.241	597.774
639.293	575.324
639.345	580.517
639.396	596.057
639.448	578.323
639.5	587.052
639.551	591.745
639.603	596.1
639.655	575.638
639.706	573.372
639.758	576.579
639.81	587.743
639.862	571.598
639.913	563.083
639.965	554.521
640.017	585.013
640.068	561.094
640.12	572.988
640.172	574.539
640.223	575.786
640.275	582.904
640.327	564.227
640.378	565.649
640.43	559.04
640.482	542.287
640.533	551.627
640.585	567.897
640.637	564.571
640.688	560.442
640.74	555.421
640.792	563.034
640.844	557.609
640.895	560.025
640.947	557.857
640.999	552.846
641.05	549.491
641.102	559.371
641.154	550.972
641.205	556.001
641.257	556.396
641.309	562.406
641.36	556.266
641.412	559.844
641.464	562.887
641.515	562.362
641.567	559.712
641.619	556.546
641.67	564.517
641.722	558
641.774	557.217
641.825	550.165
641.877	542.264
641.929	547.416
641.98	549.966
642.032	546.883
642.084	559.605
642.135	542.924
642.187	561.963
642.239	566.987
642.29	558.212
642.342	556.055
642.394	565.877
642.445	544.951
642.497	554.493
642.549	555.544
642.6	548.838
642.652	553.68
642.704	561.161
642.755	563.353
642.807	563.967
642.859	546.656
642.91	562.329
642.962	555.373
643.013	549.159
643.065	554.853
643.117	559.29
643.168	563.761
643.22	555.012
643.272	562.388
643.323	555.701
643.375	548.723
643.427	548.599
643.478	555.914
643.53	560.702
643.582	559.757
643.633	559.517
643.685	559.254
643.737	569.044
643.788	558.621
643.84	552.141
643.891	568.871
643.898	569.092
643.949	555.505
644.001	570.049
644.053	552.878
644.105	560.795
644.156	561.254
644.208	566.754
644.26	556.078
644.312	573.008
644.363	555.437
644.415	562.977
644.467	567.766
644.519	564.22
644.57	579.699
644.622	575.518
644.674	556.645
644.726	575.932
644.777	563.081
644.829	553.16
644.881	567.184
644.932	578.614
644.984	558.305
645.036	578.999
645.088	571.622
645.139	587.354
645.191	579.881
645.243	575.094
645.295	564.357
645.346	575.961
645.398	564.629
645.45	559.6
645.502	568.122
645.553	580.854
645.605	582.505
645.657	585.729
645.708	586.514
645.76	572.01
645.812	580.158
645.864	584.261
645.915	573.184
645.967	569.378
646.019	579.81
646.071	570.947
646.122	579.208
646.174	593.034
646.226	572.074
646.277	585.739
646.329	575.262
646.381	570.743
646.433	575.781
646.484	565.132
646.536	582.974
646.588	565.887
646.639	571.766
646.691	583.105
646.743	574.786
646.795	579.347
646.846	577.457
646.898	580.221
646.95	574.363
647.001	592.205
647.053	575.365
647.105	565.508
647.157	566.13
647.208	564.16
647.26	581.617
647.312	575.99
647.363	581.059
647.415	594.816
647.467	586.928
647.519	589.581
647.57	583.519
647.622	575.31
647.674	581.122
647.725	575.004
647.777	595.917
647.829	580.742
647.881	588.314
647.932	582.307
647.984	594.737
648.036	593.997
648.087	587.394
648.139	593.441
648.191	587.419
648.242	601.365
648.294	613.396
648.346	581.055
648.398	590.312
648.449	588.764
648.501	580.794
648.553	591.552
648.604	605.248
648.656	587.677
648.708	603.076
648.759	592.428
648.811	598.807
648.863	598.134
648.914	594.927
648.966	591.797
649.018	604.47
649.07	593.382
649.121	597.807
649.173	600.313
649.225	607.836
649.276	610.735
649.328	601.411
649.38	596.049
649.431	615.362
649.483	603.386
649.535	603.103
649.586	604.378
649.638	611.894
649.69	601.842
649.742	600.499
649.793	610.608
649.845	602.344
649.897	607.206
649.948	607.905
650	624.682
650.052	625.257
650.103	605.228
650.155	615.762
650.207	608.856
650.258	612.477
650.31	614.449
650.362	614.035
650.413	609.372
650.465	620.705
650.517	610.605
650.568	610.908
650.62	614.983
650.672	614.747
650.723	618.335
650.775	625.723
650.827	610.278
650.878	623.938
650.93	635.224
650.982	620.493
651.034	609.111
651.085	630.621
651.137	622.557
651.189	634.588
651.24	645.669
651.292	617.331
651.344	627.02
651.395	629.781
651.447	641.787
651.499	622.271
651.55	630.229
651.602	618.089
651.654	632.017
651.705	623.423
651.757	647.884
651.809	623.426
651.86	635.414
651.912	643.788
651.964	639.125
652.015	623.801
652.067	624.591
652.118	660.533
652.17	639.406
652.222	634.37
652.273	650.313
652.325	653.086
652.377	648.988
652.428	647.94
652.48	643.138
652.532	636.22
652.583	653.86
652.635	650.659
652.687	646.884
652.738	654.129
652.79	642.673
652.842	636.5
652.893	646.487
652.945	641.964
652.997	640.746
653.048	648.26
653.1	653.081
653.152	653.579
653.203	644.446
653.255	647.694
653.307	659.399
653.358	650.232
653.41	659.735
653.461	662.037
653.513	657.991
653.565	658.903
653.616	663.012
653.668	659.93
653.72	658.169
653.771	663.812
653.823	660.101
653.875	664.12
653.926	658.932
653.978	660.852
654.029	655.511
654.081	668.065
654.133	663.052
654.184	684.363
654.236	655.063
654.288	675.773
654.339	672.799
654.391	676.932
654.443	673.48
654.494	668.942
654.546	680.165
654.597	679.235
654.649	683.832
654.701	666.401
654.752	683.68
654.804	690.314
654.856	679.283
654.907	679.759
654.959	692.161
655.01	683.936
655.062	683.236
655.114	699.352
655.165	696.926
655.217	699.801
655.269	686.942
655.32	707.32
655.372	699.468
655.424	687.295
655.475	691.617
655.527	704.596
655.578	712.598
655.63	714.222
655.682	716.313
655.733	712.267
655.785	721.355
655.836	715.845
655.888	711.56
655.94	704.63
655.991	705.856
656.043	701.152
656.095	722.193
656.146	725.054
656.198	730.62
656.249	714.723
656.301	718.876
656.353	720.251
656.404	729.133
656.456	719.271
656.508	720.204
656.559	720.381
656.611	726.137
656.662	713.102
656.714	720.465
656.766	733.714
656.817	724.581
656.869	728.311
656.92	738.45
656.972	736.153
657.024	738.354
657.075	745.974
657.127	743.886
657.178	746.716
657.23	743.394
657.282	748.109
657.333	750.921
657.385	739.772
657.436	737.451
657.488	721.48
657.54	743.957
657.591	751.695
657.643	736.715
657.694	756.363
657.746	761.718
657.798	749.412
657.849	747.778
657.901	749.671
657.952	752.106
658.004	748.307
658.056	751.011
658.107	734.381
658.159	753.15
658.21	743.196
658.262	750.868
658.314	750.408
658.365	746.357
658.417	747.034
658.468	767.212
658.52	760.554
658.571	752.066
658.623	755.633
658.675	746.559
658.726	764.963
658.778	763.929
658.829	759.256
658.881	754.063
658.933	749.705
658.984	760.885
659.036	741.36
659.087	758.867
659.139	766.019
659.19	762.699
659.242	759.896
659.294	750.292
659.345	767.854
659.397	762.191
659.448	757.241
659.5	760.404
659.552	758.77
659.603	766.572
659.655	770.042
659.706	769.863
659.758	751.189
659.809	757.035
659.861	758.192
659.913	769.758
659.964	769.759
660.016	770.089
660.067	757.148
660.119	758.584
660.17	756.859
660.222	757.286
660.274	760.579
660.325	759.877
660.377	765.86
660.428	766.812
660.48	754.836
660.531	755.084
660.583	755.786
660.635	752.424
660.686	763.534
660.738	747.049
660.789	760.135
660.841	762.222
660.892	749.395
660.944	749.705
660.995	744.253
661.047	751.347
661.099	733.272
661.15	737.257
661.202	754.641
661.253	763.104
661.305	751.084
661.356	753.027
661.408	764.269
661.46	766.339
661.511	770.009
661.532	762.294
661.583	759.712
661.635	761.051
661.687	776.018
661.738	764.74
661.79	733.892
661.842	761.055
661.893	768.661
661.945	768.457
661.997	750.598
662.048	761.578
662.1	758.363
662.151	767.845
662.203	754.821
662.255	750.952
662.306	751.328
662.358	770.105
662.41	747.147
662.461	754.839
662.513	763.635
662.565	742.038
662.616	741.926
662.668	747.372
662.72	760.977
662.771	751.371
662.823	759.778
662.875	763.313
662.926	744.035
662.978	759.894
663.03	766.212
663.081	762.268
663.133	745.397
663.184	747.39
663.236	750.435
663.288	748.469
663.339	750.697
663.391	747.097
663.443	745.566
663.494	762.408
663.546	754.635
663.598	742.303
663.649	758.539
663.701	759.785
663.752	757.175
663.804	752.479
663.856	732.011
663.907	771.188
663.959	755.33
664.011	752.165
664.062	744.176
664.114	767.756
664.166	747.187
664.217	756.06
664.269	767.632
664.32	750.002
664.372	765.073
664.424	751.581
664.475	767.092
664.527	774.811
664.579	757.122
664.63	750.55
664.682	758.605
664.733	760.035
664.785	767.902
664.837	756.295
664.888	755.457
664.94	769.835
664.992	754.977
665.043	751.394
665.095	760.134
665.146	763.416
665.198	767.193
665.25	736.944
665.301	765.73
665.353	757.704
665.405	746.808
665.456	764.55
665.508	736.554
665.559	751.095
665.611	756.757
665.663	757.82
665.714	761.23
665.766	747.998
665.817	741.707
665.869	755.402
665.921	745.076
665.972	754.232
666.024	752.593
666.076	750.991
666.127	762.48
666.179	752
666.23	743.643
666.282	747.904
666.334	767.471
666.385	750.873
666.437	750.33
666.488	757.968
666.54	742.257
666.592	762.752
666.643	760.234
666.695	746.174
666.746	759.683
666.798	737.291
666.85	741.153
666.901	761.401
666.953	755.525
667.004	764.889
667.056	765.181
667.108	745.38
667.159	756.216
667.211	748.25
667.262	753.276
667.314	748.149
667.366	741.446
667.417	743.281
667.469	752.302
667.52	749.506
667.572	741.251
667.624	750.532
667.675	748.954
667.727	754.551
667.778	746.871
667.83	760.147
667.882	749.504
667.933	760.963
667.985	745.692
668.036	738.758
668.088	749.424
668.14	744.041
668.191	752.446
668.243	752.004
668.294	757.887
668.346	760.212
668.397	748.841
668.449	754.661
668.501	742.703
668.552	742.43
668.604	734.101
668.655	744.299
668.707	740.259
668.759	736.58
668.81	764.427
668.862	767.968
668.913	742.972
668.965	739.831
669.016	757.061
669.068	753.004
669.12	743.685
669.171	734.334
669.223	746.264
669.274	747.599
669.326	757.475
669.377	750.887
669.429	754.761
669.481	763.651
669.532	734.209
669.584	744.889
669.635	749.29
669.687	749.258
669.738	752.898
669.79	759.101
669.842	739.23
669.893	730.219
669.945	756.934
669.996	756.871
670.048	770.713
670.099	767.222
670.151	745.829
670.203	757.492
670.254	743.486
670.306	744.993
670.357	751.669
670.409	751.457
670.46	752.537
670.512	749.531
670.564	752.912
670.615	754.572
670.667	732.517
670.718	740.142
670.77	745.322
670.821	743.129
670.873	738.731
670.924	739.697
670.976	741.972
671.028	733.785
671.079	755.356
671.131	722.936
671.182	744.162
671.234	751.882
671.285	747.874
671.337	742.086
671.388	739.036
671.44	749.052
671.492	750.638
671.543	731.776
671.595	738.119
671.646	750.44
671.698	745.675
671.749	760.795
671.801	746.596
671.852	758.344
671.904	748.6
671.956	751.66
672.007	749.103
672.059	737.527
672.11	762.774
672.162	757.574
672.213	758.324
672.265	748.82
672.316	749.977
672.368	779.988
672.419	748.842
672.471	745.128
672.522	758.872
672.574	755.451
672.626	739.438
672.677	763.503
672.729	771.231
672.78	758.977
672.832	754.603
672.883	756.335
672.935	748.28
672.986	758.93
673.038	774.57
673.089	760.694
673.141	766.755
673.192	767.84
673.244	762.364
673.296	762.92
673.347	770.514
673.399	752.215
673.45	752.346
673.502	754.937
673.553	748.605
673.605	760.065
673.656	773.159
673.708	765.822
673.759	776.553
673.811	761.805
673.862	750.23
673.914	771.05
673.965	766.418
674.017	772.737
674.068	751.807
674.12	768.441
674.171	774.744
674.223	767.727
674.275	774.727
674.326	767.631
674.378	775.101
674.429	775.404
674.481	777.04
674.532	776.441
674.584	765.334
674.635	786.604
674.687	797.666
674.738	780.071
674.79	784.363
674.841	776.112
674.893	785.054
674.944	788.327
674.996	781.59
675.047	789.594
675.099	776.133
675.15	784.249
675.202	785.781
675.253	793.904
675.305	791.516
675.356	799.123
675.408	788.093
675.459	774.693
675.511	779.471
675.562	775.681
675.614	791.868
675.665	792.887
675.717	781.927
675.768	789.004
675.82	792.669
675.871	795.514
675.923	788.252
675.974	802.271
676.026	800.519
676.077	786.066
676.129	785.89
676.18	794.044
676.232	782.708
676.283	786.018
676.335	792.221
676.386	800.086
676.438	797.681
676.489	798.839
676.541	787.259
676.592	816.136
676.644	790.595
676.695	783.088
676.747	784.209
676.798	802.888
676.85	810.129
676.901	802.31
676.953	796.651
677.004	806.488
677.056	786.262
677.107	787.657
677.159	783.032
677.21	801.073
677.262	799.405
677.313	795.063
677.365	800.26
677.416	794.113
677.468	786.705
677.519	793.213
677.571	782.917
677.622	798.177
677.674	786.421
677.725	798.984
677.777	804.178
677.828	777.334
677.88	784.871
677.931	805.117
677.982	795.226
678.034	802.533
678.085	788.075
678.137	787.952
678.188	782.234
678.24	795.333
678.291	797.301
678.343	797.87
678.394	786.815
678.446	782.181
678.497	791.21
678.549	807.538
678.6	791.159
678.652	820.378
678.703	800.403
678.755	791.154
678.806	790.786
678.857	797.126
678.909	800.451
678.96	806.076
679.012	799.869
679.063	816.601
679.083	817.215
679.135	799.125
679.186	788.908
679.238	791.969
679.289	781.52
679.341	795.994
679.392	813.451
679.444	814.57
679.496	789.029
679.547	790.845
679.599	810.237
679.65	797.221
679.702	796.641
679.753	802.445
679.805	822.665
679.857	803.263
679.908	814.029
679.96	802.005
680.011	793.558
680.063	778.326
680.114	789.099
680.166	813.488
680.217	805.271
680.269	792.205
680.321	776.399
680.372	779.648
680.424	799.869
680.475	797.429
680.527	788.125
680.578	791.403
680.63	799.708
680.682	799.58
680.733	799.053
680.785	804.938
680.836	806.592
680.888	798.986
680.939	798.173
680.991	813.403
681.042	803.62
681.094	817.777
681.146	821.444
681.197	803.15
681.249	821.245
681.3	822.482
681.352	806.184
681.403	786.195
681.455	812.016
681.506	813.752
681.558	801.116
681.609	788.89
681.661	799.862
681.712	813.704
681.764	801.975
681.816	800.903
681.867	808.209
681.919	804.071
681.97	800.313
682.022	803.957
682.073	797.197
682.125	819.819
682.176	821.122
682.228	827.545
682.279	794.714
682.331	795.464
682.383	805.6
682.434	811.99
682.486	799.867
682.537	812.291
682.589	806.402
682.64	813.363
682.692	814.027
682.743	826.814
682.795	813.713
682.846	809.59
682.898	821.753
682.949	819.203
683.001	799.31
683.052	785.032
683.104	809.442
683.156	810.237
683.207	810.584
683.259	810.261
683.31	823.453
683.362	814.231
683.413	810.809
683.465	803.171
683.516	808.294
683.568	806.776
683.619	809.512
683.671	808.11
683.722	821.732
683.774	817.646
683.825	820.999
683.877	796.989
683.928	813.627
683.98	813.904
684.031	821.048
684.083	822.233
684.134	803.742
684.186	781.697
684.237	814.718
684.289	795.422
684.341	797.67
684.392	811.358
684.444	818.768
684.495	803.215
684.547	798.581
684.598	809.458
684.65	818.925
684.701	808.592
684.753	813.436
684.804	802.989
684.856	805.45
684.907	825.582
684.959	807.27
685.01	803.945
685.062	793.976
685.113	793.515
685.165	815.955
685.216	812.876
685.268	798.922
685.319	807.719
685.371	797.949
685.422	792.259
685.474	790.684
685.525	798.073
685.577	804.118
685.628	794.704
685.68	763.465
685.731	807.698
685.783	796.311
685.834	773.126
685.886	795.221
685.937	793.003
685.989	781.911
686.04	779.162
686.092	785.124
686.143	795.326
686.195	785.113
686.246	806.645
686.298	783.954
686.349	788.383
686.401	795.726
686.452	793.748
686.504	768.814
686.555	802.753
686.607	797.632
686.658	787.232
686.71	782.45
686.761	773.057
686.813	793.34
686.864	789.25
686.916	800.302
686.967	789.956
687.018	791.258
687.07	774.789
687.121	772.803
687.173	790.125
687.224	795.447
687.276	781.355
687.327	778.989
687.379	781.29
687.43	790.481
687.482	786.686
687.533	781.502
687.585	784.568
687.636	803.35
687.688	804.357
687.739	794.237
687.791	795.598
687.842	781.994
687.894	795.306
687.945	790.905
687.997	806.12
688.048	776.655
688.1	776.308
688.151	763.914
688.203	778.087
688.254	755.458
688.305	768.7
688.357	782.279
688.408	778.375
688.46	776.629
688.511	767.375
688.563	783.162
688.614	782.22
688.666	778.72
688.717	769.866
688.769	788.334
688.82	777.309
688.872	767.024
688.923	773.934
688.974	766.763
689.026	790.041
689.077	764.626
689.129	784.069
689.18	780.957
689.232	770.692
689.283	768.189
689.335	765.508
689.386	770.716
689.438	785.214
689.489	773.55
689.541	774.835
689.592	775.651
689.643	781.53
689.695	778.914
689.746	767.081
689.798	767.448
689.849	767.443
689.901	767.613
689.952	780.534
690.004	780.909
690.055	768.436
690.107	773.081
690.158	761.685
690.209	749.747
690.261	765.402
690.312	767.156
690.364	765.766
690.415	777.171
690.467	776.038
690.518	772.262
690.57	752.563
690.621	768.31
690.672	771.438
690.724	770.813
690.775	771.872
690.827	764.683
690.878	778.624
690.93	777.249
690.981	769.865
691.033	766.163
691.084	764.396
691.135	770.07
691.187	767.695
691.238	781.299
691.29	762.257
691.341	764.589
691.393	758.328
691.444	771.955
691.495	771.239
691.547	771.707
691.598	764.503
691.65	767.732
691.701	757.579
691.753	756.064
691.804	761.988
691.856	757.801
691.907	762.718
691.958	764.358
692.01	758.285
692.061	769.058
692.113	778.272
692.164	741.387
692.216	749.954
692.267	764.031
692.318	751.127
692.37	759.869
692.421	754.635
692.473	753.438
692.524	745.094
692.576	741.416
692.627	756.024
692.678	761.886
692.73	757.169
692.781	744.842
692.833	744.997
692.884	757.966
692.935	749.876
692.987	745.681
693.038	742.896
693.09	751.235
693.141	758.55
693.193	757.147
693.244	752.343
693.295	755.095
693.347	746.327
693.398	730.957
693.45	741.71
693.501	753.457
693.552	752.659
693.604	737.093
693.655	753.008
693.707	762.572
693.758	750.792
693.809	745.792
693.861	742.783
693.912	741.26
693.964	731.486
694.015	743.46
694.066	756.878
694.118	758.756
694.169	747.509
694.221	731.289
694.272	731.593
694.323	744.856
694.375	736.013
694.426	739.634
694.478	740.172
694.529	753.22
694.581	767.696
694.632	754.884
694.683	757.221
694.735	755.577
694.786	750.712
694.837	734.385
694.889	744.164
694.94	758.198
694.992	746.517
695.043	738.626
695.094	737.593
695.146	745.949
695.197	750.109
695.249	746.674
695.3	748.512
695.351	732.078
695.403	730.693
695.454	733.2
695.506	730.027
695.557	744.277
695.608	733.208
695.66	736.894
695.711	737.366
695.763	750.096
695.814	742.74
695.865	742.509
695.917	734.201
695.968	732.955
696.019	720.279
696.071	719.951
696.122	716.676
696.174	721.1
696.225	726.689
696.276	731.762
696.328	723.168
696.379	729.648
696.43	726.021
696.482	721.51
696.533	713.019
696.585	722.623
696.636	722.246
696.687	714.38
696.707	715.217
696.759	741.549
696.81	733.483
696.862	739.44
696.913	722.892
696.965	728.937
697.016	729.429
697.068	718.259
697.119	724.85
697.171	707.667
697.222	719.17
697.274	705.832
697.325	715.062
697.377	727.866
697.428	715.159
697.479	715.338
697.531	707.641
697.582	715.175
697.634	716.565
697.685	720.732
697.737	715.855
697.788	724.848
697.84	721.845
697.891	720.237
697.943	704.405
697.994	714.028
698.046	705.808
698.097	713.606
698.149	709.482
698.2	708.878
698.252	711.792
698.303	724.905
698.354	713.251
698.406	716.097
698.457	705.889
698.509	717.342
698.56	713.251
698.612	700.11
698.663	705.947
698.715	713.082
698.766	709.425
698.818	711.418
698.869	705.189
698.921	717.221
698.972	714.449
699.023	714.814
699.075	710.28
699.126	715.521
699.178	711.213
699.229	706.427
699.281	668.185
699.332	698.126
699.384	716.645
699.435	708.985
699.487	699.474
699.538	710.344
699.589	707.751
699.641	696.522
699.692	682.949
699.744	685.252
699.795	695.912
699.847	690.557
699.898	698.482
699.95	698.168
700.001	695.229
700.052	694.505
700.104	681.318
700.155	682.424
700.207	692.438
700.258	707.043
700.31	702.407
700.361	693.468
700.413	692.257
700.464	686.737
700.515	676.933
700.567	687.277
700.618	702.859
700.67	699.527
700.721	686.473
700.773	682.602
700.824	679.004
700.875	687.721
700.927	691.735
700.978	696.282
701.03	704.215
701.081	696.328
701.133	701.773
701.184	700.465
701.235	701.667
701.287	709.199
701.338	692.307
701.39	689.63
701.441	693.447
701.493	693.67
701.544	683.725
701.596	694.19
701.647	702.735
701.698	697.55
701.75	695.61
701.801	690.669
701.853	691.37
701.904	683.31
701.956	699.189
702.007	712.61
702.058	703.039
702.11	693.751
702.161	689.606
702.213	684.679
702.264	690.184
702.315	694.276
702.367	696.943
702.418	696.997
702.47	692.92
702.521	689.369
702.573	675.486
702.624	695.797
702.675	708.744
702.727	702.277
702.778	689.55
702.83	680.348
702.881	685.666
702.932	685.696
702.984	693.719
703.035	698.308
703.087	697.755
703.138	691.775
703.19	690.704
703.241	693.351
703.292	699.127
703.344	704.9
703.395	694.667
703.447	694.104
703.498	695.532
703.549	685.912
703.601	689.961
703.652	680.182
703.704	683.439
703.755	677.289
703.806	689.113
703.858	685.101
703.909	693.12
703.961	674.988
704.012	674.542
704.063	693.373
704.115	697.435
704.166	690.652
704.218	676.666
704.269	684.923
704.32	689.219
704.372	686.094
704.423	682.744
704.475	681.202
704.526	677.081
704.577	669.767
704.629	677.248
704.68	680.438
704.732	691.604
704.783	686.112
704.834	688.307
704.886	688.54
704.937	686.865
704.988	692.161
705.04	684.201
705.091	671.71
705.143	667.565
705.194	678.939
705.245	669.849
705.297	672.176
705.348	676.022
705.4	667.271
705.451	669.363
705.502	667.204
705.554	675.953
705.605	673.027
705.656	672.152
705.708	671.451
705.759	658.273
705.811	670.335
705.862	663.594
705.913	671.262
705.965	663.216
706.016	670.428
706.068	669.393
706.119	678.38
706.17	661.444
706.222	653.276
706.273	662.597
706.324	657.88
706.376	655.32
706.427	661.22
706.479	664.973
706.53	669.672
706.581	658.799
706.633	649.549
706.684	650.477
706.735	654.581
706.787	660.021
706.838	655.426
706.889	643.807
706.941	643.952
706.992	648.848
707.044	648.774
707.095	647.452
707.146	662.349
707.198	665.78
707.249	662.298
707.3	662.571
707.352	647.016
707.403	639.995
707.454	652.156
707.506	646.142
707.557	661.41
707.609	658.212
707.66	656.303
707.711	641.859
707.763	650.354
707.814	643.388
707.865	648.035
707.917	666.155
707.968	648.702
708.019	650.172
708.071	638.107
708.122	646.183
708.173	649.513
708.225	655.031
708.276	640.604
708.328	632.542
708.379	649.518
708.43	654.861
708.482	630.712
708.533	638.184
708.584	647.219
708.636	654.274
708.687	620.276
708.738	634.495
708.79	640.479
708.841	630.289
708.892	634.984
708.944	631.916
708.995	634.717
709.046	646.572
709.098	652.891
709.149	652.135
709.2	655.528
709.252	635.586
709.303	632.606
709.354	633.401
709.406	648.486
709.457	638.106
709.508	645.697
709.56	640.97
709.611	647.668
709.662	636.883
709.714	634.665
709.765	636.738
709.816	635.694
709.868	650.36
709.919	639.07
709.97	643.805
710.022	655.484
710.073	637.503
710.124	634.063
710.176	647.843
710.227	625.868
710.278	635.404
710.33	622.13
710.381	628.777
710.432	626.97
710.484	628.838
710.535	634.987
710.586	639.397
710.638	640.677
710.689	628.841
710.74	628.299
710.792	635.388
710.843	629.286
710.894	638.593
710.946	629.959
710.997	631.562
711.048	625.503
711.1	615.914
711.151	632.525
711.202	638.691
711.254	639.42
711.305	624.072
711.356	628.491
711.407	613.803
711.459	624.581
711.51	620.561
711.561	622.962
711.613	629.503
711.664	628.043
711.715	614.521
711.767	624.988
711.818	617.21
711.869	617.132
711.921	625.09
711.972	607.53
712.023	624.034
712.075	620.457
712.126	608.099
712.177	611.49
712.228	622.756
712.28	629.398
712.331	609.975
712.382	628.281
712.434	616.573
712.485	618.182
712.536	607.842
712.588	624.001
712.639	604.646
712.69	621.179
712.741	616.46
712.793	602.063
712.844	608.217
712.895	602.301
712.947	588.892
712.998	613.468
713.049	600.534
713.101	607.516
713.152	622.036
713.203	624.632
713.254	612.831
713.306	607.091
713.357	594.824
713.408	597.382
713.46	591.914
713.511	603.902
713.562	604.082
713.613	593.668
713.665	599.063
713.716	607.566
713.767	600.136
713.819	597.519
713.87	604.063
713.921	607.849
713.972	596.946
714.024	589.296
714.075	600.495
714.126	596.208
714.178	602.781
714.18	602.974
714.231	608.661
714.283	602.656
714.334	592.763
714.385	591.491
714.437	602.498
714.488	587.314
714.539	595.137
714.591	596.284
714.642	600.328
714.694	595.316
714.745	595.391
714.796	603.05
714.848	589.461
714.899	599.106
714.951	586.047
715.002	592.808
715.053	610.115
715.105	573.659
715.156	580.616
715.207	584.151
715.259	586.62
715.31	584.568
715.362	592.963
715.413	592.088
715.464	583.458
715.516	594.106
715.567	590.641
715.618	585.764
715.67	586.615
715.721	584.773
715.773	575.737
715.824	582.958
715.875	589.838
715.927	583.228
715.978	576.535
716.029	583.812
716.081	579.018
716.132	594.26
716.184	586.178
716.235	582.329
716.286	590.47
716.338	570.355
716.389	563.105
716.44	586.146
716.492	578.97
716.543	589.293
716.594	573.251
716.646	574.494
716.697	586.359
716.749	588.976
716.8	580.064
716.851	587.827
716.903	578.266
716.954	567.885
717.005	576.242
717.057	585.64
717.108	571.856
717.159	575.788
717.211	572.031
717.262	579.599
717.314	585.9
717.365	585.607
717.416	572.904
717.468	572.117
717.519	578.67
717.57	565.128
717.622	564.872
717.673	566.913
717.724	573.667
717.776	576.205
717.827	577.862
717.878	575.315
717.93	580.813
717.981	561.684
718.032	555.971
718.084	569.919
718.135	562.478
718.187	567.61
718.238	574.565
718.289	576.519
718.341	569.165
718.392	562.055
718.443	569.42
718.495	553.005
718.546	576.76
718.597	575.594
718.649	562.805
718.7	567.372
718.751	573.297
718.803	567.384
718.854	553.925
718.905	573.57
718.957	574.05
719.008	567.8
719.059	568.608
719.111	563.597
719.162	555.586
719.213	567.749
719.265	571.617
719.316	563.211
719.367	559.236
719.419	557.957
719.47	565.068
719.521	567.731
719.573	571.466
719.624	565.906
719.675	561.142
719.727	560.364
719.778	560.153
719.829	563.047
719.881	563.137
719.932	560.8
719.983	566.398
720.035	542.302
720.086	555.221
720.137	560.868
720.189	563.76
720.24	565.424
720.291	548.484
720.343	560.886
720.394	559.096
720.445	557.898
720.496	554.902
720.548	572.648
720.599	558.286
720.65	552.674
720.702	558.168
720.753	561.402
720.804	560.861
720.856	557.631
720.907	560.484
720.958	557.925
721.01	553.87
721.061	571.968
721.112	547.624
721.164	545.68
721.215	558.481
721.266	548.004
721.318	543.416
721.369	564.328
721.42	558.337
721.471	551.727
721.523	564.384
721.574	567.96
721.625	549.598
721.677	545.192
721.728	544.615
721.779	548.865
721.831	547.72
721.882	538.189
721.933	558.046
721.984	549.268
722.036	553.958
722.087	547.696
722.138	550.211
722.19	565.412
722.241	542.432
722.292	536.61
722.344	541.738
722.395	553.103
722.446	544.776
722.497	554.428
722.549	558.557
722.6	566.178
722.651	551.015
722.703	544.471
722.754	547.558
722.805	552.792
722.857	555.319
722.908	551.166
722.959	546
723.01	547.138
723.062	547.922
723.113	544.693
723.164	540.634
723.216	552.646
723.267	549.214
723.318	552.773
723.369	551.314
723.421	552.22
723.472	546.746
723.523	550.531
723.575	541.355
723.626	543.698
723.677	537.272
723.728	548.392
723.78	538.613
723.831	550.855
723.882	557.594
723.934	548.936
723.985	553.973
724.036	554.336
724.087	545.828
724.139	548.838
724.19	551.543
724.241	546.269
724.292	540.25
724.344	537.296
724.395	548.445
724.446	551.234
724.498	553.813
724.549	560.213
724.6	556.078
724.651	546.706
724.703	549.198
724.754	550.794
724.805	551.327
724.856	566.998
724.908	561.321
724.959	546.259
725.01	554.645
725.062	547.471
725.113	565.92
725.164	564.612
725.215	554.118
725.267	558.167
725.318	559.031
725.369	558.794
725.42	568.029
725.472	552.783
725.523	550.322
725.574	544.53
725.625	547.787
725.677	550.974
725.728	554.37
725.779	561.051
725.83	553.265
725.882	549.734
725.933	547.547
725.984	549.982
726.036	572.82
726.087	569.297
726.138	552.667
726.189	549.787
726.241	564.099
726.292	564.115
726.343	543.326
726.394	555.741
726.445	562.333
726.497	556.178
726.548	557.876
726.599	559.359
726.651	558.563
726.702	559.924
726.753	563.948
726.804	536.433
726.855	553.739
726.907	550.445
726.958	552.456
727.009	547.023
727.06	575.68
727.112	564.22
727.163	547.811
727.214	546.598
727.265	555.194
727.317	552.473
727.368	548.456
727.419	544.683
727.47	549.362
727.522	555.419
727.573	547.308
727.624	553.899
727.675	554.717
727.727	548.716
727.778	553.51
727.829	550.761
727.88	556.78
727.932	565.371
727.983	556.764
728.034	557.264
728.085	555.415
728.136	534.619
728.188	555.483
728.239	553.763
728.29	556.63
728.341	554.098
728.393	544.384
728.444	537.512
728.495	556.994
728.546	559.531
728.597	546.919
728.649	536.986
728.7	554.892
728.751	565.643
728.802	553.442
728.854	557.353
728.905	558.192
728.956	566.049
729.007	543.689
729.058	534.056
729.11	554.679
729.161	559.7
729.212	569.718
729.263	548.952
729.315	541.161
729.366	550.728
729.417	558.047
729.468	551.73
729.519	553.259
729.571	545.994
729.622	540.841
729.673	548.058
729.724	549.595
729.775	553.861
729.827	541.189
729.878	568.159
729.929	553.432
729.98	539.853
730.031	545.732
730.083	549.485
730.134	557.371
730.185	545.348
730.236	533.585
730.288	550.904
730.339	547.801
730.39	551.756
730.441	538.699
730.492	559.213
730.544	545.564
730.595	556.382
730.646	568.105
730.697	564.699
730.748	559.874
730.8	561.122
730.851	539.686
730.902	549.75
730.953	563.212
731.004	547.039
731.056	572.901
731.107	564.659
731.158	569.622
731.209	563.713
731.26	570.235
731.312	575.886
731.363	563.69
731.414	560.282
731.465	548.77
731.516	551.198
731.567	552.928
731.619	547.537
731.622	547.219
731.673	559.221
731.725	585.141
731.776	578.093
731.827	558.451
731.878	575.525
731.93	578.3
731.981	566.853
732.032	575.587
732.084	586.485
732.135	571.058
732.186	581.45
732.237	572.589
732.289	559.727
732.34	561.146
732.391	588.016
732.443	574.473
732.494	561.488
732.545	576.602
732.597	570.743
732.648	580.412
732.699	590.492
732.75	594.911
732.802	591.401
732.853	588.71
732.904	605.498
732.956	596.8
733.007	596.946
733.058	585.436
733.109	607.143
733.161	602.601
733.212	607.098
733.263	613.41
733.315	606.791
733.366	616.565
733.417	622.721
733.468	604.636
733.52	618.052
733.571	627.362
733.622	612.475
733.673	632.419
733.725	630.911
733.776	641.729
733.827	641.646
733.879	626.94
733.93	645.352
733.981	641.253
734.032	647.919
734.084	650.708
734.135	653.59
734.186	666.419
734.237	657.967
734.289	664.35
734.34	651.383
734.391	674.534
734.443	671.104
734.494	683.744
734.545	694.82
734.596	699.563
734.648	701.735
734.699	693.243
734.75	691.973
734.801	692.074
734.853	701.512
734.904	725.607
734.955	734.429
735.006	711.79
735.058	732.404
735.109	740.698
735.16	754.907
735.211	755.594
735.263	760.44
735.314	757.723
735.365	761.14
735.417	783.359
735.468	778.016
735.519	786.484
735.57	800.603
735.622	794.109
735.673	816.132
735.724	820.07
735.775	804.195
735.827	829.119
735.878	852.808
735.929	840.99
735.98	856.133
736.032	870.965
736.083	877.312
736.134	889.808
736.185	890.424
736.237	904.611
736.288	915.288
736.339	933.069
736.39	947.916
736.442	951.533
736.493	935.849
736.544	980.896
736.595	965.762
736.646	984.183
736.698	991.163
736.749	1014.64
736.8	1026.15
736.851	1018.91
736.903	1042.48
736.954	1070.97
737.005	1074.62
737.056	1074.81
737.108	1093.27
737.159	1093.6
737.21	1124.88
737.261	1111.86
737.313	1114.48
737.364	1138.96
737.415	1165.26
737.466	1163.99
737.518	1171.33
737.569	1207.76
737.62	1219.1
737.671	1242.64
737.722	1232.4
737.774	1234.93
737.825	1226.26
737.876	1238.21
737.927	1265.23
737.979	1268.81
738.03	1269.47
738.081	1268.1
738.132	1263.56
738.183	1270.88
738.235	1284.62
738.286	1280.85
738.337	1284.72
738.388	1294.62
738.44	1276.6
738.491	1271.3
738.542	1283.5
738.593	1249.61
738.644	1242.31
738.696	1266.85
738.747	1253.04
738.798	1232.3
738.849	1234.62
738.901	1235.95
738.952	1220.93
739.003	1200.58
739.054	1186.3
739.105	1158.02
739.157	1164.51
739.208	1175.06
739.259	1160.08
739.31	1146.37
739.361	1125.66
739.413	1120.43
739.464	1115.92
739.515	1111.41
739.566	1094.53
739.617	1082.47
739.669	1065.33
739.72	1054.38
739.771	1031.13
739.822	1029.12
739.874	1025.37
739.925	1018.59
739.976	999.265
740.027	973.984
740.078	971.213
740.13	960.23
740.181	941.623
740.232	934.073
740.283	927.641
740.334	918.579
740.385	912.928
740.437	910.324
740.488	902.337
740.539	887.808
740.59	868.714
740.641	873.588
740.693	854.633
740.744	837.358
740.795	834.269
740.846	822.411
740.897	836.717
740.949	822.75
741	817.256
741.051	798.914
741.102	787.516
741.153	787.108
741.205	774.039
741.256	758.219
741.307	764.26
741.358	765.597
741.409	750.173
741.461	750.964
741.512	750.027
741.563	740.653
741.614	732.161
741.665	724.121
741.716	717.753
741.768	715.649
741.819	707.341
741.87	689.836
741.921	686.689
741.972	684.019
742.024	691.107
742.075	690.72
742.126	680.499
742.177	660.032
742.228	661.864
742.279	652.739
742.331	653.435
742.382	659.48
742.433	655.792
742.484	650.14
742.535	650.536
742.586	642.685
742.638	643.503
742.689	634.362
742.74	636.168
742.791	630.832
742.842	622.764
742.893	625.959
742.945	618.785
742.996	617.618
743.047	613.909
743.098	594.458
743.149	599.1
743.201	592.83
743.252	585.945
743.303	600.759
743.354	595.105
743.405	583.388
743.456	579.224
743.507	579.195
743.559	567.195
743.61	576.334
743.661	574.849
743.712	570.707
743.763	562.649
743.814	565.59
743.866	564.462
743.917	572.023
743.968	563.221
744.019	560.19
744.07	560.982
744.121	562.639
744.172	550.674
744.224	545.016
744.275	542.655
744.326	550.974
744.377	549.16
744.428	556.25
744.479	552.03
744.531	545.662
744.582	536.741
744.633	532.2
744.684	530.822
744.735	528.484
744.786	532.761
744.837	530.84
744.889	535.984
744.94	533.879
744.991	518.582
745.042	522.147
745.093	529.357
745.144	522.383
745.195	518.16
745.247	516.322
745.298	516.215
745.349	521.925
745.4	518.726
745.451	511.583
745.502	493.985
745.553	509.509
745.605	508.2
745.656	496.445
745.707	509.039
745.758	505.345
745.809	497.867
745.86	505.032
745.911	510.744
745.962	507.418
746.014	507.227
746.065	508.081
746.116	498.49
746.167	482.702
746.218	481.626
746.269	487.189
746.32	486.039
746.372	488.34
746.423	486.592
746.474	497.352
746.525	486.809
746.576	490.354
746.627	486.898
746.678	484.763
746.729	482.307
746.78	481.884
746.832	480.451
746.883	486.598
746.934	480.76
746.985	477.826
747.036	473.501
747.087	482.562
747.138	485.822
747.189	478.189
747.241	470.2
747.292	478.259
747.343	490.477
747.394	485.28
747.445	473.864
747.496	473.295
747.547	475.477
747.598	474.206
747.649	486.541
747.701	471.57
747.752	473.915
747.803	476.158
747.854	473.651
747.905	485.124
747.956	482.935
748.007	474.18
748.058	477.231
748.109	473.365
748.161	473.011
748.212	466.511
748.263	453.093
748.314	472.308
748.365	474.197
748.416	473.61
748.467	463.764
748.518	452.994
748.569	458.776
748.62	467.144
748.672	450.762
748.723	458.753
748.774	472.763
748.825	469.803
748.876	459.053
748.927	447.891
748.978	467.494
749.029	469.362
749.08	458.354
749.131	461.286
749.173	462.305
749.224	456.268
749.275	458.517
749.326	468.497
749.378	459.023
749.429	461.354
749.48	450.124
749.531	455.039
749.582	453.687
749.634	451.791
749.685	446.377
749.736	454.623
749.787	448.034
749.838	453.026
749.89	459
749.941	439.731
749.992	449.822
750.043	456.018
750.094	458.171
750.146	450.301
750.197	449.363
750.248	455.788
750.299	440.088
750.35	440.452
750.401	451.247
750.453	430.853
750.504	443.344
750.555	435.066
750.606	442.157
750.657	433.802
750.709	431.657
750.76	432.763
750.811	439.226
750.862	439.592
750.913	426.628
750.964	445.205
751.016	436.083
751.067	438.374
751.118	449.154
751.169	430.188
751.22	435.4
751.272	443.139
751.323	433.266
751.374	434.981
751.425	429.217
751.476	446.072
751.528	414.932
751.579	415.563
751.63	437.077
751.681	438.64
751.732	442.322
751.783	438.153
751.835	426.415
751.886	430.334
751.937	425.529
751.988	427.278
752.039	428.548
752.09	429.551
752.142	427.773
752.193	431.513
752.244	431.444
752.295	421.865
752.346	417.128
752.397	434.019
752.449	425.361
752.5	425.005
752.551	404.351
752.602	417.668
752.653	413.469
752.704	426.127
752.756	435.311
752.807	417.248
752.858	412.73
752.909	407.962
752.96	425.578
753.011	423.839
753.063	414.657
753.114	424.899
753.165	414.823
753.216	417.806
753.267	409.029
753.318	416.855
753.37	419.626
753.421	402.011
753.472	402.385
753.523	427.008
753.574	406.438
753.625	405.953
753.676	400.538
753.728	416.039
753.779	413.023
753.83	418.9
753.881	414.677
753.932	413.402
753.983	413.455
754.034	400.858
754.086	422.045
754.137	408.127
754.188	411.645
754.239	410.376
754.29	412.232
754.341	412.995
754.393	414.914
754.444	401.222
754.495	399.181
754.546	400.781
754.597	403.085
754.648	412.581
754.699	397.529
754.75	397.184
754.802	381.841
754.853	407.197
754.904	398.945
754.955	405.382
755.006	403.288
755.057	385.994
755.108	409.182
755.16	398.601
755.211	399.744
755.262	394.15
755.313	395.372
755.364	391.944
755.415	391.224
755.466	399.436
755.518	407.465
755.569	396.022
755.62	401.788
755.671	386.193
755.722	392.028
755.773	387.978
755.824	401.839
755.875	397.918
755.927	397.86
755.978	397.42
756.029	397.993
756.08	392.934
756.131	397.406
756.182	384.926
756.233	384.738
756.284	396.597
756.336	395.513
756.387	376.894
756.438	384.439
756.489	394.127
756.54	383.815
756.591	376.429
756.642	374.738
756.693	389.194
756.745	386.209
756.796	384.294
756.847	397.01
756.898	383.288
756.949	385.068
757	386.383
757.051	378.431
757.102	379.554
757.153	392.913
757.205	384.191
757.256	377.31
757.307	391.545
757.358	380.703
757.409	376.052
757.46	379.156
757.511	374.862
757.562	364.008
757.613	378.93
757.664	383.114
757.716	383.011
757.767	382.056
757.818	397.426
757.869	387.602
757.92	389.124
757.971	378.969
758.022	375.465
758.073	386.667
758.124	382.361
758.175	375.214
758.227	374.068
758.278	368.21
758.329	377.886
758.38	388.002
758.431	371.091
758.482	377.218
758.533	370.541
758.584	369.424
758.635	380.107
758.686	383.47
758.738	377.395
758.789	365.328
758.84	371.34
758.891	370.58
758.942	378.4
758.993	370.871
759.044	362.824
759.095	373.81
759.146	366.487
759.197	370.3
759.248	375.445
759.3	371.408
759.351	362.875
759.402	367.222
759.453	375.105
759.504	366.037
759.555	366.16
759.606	368.465
759.657	364.298
759.708	370.558
759.759	371.179
759.81	365.424
759.861	355.745
759.913	364.294
759.964	359.336
760.015	361.314
760.066	363.409
760.117	367.652
760.168	360.622
760.219	356.133
760.27	360.27
760.321	357.655
760.372	350.035
760.423	359.957
760.474	359.477
760.525	364.25
760.576	363.6
760.628	360.449
760.679	354.621
760.73	351.773
760.781	352.877
760.832	360.337
760.883	355.833
760.934	348.2
760.985	344.061
761.036	352.66
761.087	357.06
761.138	359.55
761.189	361.595
761.24	354.054
761.291	364.928
761.342	353.924
761.393	353.668
761.445	354.56
761.496	355.41
761.547	347.217
761.598	352.485
761.649	348.366
761.7	346.494
761.751	351.473
761.802	345.981
761.853	343.11
761.904	344.36
761.955	344.944
762.006	342.978
762.057	346.845
762.108	343.406
762.159	351.673
762.21	346.251
762.261	342.517
762.313	348.337
762.364	354.428
762.415	351.846
762.466	350.923
762.517	351.734
762.568	346.805
762.619	343.323
762.67	343.873
762.721	340.954
762.772	346.992
762.823	348.778
762.874	350.32
762.925	344.117
762.976	345.052
763.027	339.872
763.078	347.909
763.129	347.418
763.18	340.675
763.231	347.234
763.282	343.347
763.333	333.13
763.384	344.083
763.435	343.966
763.486	339.377
763.537	343.941
763.589	336.256
763.64	339.77
763.691	347.311
763.742	336.238
763.793	326.377
763.844	335.96
763.895	337.687
763.946	334.324
763.997	339.602
764.048	337.941
764.099	334.792
764.15	335.048
764.201	329.828
764.252	336.773
764.303	338.422
764.354	330.118
764.405	331.492
764.456	333.927
764.507	331.498
764.558	332.038
764.609	331.822
764.66	326.064
764.711	329.557
764.762	328.27
764.813	329.391
764.864	327.949
764.915	333.37
764.966	342.515
765.017	343.213
765.068	351.549
765.119	347.666
765.17	346.496
765.221	345.031
765.272	330.887
765.323	325.953
765.374	327.701
765.425	327.68
765.476	333.198
765.527	344.459
765.578	349.762
765.629	343.147
765.68	334.181
765.731	330.272
765.782	333.329
765.833	335.802
765.884	336.46
765.935	339.428
765.986	333.318
766.037	334.208
766.088	337.398
766.139	331.954
766.19	330.019
766.241	322.799
766.292	320.523
766.343	325.559
766.394	324.56
766.445	327.363
766.496	330.496
766.547	326.572
766.598	323.758
766.649	315.404
766.677	318.161
766.729	316.164
766.78	304.116
766.831	330.545
766.882	327.738
766.933	309.585
766.984	317.37
767.035	325.62
767.086	321.914
767.137	323.777
767.188	309.894
767.24	320.991
767.291	315.013
767.342	313.438
767.393	326.885
767.444	329.629
767.495	327.236
767.546	296.178
767.597	303.464
767.648	311.42
767.7	314.764
767.751	321.32
767.802	315.664
767.853	306.509
767.904	304.955
767.955	313.097
768.006	316.214
768.057	304.441
768.108	313.106
768.159	302.985
768.21	313.794
768.262	301.784
768.313	309.901
768.364	301.186
768.415	301.191
768.466	294.542
768.517	312.597
768.568	311.662
768.619	303.579
768.67	301.176
768.721	300.902
768.772	284.525
768.823	309.755
768.875	295.927
768.926	299.458
768.977	298.435
769.028	301.406
769.079	310.169
769.13	300.937
769.181	290.506
769.232	284.635
769.283	298.614
769.334	300.098
769.385	293.893
769.436	298.332
769.488	294.823
769.539	298.853
769.59	297.624
769.641	297.696
769.692	296.318
769.743	283.638
769.794	296.149
769.845	289.43
769.896	288.862
769.947	283.252
769.998	288.735
770.049	291.886
770.1	290.168
770.151	290.189
770.203	289.325
770.254	287.811
770.305	284.325
770.356	275.558
770.407	273
770.458	282.61
770.509	290.454
770.56	283.803
770.611	277.425
770.662	283.416
770.713	274.606
770.764	279.634
770.815	281.651
770.866	280.892
770.917	288.496
770.968	278.68
771.02	277.472
771.071	283.414
771.122	280.273
771.173	273.859
771.224	283.986
771.275	273.425
771.326	261.712
771.377	257.793
771.428	266.662
771.479	268.698
771.53	275.61
771.581	266.162
771.632	284.607
771.683	278.711
771.734	272.188
771.785	261.111
771.836	273.941
771.887	271.466
771.938	270.329
771.99	269.775
772.041	263.747
772.092	265.051
772.143	267.913
772.194	274.152
772.245	269.034
772.296	271.142
772.347	266.492
772.398	271.365
772.449	268.924
772.5	270.752
772.551	276.616
772.602	271.401
772.653	258.146
772.704	263.129
772.755	260.645
772.806	268.957
772.857	258.953
772.908	269.182
772.959	259.483
773.01	267.359
773.061	271.501
773.112	265.053
773.163	260.675
773.214	260.666
773.265	260.968
773.316	247.251
773.367	257.223
773.419	252.578
773.47	256.054
773.521	256.912
773.572	250.868
773.623	249.102
773.674	247.504
773.725	258.008
773.776	256.271
773.827	252.478
773.878	249.751
773.929	254.215
773.98	259.112
774.031	255.046
774.082	248.782
774.133	255.772
774.184	249.539
774.235	250.883
774.286	262.884
774.337	257.582
774.388	254.055
774.439	253.576
774.49	246.178
774.541	254.643
774.592	256.871
774.643	250.146
774.694	248.553
774.745	247.111
774.796	243.095
774.847	240.341
774.898	247.929
774.949	246.298
775	240.803
775.051	240.532
775.102	240.574
775.153	238.907
775.204	244.901
775.255	239.487
775.306	236.322
775.357	244.212
775.408	237.063
775.459	234.862
775.51	246.864
775.561	246.478
775.612	246.456
775.663	236.862
775.714	235.616
775.765	241.04
775.816	241.912
775.867	237.113
775.918	239.56
775.969	237.922
776.02	234.779
776.071	237.393
776.122	242.583
776.173	231.167
776.224	234.467
776.275	225.819
776.326	228.258
776.377	239.137
776.428	240.775
776.479	233.653
776.53	234.503
776.581	237.489
776.632	238.429
776.683	231.296
776.734	239.201
776.785	237.93
776.836	233.257
776.887	234.749
776.938	234.133
776.989	234.966
777.04	235.132
777.091	232.574
777.142	230.906
777.193	227.809
777.244	221.051
777.295	228.119
777.346	235.566
777.397	232.349
777.448	232.473
777.499	226.513
777.55	219.186
777.601	228.584
777.652	231.079
777.703	227.055
777.754	226.146
777.805	227.778
777.856	222.62
777.907	222.149
777.958	222.756
778.009	223.496
778.06	225.771
778.111	222.744
778.161	221.494
778.212	225.558
778.263	229.331
778.314	221.335
778.365	216.293
778.416	222.24
778.467	224.128
778.518	219.461
778.569	217.486
778.62	216.596
778.671	221.79
778.722	220.509
778.773	221.79
778.824	223.254
778.875	221.193
778.926	224.372
778.977	219.862
779.028	212.921
779.079	217.156
779.13	213.842
779.181	212.817
779.232	212.746
779.283	210.026
779.334	211.871
779.385	211.199
779.436	218.384
779.487	213.544
779.537	214.734
779.588	216.822
779.639	213.593
779.69	211.637
779.741	206.903
779.792	210.466
779.843	216.071
779.894	218.928
779.945	213.419
779.996	215.156
780.047	218.46
780.098	212.345
780.149	204.058
780.2	208.866
780.251	208.699
780.302	210.924
780.353	212.104
780.404	213.534
780.455	208.032
780.505	212.853
780.556	212.718
780.607	209.678
780.658	207.185
780.709	206.248
780.76	210.495
780.811	205.355
780.862	206.942
780.913	206.254
780.964	197.525
781.015	198.303
781.066	205.295
781.117	204.642
781.168	202.312
781.219	201.172
781.27	213.295
781.32	206.436
781.371	197.685
781.422	199.963
781.473	205.543
781.524	208.964
781.575	208.961
781.626	201.733
781.677	203.533
781.728	205.051
781.779	202.357
781.83	198.899
781.881	209.324
781.932	204.594
781.983	206.355
782.033	199.703
782.084	201.354
782.135	204.222
782.186	197.523
782.237	201.313
782.288	204.028
782.339	198.697
782.39	194.514
782.441	191.721
782.492	200.929
782.543	196.08
782.594	193.424
782.644	196.62
782.695	200.584
782.746	200.92
782.797	202.26
782.848	203.42
782.899	201.359
782.95	195.704
783.001	196.194
783.052	190.063
783.103	190.048
783.154	193.61
783.204	192.982
783.255	187.228
783.306	191.909
783.357	201.719
783.408	205.509
783.459	198.574
783.51	193.317
783.561	181.364
783.612	186.548
783.663	182.983
783.714	187.756
783.764	189.099
783.815	200.6
783.866	185.63
783.917	194.56
783.968	192.324
784.019	186.758
784.07	193.09
784.109	193.848
784.16	195.068
784.211	194.806
784.262	185.149
784.313	185.708
784.364	191.063
784.415	175.715
784.466	197.895
784.517	187.249
784.568	175.518
784.619	179.841
784.67	190.529
784.721	173.907
784.772	184.714
784.823	185.959
784.874	184.884
784.925	182.384
784.976	186.291
785.027	189.999
785.078	184.468
785.129	184.005
785.18	173.011
785.231	175.576
785.282	179.977
785.333	179.489
785.384	178.191
785.435	192.166
785.486	191.716
785.537	185.479
785.588	169.349
785.639	181.659
785.69	176.216
785.741	176.199
785.792	187.713
785.843	180.687
785.894	176.686
785.945	176.732
785.996	182.362
786.047	167.128
786.098	180.042
786.149	183.304
786.2	182.946
786.251	178.549
786.302	177.685
786.353	179.126
786.404	181.978
786.455	183.199
786.506	176.879
786.557	176.83
786.608	178.772
786.659	173.89
786.71	172.199
786.761	182.446
786.812	176.94
786.863	171.714
786.914	181.351
786.965	182.823
787.016	178.1
787.067	169.919
787.118	176.23
787.169	172.145
787.22	174.065
787.271	175.102
787.322	181.449
787.373	170.415
787.424	177.17
787.475	169.139
787.526	165.401
787.576	170.942
787.627	174.968
787.678	173.455
787.729	166.596
787.78	169.317
787.831	164.365
787.882	165.383
787.933	167.039
787.984	168.928
788.035	161.933
788.086	172.253
788.137	169.471
788.188	174
788.239	176.969
788.29	172.067
788.341	169.403
788.392	175.182
788.443	175.832
788.494	163.667
788.545	170.69
788.596	167.01
788.647	162.384
788.698	167.542
788.749	177.212
788.8	172.825
788.851	169.604
788.901	175.306
788.952	166.832
789.003	168.648
789.054	159.439
789.105	163.859
789.156	162.866
789.207	162.922
789.258	163.484
789.309	166.002
789.36	172.743
789.411	165.282
789.462	161.186
789.513	158.633
789.564	160.324
789.615	167.45
789.666	167.503
789.717	165.719
789.768	166.919
789.819	166.34
789.87	158.476
789.92	159.274
789.971	159.817
790.022	159.546
790.073	163.139
790.124	164.733
790.175	158.427
790.226	161.778
790.277	168.469
790.328	166.564
790.379	165.002
790.43	160.211
790.481	161.862
790.532	158.701
790.583	150.871
790.634	161.322
790.685	158.86
790.735	156.201
790.786	167.727
790.837	159.926
790.888	158.058
790.939	162.068
790.99	159.58
791.041	161.234
791.092	160.526
791.143	162.603
791.194	162.727
791.245	159.456
791.296	153.509
791.347	157.717
791.397	162.522
791.448	160.176
791.499	161.27
791.55	158.433
791.601	152.505
791.652	154.977
791.703	153.046
791.754	149.402
791.805	159.226
791.856	158.913
791.907	156.269
791.958	161.081
792.008	162.46
792.059	154.761
792.11	148.278
792.161	150.351
792.212	154.447
792.263	153.22
792.314	157.951
792.365	151.908
792.416	159.311
792.467	152.033
792.518	154.722
792.569	155.964
792.619	156.734
792.67	154.837
792.721	155.72
792.772	154.424
792.823	156.299
792.874	157.176
792.925	155.259
792.976	153.804
793.027	151.791
793.078	149.739
793.128	149.792
793.179	151.376
793.23	152.238
793.281	152.854
793.332	145.117
793.383	156.334
793.434	156.452
793.485	148.907
793.536	148.451
793.587	152.111
793.638	149.331
793.688	149.504
793.739	149.16
793.79	150.649
793.841	156.939
793.892	144.791
793.943	145.13
793.994	149.653
794.045	147.63
794.096	148.622
794.146	149.944
794.197	147.676
794.248	151.839
794.299	153.294
794.35	147.831
794.401	146.724
794.452	151.067
794.503	145.619
794.554	145.13
794.604	149.271
794.655	146.554
794.706	146.504
794.757	150.381
794.808	153.217
794.859	145.324
794.91	141.902
794.961	150.577
795.011	145.136
795.062	138.179
795.113	141.403
795.164	146.673
795.215	147.535
795.266	146.538
795.317	146.688
795.368	147.568
795.418	148.898
795.469	149.703
795.52	147.494
795.571	145.972
795.622	146.343
795.673	148.776
795.724	141.734
795.775	142.742
795.825	147.53
795.876	141.878
795.927	142.596
795.978	143.667
796.029	142.991
796.08	144.227
796.131	141.686
796.181	143.291
796.232	144.005
796.283	145.824
796.334	144.021
796.385	143.718
796.436	136.54
796.487	137.627
796.537	139.512
796.588	139.038
796.639	143.554
796.69	144.214
796.741	145.702
796.792	141.799
796.843	141.167
796.893	146.604
796.944	141.371
796.995	140.799
797.046	135.476
797.097	143.224
797.148	143.023
797.199	145.104
797.249	137.46
797.3	143.937
797.351	141.193
797.402	142.187
797.453	141.01
797.504	138.891
797.555	136.837
797.605	136.725
797.656	132.358
797.707	143.945
797.758	136.68
797.809	132.26
797.86	135.696
797.91	135.728
797.961	136.13
798.012	140.73
798.063	138.765
798.114	135.676
798.165	134.531
798.216	138.958
798.266	143.406
798.317	135.187
798.368	133.931
798.419	137.417
798.47	135.44
798.521	129.035
798.571	135.263
798.622	139.343
798.673	137.122
798.724	140.676
798.775	138.268
798.826	140.076
798.876	137.855
798.927	135.87
798.978	129.833
799.029	134.527
799.08	136.818
799.13	131.956
799.181	134.288
799.232	135.42
799.283	134.122
799.334	127.912
799.385	131.394
799.435	132.459
799.486	132.383
799.537	133.542
799.588	134.423
799.639	131.883
799.69	127.887
799.74	130.259
799.791	132.638
799.842	131.136
799.893	128.835
799.944	135.704
799.994	136.23
800.045	133.935
800.096	130.347
800.147	122.105
800.198	127.042
800.248	129.496
800.299	128.561
800.35	123.147
800.401	129.124
800.452	125.298
800.503	128.708
800.553	130.28
800.604	129.378
800.655	130.27
800.706	132.513
800.757	127.195
800.807	132.97
800.858	131.563
800.909	123.937
800.96	123.466
801.011	132.504
801.061	125.135
801.112	123.725
801.163	123.618
801.214	122.938
801.265	117.803
801.315	115.056
801.366	125.466
801.417	119.539
801.457	119.505
801.508	119.754
801.558	121.035
801.609	123.222
801.66	121.471
801.711	118.069
801.762	122.732
801.813	119.167
801.864	119.344
801.915	124.895
801.966	123.744
802.017	122.857
802.068	123.977
802.118	115.759
802.169	130.964
802.22	126.791
802.271	121.553
802.322	117.847
802.373	118.671
802.424	119.516
802.475	119.137
802.526	117.238
802.577	119.343
802.627	117.835
802.678	110.217
802.729	115.564
802.78	116.471
802.831	125.629
802.882	117.596
802.933	114.766
802.984	120.428
803.035	120.846
803.086	110.619
803.136	113.254
803.187	121.985
803.238	117.955
803.289	112.218
803.34	114.697
803.391	113.898
803.442	114.768
803.493	109.903
803.544	113.743
803.594	115.679
803.645	115.642
803.696	106.18
803.747	112.885
803.798	119.534
803.849	114.763
803.9	117.085
803.951	112.893
804.002	110.771
804.052	110.349
804.103	118.029
804.154	110.109
804.205	115.017
804.256	116.029
804.307	118.099
804.358	115.736
804.409	117.805
804.459	115.571
804.51	114.423
804.561	110.216
804.612	113.755
804.663	119.823
804.714	114.508
804.765	111.926
804.816	117.381
804.866	110.236
804.917	118.109
804.968	105.263
805.019	112.683
805.07	114.364
805.121	115.688
805.172	112.449
805.223	111.399
805.273	107.93
805.324	112.193
805.375	105.353
805.426	115.841
805.477	112.231
805.528	110.632
805.579	114.626
805.629	110.779
805.68	110.516
805.731	114.12
805.782	123.523
805.833	116.111
805.884	109.64
805.935	112.463
805.985	110.394
806.036	105.358
806.087	113.144
806.138	111.792
806.189	106.227
806.24	112.162
806.291	110.265
806.341	111.698
806.392	111.246
806.443	111.959
806.494	115.11
806.545	109.444
806.596	113.036
806.647	101.628
806.697	111.319
806.748	111.595
806.799	108.047
806.85	107.591
806.901	116.516
806.952	110.389
807.003	104.179
807.053	109.233
807.104	110.753
807.155	111.582
807.206	113.246
807.257	112.233
807.308	100.49
807.358	106.583
807.409	106.382
807.46	113.459
807.511	108.109
807.562	101.461
807.613	110.486
807.663	103.46
807.714	98.9083
807.765	106.645
807.816	105.851
807.867	102.965
807.918	98.9505
807.969	106.614
808.019	105.013
808.07	110.794
808.121	103.37
808.172	100.235
808.223	100.706
808.273	108.298
808.324	106.429
808.375	111.959
808.426	108.797
808.477	108.733
808.528	107.22
808.578	102.476
808.629	102.294
808.68	99.789
808.731	104.549
808.782	111.945
808.833	107.743
808.883	103.072
808.934	104.879
808.985	105.108
809.036	97.1455
809.087	99.3613
809.138	103.524
809.188	114.614
809.239	110.802
809.29	105.977
809.341	94.3264
809.392	102.348
809.442	101.165
809.493	102.884
809.544	110.526
809.595	110.894
809.646	98.99
809.696	102.033
809.747	102.06
809.798	106.248
809.849	108.489
809.9	103.68
809.951	99.2462
810.001	106.435
810.052	103.615
810.103	104.749
810.154	98.9052
810.205	100.933
810.255	104.358
810.306	109.702
810.357	101.588
810.408	107.56
810.459	100.37
810.509	97.5797
810.56	103.703
810.611	100.839
810.662	105.21
810.713	106.848
810.763	102.774
810.814	103.52
810.865	99.031
810.916	100.33
810.967	98.9629
811.017	105.44
811.068	102.079
811.119	95.7835
811.17	104.298
811.221	108.52
811.271	95.8697
811.322	96.3765
811.373	99.4356
811.424	101.315
811.474	102.316
811.525	104.82
811.576	97.979
811.627	98.6545
811.678	96.3174
811.728	100.805
811.779	104.88
811.83	105.449
811.881	96.8654
811.932	93.2327
811.982	99.1389
812.033	101.417
812.084	100.509
812.135	97.7567
812.185	98.1874
812.236	101.59
812.287	104.859
812.338	101.156
812.389	96.9482
812.439	100.545
812.49	95.4611
812.541	90.2356
812.592	97.2958
812.642	98.4973
812.693	100.62
812.744	96.1868
812.795	100.824
812.846	95.8978
812.896	95.061
812.947	99.5781
812.998	97.5581
813.049	97.8809
813.099	99.9241
813.15	99.3432
813.201	100.682
813.252	94.0144
813.302	96.3585
813.353	91.3096
813.404	96.3402
813.455	95.7354
813.506	97.7998
813.556	93.2125
813.607	97.3278
813.658	97.2993
813.709	95.277
813.759	99.7897
813.81	97.2915
813.861	96.9989
813.912	95.412
813.962	95.1848
814.013	99.3086
814.064	97.0254
814.115	94.7795
814.165	99.1785
814.216	93.584
814.267	94.6301
814.318	94.0749
814.368	92.7536
814.419	94.539
814.47	93.9967
814.521	90.3921
814.571	93.3471
814.622	88.8746
814.673	91.0119
814.724	96.4336
814.774	97.5445
814.825	92.8195
814.876	93.751
814.927	94.3304
814.977	94.1427
815.028	92.6954
815.079	94.9964
815.13	97.5354
815.18	96.7066
815.231	92.3608
815.282	93.6941
815.333	96.873
815.383	91.108
815.434	88.6853
815.485	95.7851
815.536	91.8306
815.586	93.3066
815.637	91.4302
815.688	92.9421
815.739	95.826
815.789	94.1971
815.84	95.7465
815.891	94.6566
815.941	90.5963
815.992	93.1466
816.043	84.8329
816.094	90.0145
816.144	95.6396
816.195	94.0554
816.246	93.945
816.297	93.17
816.347	90.0951
816.398	90.0636
816.449	87.7098
816.499	91.9538
816.55	93.5361
816.601	90.9933
816.652	91.8919
816.702	90.3446
816.753	88.3851
816.804	88.6939
816.855	88.624
816.905	87.2547
816.956	88.5574
817.007	89.5358
817.057	91.1927
817.108	90.428
817.159	85.8525
817.21	87.7655
817.26	88.8602
817.311	90.7349
817.362	89.3453
817.412	91.0229
817.463	87.0573
817.514	83.1886
817.565	87.6858
817.615	94.6076
817.666	87.7928
817.717	87.1975
817.767	85.6515
817.818	86.2315
817.869	84.8781
817.919	82.6146
817.97	82.8109
818.021	87.3213
818.072	81.4264
818.122	82.5315
818.173	85.0605
818.224	84.4951
818.274	83.3584
818.325	85.7642
818.376	84.0636
818.427	85.6509
818.477	80.8674
818.528	86.9805
818.579	86.2333
818.629	82.042
818.68	84.8326
818.731	86.2017
818.781	88.6929
818.806	94.1295
818.857	81.5196
818.908	82.0924
818.959	76.8838
819.01	83.7306
819.06	81.29
819.111	86.4755
819.162	80.4182
819.213	83.877
819.264	79.1541
819.315	82.816
819.365	78.4786
819.416	82.182
819.467	83.2368
819.518	84.6748
819.569	88.1747
819.619	87.4432
819.67	81.467
819.721	80.418
819.772	79.9702
819.823	84.0771
819.873	72.1446
819.924	85.3606
819.975	82.5499
820.026	84.2248
820.077	78.6059
820.127	81.4483
820.178	76.758
820.229	85.9917
820.28	81.6405
820.331	80.905
820.381	71.0468
820.432	74.1293
820.483	74.7234
820.534	81.8971
820.585	84.4823
820.635	84.3007
820.686	77.7903
820.737	80.2645
820.788	76.7808
820.839	79.232
820.889	81.5564
820.94	83.7352
820.991	84.1578
821.042	74.5091
821.092	79.4358
821.143	80.8838
821.194	78
821.245	76.5093
821.296	74.6765
821.346	81.6649
821.397	79.7154
821.448	78.7666
821.499	71.6649
821.549	75.5383
821.6	75.8005
821.651	78.9287
821.702	80.885
821.753	78.3229
821.803	75.1085
821.854	77.7777
821.905	75.8917
821.956	76.2916
822.006	77.6588
822.057	78.6364
822.108	76.7523
822.159	79.8297
822.21	84.401
822.26	76.2213
822.311	75.328
822.362	74.6247
822.413	76.7751
822.463	69.6644
822.514	73.7008
822.565	79.3855
822.616	77.8255
822.667	78.7541
822.717	78.6388
822.768	75.0198
822.819	79.5405
822.87	80.3389
822.92	77.3668
822.971	68.8139
823.022	77.3316
823.073	76.5716
823.123	79.208
823.174	79.6393
823.225	75.3502
823.276	69.7227
823.326	78.4478
823.377	77.5951
823.428	75.9573
823.479	69.8251
823.529	73.7411
823.58	74.9992
823.631	78.512
823.682	75.6621
823.732	73.872
823.783	78.1899
823.834	76.0943
823.885	78.6246
823.935	80.2376
823.986	73.8203
824.037	74.1091
824.088	73.6783
824.138	76.7556
824.189	78.2693
824.24	69.7509
824.291	69.8469
824.341	75.3033
824.392	75.5086
824.443	73.1551
824.494	74.2607
824.544	73.3655
824.595	74.0864
824.646	73.4305
824.697	72.0701
824.747	73.6331
824.798	73.7107
824.849	75.0646
824.9	72.4372
824.95	71.3791
825.001	77.764
825.052	73.8754
825.103	73.8713
825.153	78.5044
825.204	77.4584
825.255	78.3676
825.305	70.3607
825.356	68.4529
825.407	71.792
825.458	69.9925
825.508	69.1246
825.559	73.0932
825.61	74.6678
825.661	72.2645
825.711	73.9365
825.762	74.6152
825.813	72.0949
825.864	73.4372
825.914	74.167
825.965	77.3078
826.016	79.6187
826.066	77.3994
826.117	68.451
826.168	68.3121
826.219	72.7898
826.269	73.6138
826.32	72.871
826.371	74.0178
826.421	69.838
826.472	70.3139
826.523	72.975
826.574	74.5157
826.624	71.3068
826.675	75.7696
826.726	78.4707
826.776	74.47
826.827	75.0149
826.878	73.397
826.929	68.4611
826.979	72
827.03	71.2942
827.081	72.0689
827.131	70.6818
827.182	73.5816
827.233	71.8212
827.284	71.6844
827.334	71.0316
827.385	75.1179
827.436	75.5531
827.486	71.468
827.537	71.2189
827.588	71.3089
827.638	70.3943
827.689	69.8775
827.74	67.5685
827.791	70.9985
827.841	73.3581
827.892	68.6172
827.943	69.0801
827.993	71.9805
828.044	72.5623
828.095	67.6078
828.146	66.1925
828.196	73.3616
828.247	72.8858
828.298	68.9826
828.348	69.044
828.399	73.4271
828.45	74.9408
828.5	73.1142
828.551	66.843
828.602	62.8058
828.652	73.5924
828.703	66.0967
828.754	66.2581
828.805	73.531
828.855	69.4787
828.906	65.0684
828.957	67.2111
829.007	71.9806
829.058	69.1729
829.109	59.9592
829.159	63.373
829.21	66.9378
829.261	68.0984
829.311	68.1881
829.362	69.4939
829.413	67.0359
829.463	70.0609
829.514	66.7934
829.565	66.9937
829.615	68.9939
829.666	72.4121
829.717	67.3557
829.767	66.5325
829.818	68.2446
829.869	67.7799
829.919	66.9234
829.97	65.8494
830.021	66.2837
830.071	69.27
830.122	67.8024
830.173	69.6208
830.224	61.8138
830.274	62.0906
830.325	70.5847
830.376	65.6685
830.426	59.8269
830.477	64.0179
830.528	67.7045
830.578	68.8352
830.629	69.3593
830.68	73.2478
830.73	66.5614
830.781	67.5281
830.831	71.7127
830.882	66.8265
830.933	67.2723
830.983	71.2696
831.034	65.7931
831.085	70.1093
831.135	61.1923
831.186	65.0499
831.237	67.4944
831.287	65.2493
831.338	65.217
831.389	68.2552
831.439	61.5589
831.49	65.5654
831.541	65.0452
831.591	67.8219
831.642	69.432
831.693	65.7467
831.743	61.308
831.794	69.3494
831.845	62.7196
831.895	62.3823
831.946	64.8894
831.997	60.0956
832.047	62.3162
832.098	64.2976
832.148	60.8837
832.199	63.0639
832.25	62.5541
832.3	61.7821
832.351	63.6124
832.402	66.7189
832.452	71.1202
832.503	70.7933
832.554	64.4962
832.604	62.1342
832.655	62.5232
832.706	66.0766
832.756	59.5893
832.807	68.6665
832.857	69.7137
832.908	62.8198
832.959	64.6917
833.009	65.8675
833.06	60.7398
833.111	62.7438
833.161	69.8621
833.212	58.3147
833.263	71.4023
833.313	62.9141
833.364	60.6082
833.414	64.8028
833.465	60.3019
833.516	67.9358
833.566	63.8937
833.617	64.338
833.668	68.392
833.718	55.7759
833.769	68.6153
833.819	61.3304
833.87	64.0559
833.921	63.6923
833.971	67.1194
834.022	65.8325
834.073	64.5859
834.123	62.7321
834.174	63.5379
834.224	64.6252
834.275	59.8068
834.326	57.4868
834.376	66.6199
834.427	55.6586
834.477	64.6254
834.528	67.1321
834.579	64.4618
834.629	66.1149
834.68	63.3032
834.73	62.7135
834.781	63.9372
834.832	63.9201
834.882	63.8689
834.933	62.2907
834.984	62.8669
835.034	63.7479
835.085	56.5855
835.135	65.7389
835.186	67.1507
835.237	60.7317
835.287	60.5456
835.338	62.6118
835.388	58.0902
835.439	66.7971
835.49	64.819
835.54	66.495
835.591	62.0139
835.641	68.0551
835.692	65.8045
835.743	64.7103
835.793	62.0279
835.844	60.1594
835.894	58.0518
835.945	57.9574
835.996	66.7234
836.046	60.2376
836.097	60.1345
836.099	60.0812
836.15	67.7589
836.201	56.0679
836.251	66.0114
836.302	60.0054
836.353	63.0863
836.404	69.7986
836.454	60.923
836.505	53.2234
836.556	63.0239
836.606	60.9386
836.657	64.9534
836.708	59.1922
836.758	62.8076
836.809	52.9554
836.86	58.9585
836.911	57.1198
836.961	64.8998
837.012	60.8276
837.063	61.9
837.113	56.0746
837.164	59.1084
837.215	57.7895
837.265	65.5915
837.316	52.745
837.367	66.6673
837.418	58.462
837.468	59.3452
837.519	59.3051
837.57	61.2343
837.62	66.793
837.671	64.2274
837.722	56.6002
837.772	59.7512
837.823	59.4539
837.874	59.4473
837.924	57.5193
837.975	61.0412
838.026	65.6982
838.077	58.5535
838.127	56.2207
838.178	65.3524
838.229	56.6446
838.279	59.548
838.33	60.4666
838.381	59.495
838.431	58.3538
838.482	56.4661
838.533	61.3332
838.583	56.1776
838.634	59.4874
838.685	59.1147
838.735	55.8595
838.786	56.3238
838.837	58.7881
838.888	61.6306
838.938	61.8544
838.989	59.9477
839.04	60.2064
839.09	56.2717
839.141	57.3699
839.192	59.3578
839.242	55.264
839.293	59.6413
839.344	56.4363
839.394	64.13
839.445	59.2355
839.496	57.3814
839.546	61.2748
839.597	60.5256
839.648	59.7995
839.698	60.2821
839.749	58.2328
839.8	62.8348
839.85	63.7213
839.901	57.5412
839.952	63.7349
840.002	56.2275
840.053	60.622
840.104	58.3002
840.154	60.9533
840.205	61.2888
840.256	61.044
840.306	55.9688
840.357	59.3345
840.408	57.3745
840.458	53.2579
840.509	57.2513
840.56	58.3232
840.61	56.024
840.661	58.3585
840.711	59.4858
840.762	64.1425
840.813	56.1694
840.863	56.2135
840.914	54.684
840.965	60.0094
841.015	57.5168
841.066	54.8638
841.117	54.7125
841.167	60.4395
841.218	58.8679
841.269	59.3316
841.319	53.6629
841.37	56.8389
841.421	59.9246
841.471	55.0969
841.522	59.0402
841.573	59.1203
841.623	54.7856
841.674	55.3533
841.724	51.01
841.775	55.5539
841.826	57.1419
841.876	56.2011
841.927	57.3329
841.978	59.0573
842.028	52.219
842.079	55.1571
842.13	55.6801
842.18	57.3294
842.231	60.3253
842.281	57.0151
842.332	57.8451
842.383	59.6853
842.433	55.523
842.484	59.0242
842.535	55.6657
842.585	56.7588
842.636	57.279
842.687	50.8026
842.737	52.9279
842.788	60.5103
842.838	59.1609
842.889	59.8888
842.94	58.6321
842.99	56.6034
843.041	53.4886
843.092	53.8277
843.142	56.5247
843.193	56.5825
843.243	56.4171
843.294	54.8996
843.345	57.4611
843.395	56.0113
843.446	58.907
843.497	54.991
843.547	55.265
843.598	54.2005
843.648	55.6295
843.699	51.7354
843.75	55.5394
843.8	51.9593
843.851	52.233
843.901	53.7111
843.952	56.7305
844.003	56.23
844.053	52.6007
844.104	54.4088
844.155	58.9382
844.205	55.9624
844.256	57.8856
844.306	54.8632
844.357	55.2329
844.408	52.8184
844.458	53.0144
844.509	56.8034
844.559	60.4883
844.61	55.6347
844.661	56.47
844.711	52.8069
844.762	54.3876
844.812	56.3778
844.863	55.0464
844.914	56.0452
844.964	57.0578
845.015	54.3112
845.065	57.1768
845.116	59.7699
845.167	55.8297
845.217	53.2731
845.268	49.3264
845.318	48.5248
845.369	55.0897
845.42	51.6324
845.47	52.0326
845.521	55.2686
845.571	58.4924
845.622	55.6499
845.673	49.8143
845.723	52.6756
845.774	59.3359
845.824	54.3647
845.875	56.6571
845.926	55.0392
845.976	54.9328
846.027	56.5443
846.077	53.9808
846.128	55.388
846.178	56.2643
846.229	55.9572
846.28	55.7499
846.33	57.5471
846.381	55.2243
846.431	52.5003
846.482	59.353
846.533	55.5992
846.583	53.4059
846.634	53.1696
846.684	51.9108
846.735	55.0734
846.785	57.8137
846.836	49.7739
846.887	49.1521
846.937	54.8586
846.988	52.4817
847.038	52.4032
847.089	52.2598
847.139	57.5974
847.19	58.4656
847.241	54.6104
847.291	53.6974
847.342	56.5972
847.392	55.4074
847.443	54.3141
847.493	51.2646
847.544	54.606
847.595	53.4399
847.645	57.5247
847.696	56.3369
847.746	59.1577
847.797	58.2113
847.847	55.8145
847.898	53.5886
847.948	53.1796
847.999	53.5876
848.05	49.8614
848.1	53.2856
848.151	52.9191
848.201	52.2797
848.252	54.8465
848.302	51.8404
848.353	52.6266
848.404	55.3013
848.454	53.4565
848.505	48.4736
848.555	56.0473
848.606	56.1806
848.656	56.6277
848.707	54.5549
848.757	57.1885
848.808	54.4882
848.859	52.8799
848.909	48.3422
848.96	56.0978
849.01	52.9589
849.061	52.1039
849.111	51.0898
849.162	53.6106
849.212	51.432
849.263	49.0641
849.313	47.3002
849.364	57.3788
849.414	51.3748
849.465	53.0402
849.516	54.628
849.566	55.0426
849.617	50.0224
849.667	51.0643
849.718	50.2475
849.768	58.7934
849.819	51.5398
849.869	53.4272
849.92	54.1859
849.97	55.0372
850.021	49.9081
850.071	50.9523
850.122	51.8856
850.173	56.0345
850.223	53.2876
850.274	52.852
850.324	42.7876
850.375	53.3366
850.425	51.4803
850.476	54.9973
850.526	48.8636
850.577	52.2501
850.627	47.4063
850.678	52.8406
850.728	51.6825
850.779	51.2487
850.829	49.5442
850.88	48.8372
850.93	51.4272
850.981	53.7611
851.031	51.7767
851.082	52.3596
851.133	53.5719
851.183	51.3119
851.234	47.9987
851.284	53.107
851.335	50.3827
851.385	48.6206
851.436	48.9252
851.486	48.6691
851.537	53.7768
851.587	46.9027
851.638	50.5788
851.688	53.7768
851.739	52.4895
851.789	54.8389
851.84	49.9648
851.89	49.0491
851.941	50.6447
851.991	51.1011
852.042	47.9419
852.092	49.9142
852.143	49.9226
852.193	50.422
852.244	47.7085
852.294	52.2277
852.345	53.0304
852.395	46.91
852.446	48.9689
852.496	48.1302
852.547	50.5368
852.597	50.9538
852.648	46.3948
852.698	47.8118
852.749	51.8918
852.799	49.05
852.85	49.7556
852.9	51.4008
852.951	55.0023
853.001	47.107
853.052	47.8749
853.102	47.6526
853.153	48.6914
853.203	49.0987
853.254	48.9326
853.304	44.6324
853.355	51.0432
853.405	51.0597
853.443	47.5795
853.493	50.4252
853.544	49.1592
853.594	44.4269
853.645	45.2807
853.696	51.2889
853.746	49.0309
853.797	46.4672
853.847	50.7105
853.898	49.3811
853.949	54.4239
853.999	46.2611
854.05	53.5859
854.1	59.4992
854.151	53.2079
854.202	45.5031
854.252	51.9613
854.303	49.2992
854.353	51.2466
854.404	52.3742
854.455	47.697
854.505	44.4515
854.556	47.7953
854.606	50.8944
854.657	48.9677
854.708	55.628
854.758	49.0767
854.809	48.2171
854.859	49.2748
854.91	47.7557
854.961	51.5709
855.011	49.4741
855.062	47.587
855.112	47.0299
855.163	50.2442
855.214	43.8121
855.264	44.7186
855.315	53.5006
855.365	47.7787
855.416	45.2118
855.466	44.7255
855.517	47.177
855.568	51.854
855.618	44.3106
855.669	44.6149
855.719	47.4388
855.77	46.9052
855.821	48.2021
855.871	51.409
855.922	52.7514
855.972	50.8509
856.023	45.2686
856.073	46.3442
856.124	45.2028
856.175	47.2839
856.225	46.2575
856.276	51.4906
856.326	49.6397
856.377	51.64
856.427	44.9069
856.478	49.017
856.529	47.9221
856.579	52.5769
856.63	49.2069
856.68	49.7417
856.731	45.6996
856.781	51.957
856.832	46.5083
856.883	48.5496
856.933	47.2767
856.984	50.9978
857.034	46.7918
857.085	49.4685
857.135	48.6479
857.186	51.8085
857.237	49.4555
857.287	48.2525
857.338	46.6684
857.388	49.0588
857.439	49.246
857.489	48.809
857.54	45.8538
857.59	47.1525
857.641	43.3229
857.692	47.6809
857.742	52.0362
857.793	49.1368
857.843	45.5747
857.894	52.4911
857.944	53.5101
857.995	51.0486
858.045	45.4084
858.096	48.1241
858.147	47.7818
858.197	49.6851
858.248	47.0456
858.298	45.7084
858.349	41.8743
858.399	46.5658
858.45	49.5799
858.5	43.7147
858.551	47.5326
858.601	46.8837
858.652	45.4094
858.703	47.271
858.753	48.6451
858.804	47.0367
858.854	42.4414
858.905	45.6304
858.955	49.7554
859.006	46.8183
859.056	49.1716
859.107	41.4754
859.157	40.2391
859.208	43.1226
859.258	43.9218
859.309	46.002
859.36	45.7944
859.41	47.9077
859.461	48.8639
859.511	44.3673
859.562	45.8585
859.612	45.7299
859.663	50.0324
859.713	44.511
859.764	43.0038
859.814	44.973
859.865	47.3832
859.915	49.3966
859.966	43.989
860.016	38.9705
860.067	47.8619
860.117	41.5169
860.168	45.5643
860.219	46.4553
860.269	46.6614
860.32	43.969
860.37	44.1098
860.421	43.9312
860.471	47.9258
860.522	40.7098
860.572	52.5416
860.623	49.9543
860.673	48.6686
860.724	45.1442
860.774	44.981
860.825	46.159
860.875	41.9421
860.926	46.057
860.976	48.4482
861.027	35.6899
861.077	45.3922
861.128	44.1386
861.178	42.1324
861.229	45.1122
861.279	48.4617
861.33	48.0159
861.38	44.2155
861.431	43.4517
861.481	43.846
861.532	44.2132
861.582	45.3887
861.633	43.9838
861.683	48.6065
861.734	41.8462
861.784	47.3455
861.835	47.8958
861.885	44.7712
861.936	44.8583
861.986	47.5676
862.037	47.2878
862.087	48.8375
862.138	45.649
862.188	46.5432
862.239	46.1091
862.289	46.3299
862.34	48.4011
862.39	41.0358
862.441	38.0805
862.491	52.5003
862.542	45.2293
862.592	44.3709
862.643	41.5476
862.693	52.7557
862.744	48.3231
862.794	44.9071
862.845	46.6018
862.895	50.6779
862.946	42.0441
862.996	47.9486
863.047	43.7294
863.097	41.7312
863.148	41.5429
863.198	43.0094
863.249	43.0167
863.299	47.2395
863.35	41.8116
863.4	46.4511
863.451	44.2155
863.501	47.9935
863.552	42.0284
863.602	39.7516
863.653	43.3911
863.703	48.1012
863.754	43.3614
863.804	46.1632
863.854	48.1763
863.905	46.6583
863.955	47.8832
864.006	41.8017
864.056	49.1291
864.107	47.967
864.157	47.9944
864.208	43.4698
864.258	44.5445
864.309	42.0326
864.359	44.0864
864.41	47.2088
864.46	41.7893
864.511	38.8606
864.561	40.4932
864.612	45.218
864.662	46.4763
864.712	44.5461
864.763	46.2231
864.813	39.3248
864.864	45.7316
864.914	42.9035
864.965	48.6215
865.015	44.8163
865.066	47.6767
865.116	43.7596
865.167	46.4266
865.217	44.4316
865.268	44.6728
865.318	41.7242
865.368	45.0669
865.419	42.3106
865.469	50.2077
865.52	43.827
865.57	43.6478
865.621	41.9527
865.671	47.1029
865.722	40.8254
865.772	41.1781
865.823	42.0745
865.873	44.7397
865.923	44.2924
865.974	43.5448
866.024	37.4967
866.075	43.4357
866.125	46.1769
866.176	48.4886
866.226	41.8894
866.276	45.3837
866.327	42.2535
866.377	41.3723
866.428	39.929
866.478	46.1933
866.529	42.1338
866.579	43.8486
866.63	39.2755
866.68	45.4365
866.73	39.4049
866.781	43.7621
866.831	40.9059
866.882	45.2151
866.932	40.2362
866.983	40.0408
867.033	44.5306
867.083	46.6955
867.134	41.2429
867.184	45.1952
867.235	39.852
867.285	44.267
867.336	41.3169
867.386	46.2167
867.436	42.8483
867.487	42.7988
867.537	44.6345
867.588	45.2069
867.638	44.5744
867.689	42.1001
867.739	44.0531
867.789	41.7639
867.84	41.8175
867.89	40.9536
867.941	40.7448
867.991	46.3385
868.042	43.4695
868.092	45.5933
868.142	46.6062
868.193	48.6022
868.243	40.5341
868.294	43.1808
868.344	40.4493
868.394	42.3526
868.445	40.9955
868.495	36.7436
868.546	40.5823
868.596	44.1906
868.647	46.387
868.697	42.9987
868.747	40.7401
868.798	40.9883
868.848	44.5806
868.899	45.1266
868.949	44.9369
868.999	44.171
869.05	43.7371
869.1	44.9033
869.151	46.3168
869.201	43.1212
869.251	44.7438
869.302	41.8169
869.352	38.7078
869.403	42.3684
869.453	45.4144
869.503	41.967
869.554	41.2608
869.604	46.4699
869.655	45.3333
869.705	36.7465
869.755	46.5174
869.806	46.7693
869.856	46.3544
869.907	41.5439
869.957	43.1462
870.007	43.9676
870.058	44.4061
870.108	37.1573
870.159	46.005
870.209	40.0479
870.259	43.566
870.31	40.34
870.36	46.3408
870.41	45.2612
870.461	46.6575
870.511	44.0841
870.562	41.6218
870.612	41.6838
870.662	46.5332
870.713	42.1096
870.731	41.3565
870.782	40.6504
870.832	41.4511
870.883	40.581
870.933	36.7993
870.984	45.2904
871.034	40.0426
871.085	44.5212
871.135	43.2527
871.186	47.4084
871.236	40.704
871.287	43.6262
871.337	41.8338
871.388	42.2191
871.438	39.9387
871.489	44.5333
871.539	43.1882
871.59	45.7138
871.64	43.9991
871.691	39.2239
871.741	36.9047
871.792	42.1235
871.842	45.1858
871.893	42.482
871.943	37.2695
871.994	41.3356
872.044	40.5031
872.095	39.1978
872.145	38.9649
872.196	44.6573
872.246	42.5761
872.297	37.9556
872.347	43.6637
872.397	45.759
872.448	42.0331
872.498	38.9429
872.549	39.1797
872.599	41.5137
872.65	43.0811
872.7	40.964
872.751	40.5023
872.801	41.25
872.852	44.5897
872.902	39.8811
872.953	43.3767
873.003	38.9079
873.054	47.4385
873.104	36.6084
873.155	46.2534
873.205	40.11
873.256	41.8349
873.306	41.8188
873.357	37.0359
873.407	39.6172
873.458	43.1816
873.508	38.0865
873.558	42.2887
873.609	43.9903
873.659	37.7845
873.71	37.0522
873.76	44.7498
873.811	41.9488
873.861	45.9895
873.912	35.989
873.962	39.8635
874.013	41.948
874.063	43.2386
874.114	41.4548
874.164	43.8213
874.215	40.1545
874.265	36.0506
874.315	38.1717
874.366	43.1061
874.416	38.6423
874.467	40.8563
874.517	40.4389
874.568	45.8518
874.618	39.1111
874.669	38.7661
874.719	36.5066
874.77	41.8521
874.82	38.5169
874.87	39.7671
874.921	35.582
874.971	39.3249
875.022	42.132
875.072	41.6305
875.123	42.1208
875.173	38.882
875.224	39.6291
875.274	41.1466
875.324	37.2559
875.375	42.9808
875.425	46.4742
875.476	41.6597
875.526	38.5565
875.577	39.782
875.627	46.7918
875.678	36.9486
875.728	39.9413
875.779	46.5011
875.829	42.2708
875.879	40.0434
875.93	36.4701
875.98	39.6771
876.031	40.5245
876.081	36.2313
876.132	38.8005
876.182	43.1632
876.232	40.4862
876.283	39.1437
876.333	35.0735
876.384	40.9108
876.434	42.3304
876.485	39.4855
876.535	40.0013
876.585	38.0722
876.636	42.6058
876.686	33.7285
876.737	42.4285
876.787	41.5648
876.838	41.0438
876.888	41.7337
876.938	42.2147
876.989	40.7864
877.039	40.8479
877.09	38.8874
877.14	42.3743
877.191	41.012
877.241	43.7024
877.291	38.0924
877.342	38.8679
877.392	39.8937
877.443	39.2376
877.493	35.6
877.544	39.1416
877.594	40.7196
877.644	44.3325
877.695	41.5167
877.745	42.1097
877.796	38.1422
877.846	41.0952
877.896	34.6632
877.947	40.7387
877.997	43.9856
878.048	42.0667
878.098	38.1477
878.148	38.4234
878.199	41.2772
878.249	39.9351
878.3	37.3255
878.35	39.5134
878.4	40.5535
878.451	45.0189
878.501	37.8101
878.552	42.4888
878.602	43.9497
878.653	39.2201
878.703	34.04
878.753	43.0016
878.804	42.1231
878.854	42.066
878.904	37.3797
878.955	41.3777
879.005	40.6238
879.056	41.5299
879.106	39.9146
879.156	44.1804
879.207	42.6332
879.257	42.9259
879.308	32.2772
879.358	41.527
879.408	42.1493
879.459	37.6328
879.509	35.8708
879.56	41.9402
879.61	36.7649
879.66	43.8623
879.711	37.7601
879.761	40.1799
879.812	42.4447
879.862	41.3578
879.912	31.2018
879.963	39.9271
880.013	45.2248
880.063	38.9856
880.114	35.3851
880.164	37.526
880.215	38.5037
880.265	37.817
880.315	34.9147
880.366	42.4426
880.416	38.3795
880.467	38.2135
880.517	32.7442
880.567	40.9196
880.618	41.6121
880.668	37.367
880.718	37.9988
880.769	37.3177
880.819	36.896
880.87	34.5457
880.92	36.6682
880.97	37.7536
881.021	37.9126
881.071	37.164
881.121	33.9945
881.172	39.0649
881.222	41.1194
881.273	37.2899
881.323	36.8414
881.373	41.0208
881.424	40.5101
881.474	41.6146
881.524	40.8463
881.575	38.1879
881.625	41.2441
881.675	32.744
881.726	36.0723
881.776	38.6661
881.826	39.8633
881.877	35.9304
881.927	36.4909
881.978	40.3224
882.028	41.6939
882.078	36.7647
882.129	36.5056
882.179	37.2611
882.229	37.4131
882.28	34.5261
882.33	38.5966
882.38	41.3205
882.431	39.3835
882.481	32.7671
882.531	39.2057
882.582	40.938
882.632	39.4853
882.682	31.5285
882.733	39.1894
882.783	39.9981
882.834	37.4041
882.884	33.8624
882.934	40.437
882.985	39.0406
883.035	43.4769
883.085	38.0987
883.136	41.621
883.186	40.181
883.236	38.11
883.287	34.63
883.337	34.7515
883.387	39.0405
883.438	36.2738
883.488	34.8142
883.538	36.0725
883.589	38.7553
883.639	36.3744
883.689	36.3242
883.74	36.3369
883.79	40.049
883.84	40.2704
883.891	35.6833
883.941	37.7933
883.991	36.8723
884.042	36.3347
884.092	36.8164
884.142	37.1119
884.193	40.6196
884.243	40.6366
884.293	38.1601
884.344	38.4933
884.394	40.4668
884.444	38.052
884.495	37.194
884.545	39.0193
884.595	41.3285
884.646	38.2253
884.696	35.5681
884.746	35.8066
884.797	35.8168
884.847	38.7683
884.897	39.9743
884.947	38.4735
884.998	34.653
885.048	40.0539
885.098	41.2985
885.149	41.2258
885.199	40.8963
885.249	36.4273
885.3	34.0685
885.35	38.6401
885.4	40.2141
885.451	35.4005
885.501	34.6241
885.551	38.7463
885.602	40.285
885.652	36.9963
885.702	34.6074
885.752	35.1792
885.803	38.031
885.853	36.0232
885.903	34.0723
885.954	36.367
886.004	38.6804
886.054	37.2251
886.105	38.4677
886.155	43.0369
886.205	39.1039
886.255	36.0889
886.306	35.8667
886.356	38.8347
886.406	39.055
886.457	37.5839
886.507	36.433
886.557	41.3777
886.608	39.533
886.658	36.0014
886.708	32.3756
886.758	39.6573
886.809	41.8633
886.859	36.4198
886.909	36.7393
886.96	37.7069
887.01	38.5203
887.06	35.2841
887.11	34.3172
887.161	34.8476
887.211	36.6642
887.261	37.5561
887.312	39.6292
887.362	40.671
887.412	34.3362
887.462	35.0097
887.513	34.8598
887.563	37.8056
887.613	40.265
887.664	36.854
887.714	38.6133
887.764	39.4037
887.814	33.9728
887.865	35.139
887.915	38.2525
887.965	35.7425
887.987	36.6073
888.038	37.3625
888.088	36.6624
888.138	37.3323
888.189	37.2974
888.239	36.9656
888.289	39.3649
888.34	37.9034
888.39	38.482
888.441	40.7592
888.491	39.6224
888.542	34.1045
888.592	35.2556
888.642	32.9597
888.693	41.3165
888.743	40.4335
888.793	41.8032
888.844	35.1819
888.894	37.0731
888.945	38.7719
888.995	37.4547
889.045	35.3826
889.096	35.2532
889.146	33.0574
889.197	35.4561
889.247	33.6764
889.297	34.5993
889.348	35.888
889.398	35.2805
889.448	34.3803
889.499	36.2611
889.549	38.225
889.6	35.3433
889.65	31.7491
889.7	37.1854
889.751	40.5906
889.801	39.5633
889.851	39.9724
889.902	35.7181
889.952	37.4595
890.003	37.038
890.053	33.2695
890.103	36.5461
890.154	39.174
890.204	39.9118
890.254	35.0639
890.305	31.8593
890.355	38.2345
890.406	33.9589
890.456	28.2237
890.506	34.2192
890.557	38.8704
890.607	35.1292
890.657	32.5091
890.708	36.3774
890.758	33.5925
890.808	36.3618
890.859	35.7801
890.909	37.2999
890.96	36.7378
891.01	35.3686
891.06	35.6234
891.111	37.6222
891.161	32.5986
891.211	33.7702
891.262	32.4723
891.312	36.5619
891.362	36.7899
891.413	35.5009
891.463	32.6385
891.513	31.5713
891.564	35.695
891.614	39.6621
891.665	38.6358
891.715	35.6785
891.765	32.4135
891.816	30.4065
891.866	36.0198
891.916	35.6962
891.967	34.6171
892.017	34.1254
892.067	33.3411
892.118	32.6745
892.168	33.5386
892.218	35.1889
892.269	35.0944
892.319	34.154
892.369	35.3784
892.42	35.0792
892.47	34.2221
892.52	36.3214
892.571	36.4868
892.621	31.1471
892.671	36.3461
892.722	37.1157
892.772	36.0595
892.822	37.1551
892.873	37.3643
892.923	34.7026
892.973	33.83
893.024	33.6941
893.074	34.7671
893.124	34.2628
893.175	32.5559
893.225	33.4333
893.275	37.9385
893.326	32.3269
893.376	32.3179
893.426	34.6856
893.477	37.1674
893.527	37.666
893.577	35.4789
893.628	35.3754
893.678	35.3234
893.728	36.7889
893.779	37.0144
893.829	34.3179
893.879	34.8968
893.93	36.0033
893.98	37.2251
894.03	35.4899
894.081	37.9857
894.131	35.2797
894.181	37.8279
894.232	35.3786
894.282	34.1717
894.332	34.0001
894.383	34.7312
894.433	33.1694
894.483	31.9678
894.533	32.588
894.584	35.5843
894.634	32.7207
894.684	32.4905
894.735	33.6659
894.785	32.6093
894.835	35.1696
894.886	34.4929
894.936	31.2067
894.986	33.9895
895.037	33.0622
895.087	32.8046
895.137	33.8556
895.188	33.3242
895.238	29.8621
895.288	32.5447
895.338	30.5898
895.389	34.9557
895.439	36.2316
895.489	34.4467
895.54	33.2914
895.59	36.1492
895.64	34.5792
895.69	31.9199
895.741	32.1459
895.791	32.9973
895.841	33.1696
895.892	30.1747
895.942	33.0573
895.992	30.2788
896.043	33.4684
896.093	32.1701
896.143	32.0366
896.193	33.0115
896.244	34.002
896.294	33.0877
896.344	35.2831
896.395	33.1517
896.445	30.9487
896.495	35.367
896.545	35.2871
896.596	36.5656
896.646	39.9375
896.696	36.7769
896.747	35.9384
896.797	33.3107
896.847	34.4315
896.897	35.7041
896.948	31.769
896.998	31.5918
897.048	34.7976
897.099	36.8265
897.149	37.5466
897.199	34.4976
897.249	31.9492
897.3	33.4779
897.35	35.4783
897.4	32.7706
897.451	36.4784
897.501	36.5876
897.551	33.8547
897.601	34.0631
897.652	34.6378
897.702	33.5367
897.752	35.1439
897.802	36.9312
897.853	35.9136
897.903	32.6879
897.953	32.9358
898.003	31.8512
898.054	34.8133
898.104	35.6131
898.154	34.5063
898.204	34.1713
898.255	33.3388
898.305	31.5671
898.355	34.3588
898.406	35.4438
898.456	38.9833
898.506	29.0128
898.556	32.4095
898.607	34.6172
898.657	36.3216
898.707	31.3489
898.757	32.0379
898.808	30.8781
898.858	36.1049
898.908	31.6212
898.958	37.0307
899.009	35.1639
899.059	33.2321
899.109	28.4965
899.159	30.8272
899.21	33.5512
899.26	35.3037
899.31	36.5124
899.36	33.4331
899.411	31.502
899.461	29.7092
899.511	30.8472
899.561	34.8297
899.612	36.0405
899.662	38.0593
899.712	29.6841
899.762	30.5009
899.813	33.5336
899.863	33.6676
899.913	30.3878
899.963	32
