#Acq. time (s)=	3
#Accumulations=	2
#Range (nm)=	520...900
#Windows=	16
#Auto scanning=	On
#Autofocus=	Off
#AutoExposure=	Off
#Spike filter=	Multiple accum.
#Delay time (s)=	0
#Binning=	1
#Readout mode=	Signal
#DeNoise=	Off
#ICS correction=	Off
#Dark correction=	Off
#Inst. Process=	Off
#Detector temperature (°C)=	-59.98
#Instrument=	LabRAM HR Evol
#Detector=	Syncerity OE
#Objective=	x50_VIS
#Grating=	600 (500nm)
#ND Filter=	10%
#Laser=	514nm_Edge
#Hole=	199.981
#Range=	Auto
#StageXY=	Marzhauser
#StageZ=	Marzhauser
#X (µm)=	6837.6
#Y (µm)=	8027.4
#Z (µm)=	80.2
#Full time(mm:ss)=	2:45
#Project=	
#Sample=	
#Site=	
#Title=	PL_230124_Amostra_HPHT_polida
#Remark=	
#Date=	31.01.2024 11:16
#Acquired=	31.01.2024 11:16:51
520.042	41
520.094	39.043
520.147	39.1362
520.199	34.9534
520.251	32.9512
520.304	35.1537
520.356	37.0524
520.408	36.8929
520.461	31.1709
520.513	39.709
520.565	39.1187
520.618	36.8116
520.67	34.4482
520.723	40.4785
520.775	37.3376
520.827	47.5116
520.88	35.2887
520.932	37.0733
520.984	38.9243
521.037	37
521.089	36.1581
521.141	37
521.194	34.248
521.246	38.6601
521.298	31
521.351	38.9105
521.403	41.0908
521.455	39
521.508	34.1886
521.56	38.9034
521.612	38.7066
521.665	40.1012
521.717	34.3073
521.769	38
521.822	40.3644
521.874	37.3248
521.926	37.2189
521.979	40
522.031	33.7742
522.083	39.1152
522.136	41.2372
522.188	40.6403
522.24	39.1222
522.293	47.5064
522.345	33.1315
522.397	40.4878
522.45	39.1292
522.502	43.4738
522.554	38.8661
522.607	36.8102
522.659	41.3132
522.711	36.1397
522.764	37.4226
522.816	40.7136
522.868	39.8545
522.921	38.1467
522.973	37
523.025	37.1513
523.078	45.39
523.13	41.3097
523.182	35.3143
523.234	32.319
523.287	33
523.339	37.0221
523.391	38.1572
523.444	39.1618
523.496	39.6752
523.548	35.8298
523.601	37.8277
523.653	38.3492
523.705	36.6461
523.758	35.4657
523.81	38.5413
523.862	35.8172
523.915	43
523.967	36
524.019	34.9441
524.072	42.8545
524.124	39.4237
524.176	41.8056
524.229	45.787
524.281	38.7963
524.333	40.5991
524.385	36.2026
524.438	40.1804
524.49	40.6217
524.542	39.7905
524.595	40
524.647	34.8475
524.699	42.7148
524.752	45
524.804	40.2189
524.856	42
524.909	40.2224
524.961	37
525.013	39
525.066	37.4569
525.118	39.539
525.17	42.2328
525.222	37.5315
525.275	41
525.327	40.7614
525.379	39.2413
525.432	32.2165
525.484	36.2631
525.536	39
525.589	38.7506
525.641	39.7485
525.693	34.7614
525.745	43.979
525.798	43.2573
525.85	36.2587
525.902	42
525.955	36
526.007	42.4685
526.059	35.071
526.112	37.7299
526.164	41
526.216	42.1793
526.268	38.8287
526.321	45.2782
526.373	41.1608
526.425	47.5914
526.478	37.2724
526.53	41.1399
526.582	45.1339
526.635	49
526.687	44.5844
526.739	42.1748
526.791	48.2189
526.844	46.8065
526.896	43.901
526.948	40.8182
527.001	42.39
527.053	41.6935
527.105	43.3085
527.157	41.6888
527.21	41.6868
527.262	41.3147
527.314	36.9534
527.367	36
527.419	43.3974
527.471	42.6764
527.523	41.6259
527.576	42.0186
527.628	48.6807
527.68	42.6589
527.733	39.338
527.785	38.993
527.837	43.3376
527.889	43.979
527.942	41.3415
527.994	46
528.046	37.3846
528.099	37.3015
528.151	38.3508
528.203	39
528.255	46.2247
528.308	40
528.36	39.0769
528.412	47.2782
528.464	43.7273
528.517	43.9056
528.569	43.7343
528.621	38
528.674	50.2564
528.726	43
528.778	42.376
528.83	39.2727
528.883	38.7203
528.935	40.3823
528.987	47
529.039	39.6131
529.092	46.3893
529.144	44.2191
529.196	42.7855
529.249	43
529.301	43.7949
529.353	39.4009
529.405	42.0047
529.458	42.4033
529.51	43.156
529.562	38.6317
529.614	43.7692
529.667	43.0629
529.719	41.9312
529.771	37.2483
529.823	46.7427
529.876	39.5245
529.928	43.8846
529.98	40
530.033	44.5723
530.085	44.2867
530.137	43.5688
530.189	38.8671
530.242	43
530.294	46.5629
530.346	44.1199
530.398	40.5571
530.451	46.4452
530.503	41.4476
530.555	47.5513
530.607	40.3531
530.66	42.3601
530.712	39.7214
530.764	45.458
530.816	42.1585
530.869	41
530.921	45.3193
530.973	42.6014
531.025	44.5315
531.078	50.4709
531.13	46.5268
531.182	45
531.234	39.4779
531.287	40.9604
531.339	46.1049
531.391	47.4837
531.443	41.9125
531.496	45.5128
531.548	42.042
531.6	41.4918
531.652	42.9767
531.705	45.014
531.757	46.4988
531.809	43.0047
531.861	40.993
531.914	45.5058
531.966	47.4621
532.018	45
532.07	45.0699
532.123	41.972
532.175	49.4476
532.227	44
532.279	42.4784
532.332	48.5233
532.384	46.9487
532.436	43.1119
532.488	46
532.541	46.0642
532.593	48.7972
532.645	47.5361
532.697	44.0793
532.75	49
532.802	44.0862
532.854	43.5455
532.906	44.8089
532.958	48.0992
533.011	51.2378
533.063	45.2191
533.115	44.1142
533.167	48.8821
533.22	47.4394
533.272	43.6923
533.324	44.3022
533.376	50.8648
533.429	50.8217
533.481	45.5433
533.533	47.1627
533.585	47.6639
533.638	46.6201
533.69	45.1905
533.742	47.8904
533.794	51.0938
533.846	53.4332
533.899	47.6841
533.951	44.4454
534.003	44.8714
534.055	47.9265
534.108	45.7812
534.16	42.2927
534.212	42.7566
534.264	49.8765
534.316	47.8591
534.369	50.1208
534.421	54.4521
534.473	48.9178
534.525	47.7494
534.578	49.1706
534.63	47.7443
534.682	48.6696
534.734	50.4157
534.786	46.4974
534.839	52.2329
534.891	46.8865
534.943	49.0546
534.995	56.4499
535.047	46.7782
535.1	50.9013
535.152	51.1288
535.204	45.8527
535.256	47.778
535.309	52.5065
535.361	49.9116
535.413	49.9086
535.465	47.4926
535.517	51.6284
535.57	46.3559
535.622	49.5468
535.674	46.4697
535.726	54.5187
535.778	46.5482
535.831	46.9388
535.883	44.8039
535.935	54.3741
535.987	50.8358
536.039	48.9037
536.092	47.0428
536.144	54.7539
536.196	53.2509
536.248	48.51
536.301	48.465
536.353	57.0053
536.405	39.6109
536.457	47.0136
536.509	53.3891
536.562	54.5488
536.614	47.2787
536.666	47.4093
536.718	45.321
536.77	49.1355
536.823	46.0679
536.875	48.2251
536.927	54.7533
536.979	52.6297
537.031	57.2193
537.083	51.8551
537.136	50.3619
537.188	54.9783
537.24	50.0664
537.292	47.9217
537.344	53.4051
537.397	51.3349
537.449	50.4143
537.501	51.7455
537.553	51.0724
537.605	52.6974
537.658	50.6395
537.71	52.0606
537.762	51.6166
537.814	56.6673
537.866	52.683
537.919	56.6964
537.971	50.9975
538.023	50.5189
538.075	48.1476
538.127	52.0165
538.18	50.1462
538.232	52.9559
538.284	51.81
538.336	52.0455
538.388	52.9478
538.44	49.8996
538.493	49.8864
538.545	55.4857
538.597	54.5444
538.649	57.2322
538.701	44.3754
538.754	56.1872
538.806	54.33
538.858	52.1233
538.91	49.8149
538.962	46.4703
539.014	54.0593
539.067	53.4403
539.119	51.0769
539.171	55.4456
539.223	53.9982
539.275	49.1982
539.327	54.4322
539.38	58.5685
539.432	52.4565
539.484	55.6695
539.536	53.6887
539.588	53.115
539.641	49.0199
539.693	51.3679
539.745	54.8258
539.797	52.9076
539.849	54.0582
539.901	53.9098
539.954	58.1844
540.006	51.6145
540.058	57.3047
540.11	62.4126
540.162	50.456
540.214	49.3558
540.267	56.027
540.319	58.0983
540.371	53.4954
540.423	55.5779
540.475	54.7469
540.527	58.5961
540.58	48.6926
540.632	56.1641
540.684	57.6749
540.736	54.2888
540.788	53.4679
540.84	51.4063
540.892	57.5566
540.945	51.2797
540.997	55.5781
541.049	49.2373
541.101	59.0632
541.153	60.7121
541.205	53.9072
541.258	55.5093
541.31	49.415
541.362	58.9719
541.414	55.9272
541.466	50.4771
541.518	57.2416
541.57	49.9197
541.623	55.8034
541.675	54.3608
541.727	55.113
541.779	57.0853
541.831	56.7634
541.883	51.7299
541.936	50.7313
541.988	54.5002
542.04	59.0639
542.092	50.2693
542.144	53.5552
542.196	60.8719
542.248	59.8755
542.301	65.5232
542.353	60.1548
542.405	52.8904
542.457	51.0476
542.509	58.0944
542.561	64.5197
542.613	56.3546
542.666	61.142
542.718	55.3492
542.77	60.5433
542.822	52.018
542.874	58.867
542.926	61.7082
542.978	58.5717
543.031	60.5418
543.083	59.8405
543.135	64.8264
543.187	62.577
543.239	52.2527
543.291	57.6133
543.343	51.2131
543.396	62.4452
543.448	59.0728
543.5	61.6356
543.552	58.5291
543.604	62.346
543.656	58.5862
543.708	58.6751
543.76	54.8778
543.813	65.2288
543.865	60.0404
543.917	60.9591
543.969	64.4907
544.021	64.2982
544.073	59.0938
544.125	65.3842
544.177	54.1124
544.23	58.0221
544.282	70.9706
544.334	56.0206
544.386	60.8288
544.438	62.7146
544.49	59.2808
544.542	54.0622
544.594	59.1334
544.647	63.8435
544.699	71.0591
544.751	63.263
544.803	64.4002
544.855	62.1761
544.907	53.9844
544.959	66.8913
545.011	63.8496
545.064	65.3588
545.116	63.2399
545.168	68.8258
545.22	60.0516
545.272	60.752
545.324	60.8297
545.376	64.1415
545.428	66.15
545.48	62.7529
545.533	62.7926
545.585	60.8375
545.637	65.32
545.689	67.5867
545.741	64.7487
545.793	61.158
545.845	59.1154
545.897	56.5259
545.949	64.6152
546.002	64.6105
546.054	69.2021
546.106	66.6121
546.158	61.3857
546.21	68.455
546.262	71.6451
546.314	68.7758
546.366	66.4871
546.418	61.17
546.471	63.4147
546.523	72.2481
546.575	69.15
546.627	64.7429
546.679	70.4892
546.689	71.9189
546.741	69.9367
546.793	64.0021
546.845	71.8721
546.898	71.7872
546.95	63.9234
547.002	64.0936
547.054	75.7606
547.106	69.7969
547.159	75.57
547.211	58.1117
547.263	71.9226
547.315	71.8465
547.368	71.8425
547.42	66.0614
547.472	71.928
547.524	77.5271
547.577	75.5392
547.629	69.9629
547.681	64.3298
547.733	73.931
547.785	68
547.838	75.6031
547.89	66.3263
547.942	75.8763
547.994	70.0796
548.047	64.6887
548.099	71.8845
548.151	86.6662
548.203	73.8203
548.255	73.5755
548.308	75.1945
548.36	73.5386
548.412	71.8827
548.464	68.2997
548.517	83.4893
548.569	79.5678
548.621	77.6549
548.673	79.6118
548.725	77.4704
548.778	79.3222
548.83	68.591
548.882	74.1356
548.934	85.3225
548.987	83.1397
549.039	70.839
549.091	77.6148
549.143	78.957
549.195	91.484
549.248	79.5338
549.3	70.4234
549.352	76.4491
549.404	83.082
549.456	88.1899
549.509	85.954
549.561	81.1493
549.613	81.1817
549.665	85.7232
549.718	86.2189
549.77	78.3788
549.822	84.8531
549.874	85.1747
549.926	83.2027
549.979	78.9798
550.031	85.1475
550.083	78.9735
550.135	87.8328
550.187	86.0675
550.24	81.0703
550.292	78.0105
550.344	82.1849
550.396	87.1351
550.448	77.9584
550.501	93.3043
550.553	91.6017
550.605	88.683
550.657	95.1008
550.709	82.8294
550.762	89.8982
550.814	98.3807
550.866	100.289
550.918	89.5496
550.97	91.9794
551.023	90.6963
551.075	93.424
551.127	95.4166
551.179	99.1676
551.231	101.082
551.284	97.5023
551.336	101.818
551.388	99.2799
551.44	110.626
551.492	108.674
551.545	118.839
551.597	106.707
551.649	109.369
551.701	124.342
551.753	126.204
551.806	127.495
551.858	130.074
551.91	142.844
551.962	142.413
552.014	163.333
552.067	169.276
552.119	185.213
552.171	211.407
552.223	244.621
552.275	313.358
552.327	473.469
552.38	940.373
552.432	1787.99
552.484	3306.39
552.536	6108.37
552.588	9639.9
552.641	10115.7
552.693	6836.29
552.745	3240.89
552.797	1280.48
552.849	576.795
552.901	335.825
552.954	267.343
553.006	228.679
553.058	177.826
553.11	162.065
553.162	160.575
553.215	144.277
553.267	144.305
553.319	131.016
553.371	131.406
553.423	121.754
553.475	128.225
553.528	120.032
553.58	120.837
553.632	114.014
553.684	127.534
553.736	119.839
553.788	114.743
553.841	112.993
553.893	118.982
553.945	113.597
553.997	110.622
554.049	100.358
554.102	108.556
554.154	110.475
554.206	108.764
554.258	109.689
554.31	111.195
554.362	99.1332
554.414	110
554.467	110.101
554.519	120.012
554.571	109.496
554.623	110.668
554.675	106.708
554.727	119.22
554.78	107.403
554.832	108.815
554.884	108.689
554.936	117.809
554.988	110.981
555.04	108
555.093	110.813
555.145	116.322
555.197	116.317
555.249	110.18
555.301	113.944
555.353	112.346
555.406	110.733
555.458	101.744
555.51	114.886
555.562	113.89
555.614	109.487
555.666	111.507
555.719	101.961
555.771	120.754
555.823	117.212
555.875	111.513
555.927	110.442
555.979	119.066
556.031	114.654
556.084	117.931
556.136	114.502
556.188	111.421
556.24	122.503
556.292	103.952
556.344	129.194
556.396	115.378
556.449	118.806
556.501	115.853
556.553	111.867
556.605	115.429
556.657	117.514
556.709	117.579
556.762	122.95
556.814	120.949
556.866	121.382
556.918	119.645
556.97	124.037
557.022	133.15
557.074	119.952
557.127	120.648
557.179	114.664
557.231	123.737
557.283	112.372
557.335	123.839
557.387	120.152
557.439	129.148
557.492	131.798
557.544	122.489
557.596	126.765
557.648	133.444
557.7	133.468
557.752	125.624
557.804	119.394
557.856	132.99
557.909	136.62
557.961	124.793
558.013	125.415
558.065	132.522
558.117	124.013
558.169	132.894
558.221	132.409
558.273	135.598
558.326	131.604
558.378	130.029
558.43	140.644
558.482	131.963
558.534	140.189
558.586	133.026
558.638	136.35
558.691	129.3
558.743	128.705
558.795	133.624
558.847	137.561
558.899	144.782
558.951	127.404
559.003	128.414
559.055	137.064
559.108	137.501
559.16	141.338
559.212	138.991
559.264	143.243
559.316	132.6
559.368	131.523
559.42	138.343
559.472	145.85
559.525	139.763
559.577	140.648
559.629	139.029
559.681	140.088
559.733	132.414
559.785	137.507
559.837	140.13
559.889	134.386
559.941	140.668
559.994	127.44
560.046	139.312
560.098	143.883
560.15	141.486
560.202	135.716
560.254	142.493
560.306	141.21
560.358	146.293
560.41	146.564
560.463	146.676
560.515	146.089
560.567	153.71
560.619	149.534
560.671	144.031
560.723	155.638
560.775	151.831
560.827	147.814
560.879	149.544
560.932	158.421
560.984	156.079
561.036	152.269
561.088	158.003
561.14	154.407
561.192	154.818
561.244	153.504
561.296	157.724
561.348	156.815
561.4	152.667
561.453	151.688
561.505	152.492
561.557	151.297
561.609	167.362
561.661	158.077
561.713	152.492
561.765	160.506
561.817	158.859
561.869	151.125
561.921	168.983
561.974	169.895
562.026	168.647
562.078	160.548
562.13	166.363
562.182	163.372
562.234	165.065
562.286	166.929
562.338	165.086
562.39	165.605
562.442	178.627
562.494	167.465
562.547	166.181
562.599	172.405
562.651	167.655
562.703	174.522
562.755	183.352
562.807	175.807
562.859	180.362
562.911	172.565
562.963	172.781
563.015	183.761
563.067	174.543
563.12	174.723
563.172	179.926
563.224	167.699
563.276	175.294
563.328	168.231
563.38	175.974
563.432	183.723
563.484	180.934
563.536	172.845
563.588	178.468
563.64	172.08
563.692	179.403
563.744	181.17
563.797	188.608
563.849	179.49
563.901	189.291
563.953	185.77
564.005	189.188
564.057	185.164
564.109	176.373
564.161	180.74
564.213	176.802
564.265	189.299
564.317	182.513
564.369	194.023
564.421	193.831
564.474	187.048
564.526	197.023
564.578	194.086
564.63	191.61
564.682	190.294
564.734	187.589
564.786	193.963
564.838	198.665
564.89	195.318
564.942	194.635
564.994	190.86
565.046	196.563
565.098	200.809
565.15	198.173
565.202	202.425
565.255	203.588
565.307	202.552
565.359	200.593
565.411	199.882
565.463	190.615
565.515	199.075
565.567	198.549
565.619	204.273
565.671	205.599
565.723	208.991
565.775	207.114
565.827	206.31
565.879	203.492
565.931	215.466
565.983	209.373
566.035	211.49
566.087	213.967
566.139	215.305
566.192	214.759
566.244	213.241
566.296	209.57
566.348	215.182
566.4	210.083
566.452	210.679
566.504	215.969
566.556	221.643
566.608	208.984
566.66	217.141
566.712	205.605
566.764	211.188
566.816	216.889
566.868	219.829
566.92	219.298
566.972	218.148
567.024	223.337
567.076	228.826
567.128	221.175
567.18	218.607
567.232	228.435
567.285	223.243
567.337	222.588
567.389	233.296
567.441	232.805
567.493	233.521
567.545	227.373
567.597	223.348
567.649	222.843
567.701	227.765
567.753	235.334
567.805	230.673
567.857	232.17
567.909	240.892
567.961	229.889
568.013	237.628
568.065	239.095
568.117	237.401
568.169	239.617
568.221	241.897
568.273	242.253
568.325	237.892
568.377	236.657
568.429	243.738
568.481	247.241
568.533	248.189
568.585	251.448
568.637	253.23
568.69	245.639
568.742	249.774
568.794	251.047
568.846	247.41
568.898	250.397
568.95	256.913
569.002	261.926
569.054	252.294
569.106	244.735
569.158	254.221
569.21	250.156
569.262	245.856
569.314	253.441
569.366	256.826
569.418	262.552
569.47	265.982
569.522	268.775
569.574	268.163
569.626	264.743
569.678	262.827
569.73	276.872
569.782	284.537
569.834	274.98
569.886	270.151
569.938	270.698
569.99	267.37
570.042	272.47
570.094	282.297
570.146	279.98
570.198	277.833
570.25	289.521
570.302	292.322
570.354	280.864
570.406	291.017
570.458	294.424
570.51	283.202
570.562	273.126
570.614	283.342
570.666	288.116
570.718	295.848
570.77	309.434
570.822	303.642
570.874	295.183
570.926	291.47
570.978	295.291
571.03	317.185
571.082	321.491
571.134	324.369
571.186	320.473
571.238	315.314
571.29	303.301
571.342	303.024
571.394	319.179
571.446	323.974
571.498	320.389
571.55	327.196
571.602	313.016
571.654	320.833
571.706	330.639
571.758	342.711
571.81	342.556
571.862	335.438
571.914	348.121
571.966	354.964
572.018	364.579
572.07	374.242
572.122	362.387
572.174	339.412
572.226	364.696
572.278	373.833
572.33	376.26
572.382	388.221
572.434	381.17
572.486	393.915
572.538	400.576
572.59	393.878
572.642	394.869
572.694	400.447
572.746	398.607
572.798	404.251
572.85	413.646
572.902	406.685
572.954	429.185
573.006	433.585
573.058	429.382
573.11	448.455
573.162	437.986
573.214	438.457
573.266	443.085
573.302	473.945
573.355	476.023
573.407	466.055
573.459	452.134
573.511	501.549
573.563	466.16
573.615	505.776
573.667	501.959
573.719	509.694
573.772	539.079
573.824	539.369
573.876	542.135
573.928	545.97
573.98	549.576
574.032	558.029
574.084	566.374
574.136	593.816
574.188	599.623
574.241	605.197
574.293	592.118
574.345	628.727
574.397	606.123
574.449	627.752
574.501	651.328
574.553	640.665
574.605	671.039
574.657	662.022
574.71	689.403
574.762	697.675
574.814	701.361
574.866	723.039
574.918	737.527
574.97	754.441
575.022	777.591
575.074	766.211
575.126	777.762
575.178	770.302
575.231	810.281
575.283	808.847
575.335	839.712
575.387	821.134
575.439	854.256
575.491	832.445
575.543	817.788
575.595	835.904
575.647	830.367
575.7	862.966
575.752	858.094
575.804	879.122
575.856	863.969
575.908	865.134
575.96	857.535
576.012	842.92
576.064	850.912
576.116	855.087
576.168	869.64
576.22	845.652
576.273	854.836
576.325	826.588
576.377	832.075
576.429	805.361
576.481	805.419
576.533	815.324
576.585	809.968
576.637	776.734
576.689	780.763
576.741	768.077
576.793	776.841
576.846	768.948
576.898	738.713
576.95	714.572
577.002	736.814
577.054	719.89
577.106	719.605
577.158	730.809
577.21	687.004
577.262	708.226
577.314	704.015
577.366	673.861
577.418	656.944
577.471	682.869
577.523	672.369
577.575	657.862
577.627	658.002
577.679	635.297
577.731	607.195
577.783	640.081
577.835	629.692
577.887	624.945
577.939	603.748
577.991	621.679
578.043	607.304
578.095	592.903
578.148	576.112
578.2	605.106
578.252	593.829
578.304	575.703
578.356	573.116
578.408	557.358
578.46	558.563
578.512	572.72
578.564	552.982
578.616	555.453
578.668	567.212
578.72	555.954
578.772	540.751
578.824	551.374
578.877	544.476
578.929	554.832
578.981	550.744
579.033	546.296
579.085	532.115
579.137	529.302
579.189	530.514
579.241	547.624
579.293	551.636
579.345	541.41
579.397	530.177
579.449	545.718
579.501	536.563
579.553	537.443
579.605	516.466
579.658	548.337
579.71	526.795
579.762	537.211
579.814	534.054
579.866	531.39
579.918	548.066
579.97	531.191
580.022	532.093
580.074	523.801
580.126	546.665
580.178	542.118
580.23	543.665
580.282	529.184
580.334	539.354
580.386	525.473
580.438	526.525
580.49	539.736
580.542	527.796
580.595	533.313
580.647	532.624
580.699	547.556
580.751	541.208
580.803	531.74
580.855	540.541
580.907	533.774
580.959	538.553
581.011	532.328
581.063	543.648
581.115	552.659
581.167	552.483
581.219	527.265
581.271	537.599
581.323	546.748
581.375	540.733
581.427	548.171
581.479	563.847
581.531	556.802
581.583	540.807
581.635	568.299
581.688	561.143
581.74	543.316
581.792	561.148
581.844	570.468
581.896	550.205
581.948	553.446
582	564.486
582.052	569.136
582.104	573.255
582.156	570.332
582.208	575.524
582.26	562.035
582.312	563.672
582.364	568.929
582.416	572.496
582.468	592.979
582.52	567.398
582.572	582.145
582.624	570.456
582.676	566.833
582.728	573.161
582.78	592.867
582.832	569.241
582.884	565.634
582.936	588.992
582.988	588.021
583.04	577.789
583.092	583.655
583.144	580.27
583.196	598.145
583.249	583.071
583.301	589.332
583.353	604.838
583.405	604.176
583.457	584.335
583.509	589.303
583.561	603.252
583.613	589.527
583.665	608.277
583.717	598.047
583.769	600.482
583.821	610.064
583.873	607.802
583.925	609.699
583.977	624.214
584.029	618.443
584.081	627.097
584.133	622.546
584.185	614.149
584.237	623.958
584.289	633.818
584.341	621.231
584.393	639.993
584.445	623.256
584.497	637.451
584.549	635.103
584.601	630.773
584.653	646.663
584.705	649.654
584.757	657.863
584.809	644.667
584.861	642.828
584.913	658.748
584.965	674.729
585.017	669.365
585.069	668.935
585.121	662.844
585.173	683.109
585.225	668.689
585.277	688.142
585.329	669.178
585.381	671.302
585.433	695.495
585.485	690.218
585.537	664.902
585.589	663.394
585.641	679.862
585.693	684.605
585.745	685.409
585.797	693.721
585.849	673.597
585.901	703.615
585.953	684.135
586.005	675.631
586.057	693.417
586.109	697.391
586.161	695.606
586.213	704.338
586.265	693.744
586.317	694.168
586.369	704.38
586.421	702.251
586.473	727.155
586.525	704.476
586.577	717.953
586.629	702.175
586.681	715.733
586.733	712.873
586.785	730.653
586.837	710.982
586.889	722.461
586.941	750.194
586.993	723.434
587.045	738.809
587.097	723.962
587.149	734.488
587.201	752.005
587.253	716.391
587.305	729.732
587.357	716.807
587.409	714.151
587.461	748.737
587.513	716.155
587.565	724.024
587.617	737.914
587.669	743.28
587.721	734.441
587.773	735.458
587.825	716.867
587.877	728.801
587.929	716.082
587.981	750.293
588.033	731.782
588.085	748.82
588.137	737.289
588.189	757.249
588.241	744.629
588.293	773.24
588.345	751.493
588.397	748.715
588.449	763.063
588.501	762.095
588.552	769.537
588.604	746.932
588.656	752.722
588.708	767.352
588.76	751.556
588.812	749.024
588.864	761.055
588.916	751.35
588.968	733.752
589.02	756.032
589.072	762.163
589.124	763.79
589.176	751.342
589.228	750.619
589.28	769.89
589.332	772.014
589.384	764.364
589.436	749.746
589.488	763.783
589.54	762.823
589.592	754.098
589.644	769.884
589.696	783.474
589.748	760.408
589.8	775.888
589.852	777.726
589.904	762.063
589.956	769.659
590.008	782.761
590.06	760.148
590.112	768.558
590.163	766.377
590.215	751.136
590.267	747.686
590.319	753.614
590.371	771.897
590.423	773.161
590.475	759.027
590.527	770.081
590.579	770.699
590.631	799.275
590.683	759.265
590.735	771.911
590.787	754.015
590.839	764.214
590.891	757.617
590.943	783.421
590.995	784.963
591.047	782.213
591.099	750.737
591.151	754.165
591.203	760.529
591.254	752.13
591.306	756.843
591.358	759.439
591.41	762.5
591.462	762.871
591.514	751.785
591.566	740.756
591.618	747.52
591.67	759.753
591.722	761.802
591.774	759.964
591.826	763.226
591.878	742.314
591.93	747.279
591.982	731.098
592.034	744.886
592.086	746.095
592.137	752.033
592.189	752.163
592.241	727.487
592.293	744.389
592.345	772.205
592.397	750.768
592.449	742.781
592.501	746.628
592.553	747.53
592.605	749.821
592.657	758.454
592.709	746.324
592.761	746.598
592.813	747.051
592.865	750.764
592.916	734.221
592.968	739.699
593.02	741.746
593.072	745.3
593.124	742.769
593.176	743.175
593.228	740.617
593.28	737.695
593.332	727.758
593.384	725.298
593.436	743.172
593.488	759.94
593.54	756.533
593.591	741.033
593.643	735.897
593.695	733.737
593.747	756.011
593.799	762.254
593.851	752.228
593.903	731.156
593.955	740.84
594.007	759.028
594.059	755.098
594.111	751.11
594.163	757.731
594.215	755.745
594.266	742.522
594.318	749.93
594.37	753.515
594.422	768.542
594.474	760.751
594.526	764.816
594.578	775.694
594.63	759.372
594.682	757.612
594.734	760.834
594.786	758.242
594.837	759.527
594.889	770.281
594.941	762.579
594.993	757.211
595.045	762.475
595.097	747.167
595.149	754.008
595.201	764.05
595.253	775.499
595.305	775.955
595.357	788.982
595.408	787.623
595.46	777.45
595.512	774.728
595.564	777.564
595.616	777.145
595.668	785.548
595.72	789.079
595.772	797.053
595.824	788.452
595.876	781.336
595.927	805.889
595.979	810.817
596.031	796.246
596.083	796.979
596.135	799.8
596.187	794.873
596.239	808.648
596.291	809.303
596.343	813.844
596.394	818.023
596.446	814.789
596.498	809.112
596.55	808.338
596.602	817.408
596.654	825.067
596.706	818.092
596.758	817.654
596.81	829.125
596.862	840.014
596.913	827.855
596.965	814.426
597.017	827.076
597.069	839.792
597.121	828.414
597.173	818.016
597.225	831.749
597.277	846.234
597.328	832.597
597.38	825.444
597.432	831.689
597.484	830.284
597.536	829.621
597.588	830.436
597.64	827.365
597.692	823.74
597.744	835.983
597.795	858.375
597.847	855.945
597.899	846.755
597.951	830.929
598.003	833.723
598.055	843.026
598.107	830.207
598.159	840.207
598.21	850.729
598.262	849.121
598.314	845.816
598.366	833.324
598.418	832.39
598.47	850.141
598.522	858.305
598.574	842.943
598.625	840.09
598.677	833.688
598.729	848.606
598.781	852.526
598.833	849.244
598.885	861.794
598.937	848.41
598.988	841.301
599.04	861.768
599.092	863.877
599.144	855.788
599.196	861.26
599.248	842.794
599.3	850.38
599.352	845.889
599.403	861.938
599.455	862.082
599.507	848.177
599.559	851.36
599.611	872.252
599.663	879.706
599.715	861.737
599.766	850.143
599.803	846.016
599.855	865.951
599.907	859.991
599.959	845.964
600.011	875.745
600.063	885.503
600.115	860.216
600.167	851.895
600.219	863.831
600.271	850.026
600.323	853.78
600.375	857.533
600.427	862.346
600.479	851.989
600.531	855.702
600.583	855.514
600.635	868.016
600.686	872.1
600.738	879.172
600.79	855.488
600.842	848.203
600.894	871.957
600.946	875.002
600.998	839.814
601.05	869.955
601.102	880.559
601.154	909.927
601.206	863.79
601.258	878.115
601.31	867.002
601.362	877.5
601.414	901.184
601.466	847.273
601.518	897.933
601.57	906.351
601.622	869.569
601.674	876.313
601.726	883.116
601.778	869.828
601.83	877.571
601.882	840.103
601.934	897.874
601.986	853.366
602.038	906.157
602.09	878.609
602.142	892.623
602.194	832.181
602.246	884.541
602.298	885.626
602.35	866.506
602.402	899.014
602.454	875.226
602.506	897.347
602.558	886.777
602.61	891.667
602.662	886.902
602.714	890.455
602.766	908.646
602.818	890.806
602.87	905.879
602.922	868.314
602.974	879.262
603.026	889.803
603.078	890.159
603.13	910.563
603.182	875.422
603.234	916.411
603.285	906.141
603.337	907.562
603.389	858.915
603.441	876.103
603.493	858.19
603.545	898.883
603.597	912.402
603.649	905.221
603.701	885.415
603.753	897.092
603.805	888.725
603.857	889.874
603.909	890.872
603.961	882.952
604.013	903.783
604.065	886.825
604.117	909.399
604.169	902.249
604.221	905.487
604.273	901.416
604.325	905.038
604.377	905.953
604.429	928.756
604.481	909.741
604.533	878.491
604.584	921.394
604.636	917.617
604.688	910.341
604.74	897.356
604.792	918.047
604.844	919.503
604.896	910.557
604.948	917.802
605	894.317
605.052	909.258
605.104	927.802
605.156	915.369
605.208	889.582
605.26	905.929
605.312	899.195
605.364	907.565
605.416	915.081
605.468	899.556
605.52	895.905
605.572	914.648
605.623	903.846
605.675	915.406
605.727	918.964
605.779	910.423
605.831	917.291
605.883	908.794
605.935	903.971
605.987	894.065
606.039	916.942
606.091	899.111
606.143	898.165
606.195	899.593
606.247	900.484
606.299	929.978
606.351	907.823
606.403	903.382
606.455	914.868
606.506	902.117
606.558	899.466
606.61	904.603
606.662	924.478
606.714	921.393
606.766	919.684
606.818	914.105
606.87	911.443
606.922	894.37
606.974	913.638
607.026	901.164
607.078	923.57
607.13	906.334
607.182	900.9
607.234	907.639
607.285	916.975
607.337	914.313
607.389	907.642
607.441	932.325
607.493	932.209
607.545	899.871
607.597	901.3
607.649	909.413
607.701	908.723
607.753	935.805
607.805	915.943
607.857	936.782
607.909	922.992
607.96	939.84
608.012	918.887
608.064	941.527
608.116	955.204
608.168	924.444
608.22	923.922
608.272	918.003
608.324	937.697
608.376	937.535
608.428	940.636
608.48	942.618
608.532	945.994
608.583	940.786
608.635	941.234
608.687	929.984
608.739	945.237
608.791	923.549
608.843	932.518
608.895	950.885
608.947	930.068
608.999	932.17
609.051	934.156
609.103	926.457
609.155	956.706
609.206	937.786
609.258	926.256
609.31	956.808
609.362	945.541
609.414	958.792
609.466	959.767
609.518	954.844
609.57	957.039
609.622	947.723
609.674	968.113
609.725	973.045
609.777	971.208
609.829	968.893
609.881	973.216
609.933	951.025
609.985	956.814
610.037	965.995
610.089	938.369
610.141	944.047
610.193	975.285
610.245	970.848
610.296	978.999
610.348	976.113
610.4	981.738
610.452	946.74
610.504	958.695
610.556	950.042
610.608	961.012
610.66	964.913
610.712	935.37
610.763	955.588
610.815	968.945
610.867	965.933
610.919	997.521
610.971	991.957
611.023	976.568
611.075	960.251
611.127	967.889
611.179	993.474
611.23	995.369
611.282	980.584
611.334	988.985
611.386	986.031
611.438	1006.33
611.49	981.12
611.542	969.533
611.594	1003.36
611.646	989.442
611.697	971.283
611.749	976
611.801	991.458
611.853	990.611
611.905	980.668
611.957	982.602
612.009	1000.57
612.061	988.106
612.113	993.494
612.164	995.241
612.216	1001.81
612.268	1006.27
612.32	1009.28
612.372	1010.75
612.424	999.935
612.476	1006.56
612.528	1005.81
612.579	1023.47
612.631	1016
612.683	1001.22
612.735	995.942
612.787	1016.44
612.839	1005.95
612.891	1009.68
612.943	1019.74
612.994	1030.31
613.046	1023.07
613.098	1025.9
613.15	1008.07
613.202	1019.04
613.254	1033.6
613.306	1023.87
613.357	1004.1
613.409	1019.8
613.461	1013.7
613.513	1039.02
613.565	1009.54
613.617	1027.44
613.669	1010.9
613.721	1050.21
613.772	1067.01
613.824	1039.95
613.876	1057.43
613.928	1053.15
613.98	1077.04
614.032	1057.19
614.084	1056.48
614.135	1061.32
614.187	1028.69
614.239	1057.05
614.291	1069.52
614.343	1057.76
614.395	1050.18
614.447	1072.06
614.498	1058.92
614.55	1040.74
614.602	1070.57
614.654	1082.04
614.706	1078.54
614.758	1072.29
614.81	1070.05
614.861	1074.73
614.913	1077.34
614.965	1082.75
615.017	1086.34
615.069	1105.68
615.121	1087.42
615.172	1073.21
615.224	1067.95
615.276	1110.99
615.328	1099.25
615.38	1094.89
615.432	1085.82
615.484	1088.15
615.535	1089.92
615.587	1109.87
615.639	1113.64
615.691	1096.52
615.743	1098.15
615.795	1109.63
615.846	1101.88
615.898	1105.24
615.95	1112.82
616.002	1123.69
616.054	1124
616.106	1109.63
616.158	1114.2
616.209	1100.41
616.261	1098.13
616.313	1113.27
616.365	1117.6
616.417	1119.1
616.469	1127.66
616.52	1114.14
616.572	1106.77
616.624	1125.4
616.676	1120.68
616.728	1116.12
616.78	1131.09
616.831	1153.65
616.883	1158.6
616.935	1150.5
616.987	1143.28
617.039	1125.52
617.091	1141.01
617.142	1126.18
617.194	1156.15
617.246	1149.15
617.298	1141.85
617.35	1156.92
617.401	1153.83
617.453	1148.8
617.505	1165.79
617.557	1159.4
617.609	1163.84
617.661	1169.01
617.712	1167.68
617.764	1151.9
617.816	1184.45
617.868	1154.8
617.92	1179.77
617.972	1175.11
618.023	1163.26
618.075	1182.47
618.127	1176.46
618.179	1195.02
618.231	1188.49
618.282	1194.48
618.334	1213.09
618.386	1207.62
618.438	1208.24
618.49	1179.82
618.542	1194.76
618.593	1194.82
618.645	1215.89
618.697	1221.58
618.749	1225.71
618.801	1217.5
618.852	1203.28
618.904	1209.77
618.956	1211.68
619.008	1210.81
619.06	1230.58
619.111	1224.38
619.163	1243.94
619.215	1234.82
619.267	1223.56
619.319	1217.78
619.37	1237.14
619.422	1240.98
619.474	1206.84
619.526	1253.88
619.578	1259.36
619.63	1253.1
619.681	1251.25
619.733	1254.4
619.785	1228.42
619.837	1241.73
619.888	1241.62
619.94	1235.76
619.992	1263.35
620.044	1253.97
620.096	1244.79
620.147	1225.09
620.199	1238.87
620.251	1268.21
620.303	1241.46
620.355	1221.81
620.406	1254.49
620.458	1276.41
620.51	1243.52
620.562	1250.52
620.614	1268.49
620.665	1282.81
620.717	1285.59
620.769	1288.36
620.821	1231.6
620.873	1280.44
620.924	1275.04
620.976	1254.25
621.028	1261.94
621.08	1269.05
621.132	1275.4
621.183	1278.93
621.235	1311.22
621.287	1254.06
621.339	1255.29
621.39	1272.69
621.442	1285.8
621.494	1247.65
621.546	1260.3
621.598	1292.03
621.649	1276.21
621.701	1272.54
621.753	1305.69
621.805	1285.61
621.856	1310.66
621.908	1305.19
621.96	1279.76
622.012	1270.71
622.064	1271.91
622.115	1305.07
622.167	1263.73
622.219	1294.25
622.271	1286.82
622.322	1302.46
622.374	1308.02
622.426	1298.5
622.478	1271.46
622.53	1305.81
622.581	1324.76
622.633	1291.49
622.685	1302.48
622.737	1297.4
622.788	1309.94
622.84	1293.56
622.892	1264.05
622.944	1312.07
622.995	1319.63
623.047	1298.17
623.099	1326.25
623.151	1299.54
623.203	1304.96
623.254	1318.06
623.306	1290.4
623.358	1303.5
623.41	1303.29
623.461	1305.42
623.513	1328.33
623.565	1323.62
623.617	1287.57
623.668	1334.3
623.72	1352.25
623.772	1312.26
623.824	1337.49
623.875	1336.52
623.927	1322.75
623.979	1317.98
624.031	1327.77
624.082	1322.04
624.134	1342.41
624.186	1321.49
624.238	1334.08
624.289	1310.48
624.341	1327.08
624.393	1332.35
624.445	1305.69
624.496	1345.15
624.548	1324.19
624.6	1318.5
624.652	1317.83
624.703	1306.84
624.755	1313.61
624.807	1326.38
624.859	1299.09
624.91	1331.17
624.962	1321.66
625.014	1352.9
625.066	1342.48
625.117	1351.75
625.169	1319.08
625.221	1345.53
625.273	1353.09
625.324	1342.61
625.376	1312.49
625.428	1339.44
625.48	1319.18
625.531	1342.55
625.583	1342.67
625.635	1344.55
625.687	1334.24
625.738	1317.95
625.79	1352.55
625.842	1352.93
625.893	1352.48
625.945	1338.96
625.997	1378.68
626.049	1379.73
626.1	1357.92
626.152	1382.88
626.204	1396.4
626.256	1369.66
626.307	1363.96
626.316	1363.93
626.368	1369.76
626.42	1371.7
626.472	1389.13
626.523	1387.31
626.575	1347.37
626.627	1369.2
626.679	1408.05
626.731	1416.38
626.783	1385.19
626.835	1367.33
626.887	1403.91
626.938	1395.32
626.99	1402.29
627.042	1384.78
627.094	1371.05
627.146	1370.65
627.198	1404.27
627.25	1349.57
627.302	1393.97
627.353	1401.63
627.405	1390.59
627.457	1388.58
627.509	1412.11
627.561	1377.49
627.613	1403.73
627.665	1422.1
627.716	1378.17
627.768	1403.69
627.82	1436.18
627.872	1411.07
627.924	1416.65
627.976	1407.26
628.028	1451.25
628.079	1403.81
628.131	1393.6
628.183	1378.79
628.235	1434.25
628.287	1444.44
628.339	1389.76
628.391	1421.11
628.443	1399.2
628.494	1419.41
628.546	1423.74
628.598	1430.41
628.65	1407.99
628.702	1421.77
628.754	1419.46
628.805	1446.41
628.857	1457.86
628.909	1415.42
628.961	1463.49
629.013	1457.54
629.065	1462.34
629.117	1437.23
629.168	1438.73
629.22	1447.75
629.272	1440.63
629.324	1410.6
629.376	1468.07
629.428	1434.53
629.479	1445.99
629.531	1452.27
629.583	1462.48
629.635	1484.26
629.687	1433.99
629.739	1479.25
629.791	1434.69
629.842	1436.86
629.894	1469.64
629.946	1473.79
629.998	1461.91
630.05	1448.11
630.102	1479.43
630.153	1478.39
630.205	1492.62
630.257	1482.83
630.309	1479.25
630.361	1434.16
630.413	1496.46
630.464	1486.28
630.516	1494.01
630.568	1490.61
630.62	1507.87
630.672	1526.58
630.724	1481.82
630.776	1514.09
630.827	1480.9
630.879	1499.69
630.931	1518.47
630.983	1544.84
631.035	1499.29
631.086	1515.75
631.138	1541.93
631.19	1518.9
631.242	1547.74
631.294	1507.79
631.346	1529.68
631.397	1543.88
631.449	1537.29
631.501	1559.13
631.553	1512.67
631.605	1542.29
631.657	1553.02
631.708	1541.33
631.76	1543.24
631.812	1543.43
631.864	1578.13
631.916	1544.41
631.967	1546.66
632.019	1528.1
632.071	1531.43
632.123	1552.91
632.175	1571.31
632.227	1526.17
632.278	1523.4
632.33	1580.7
632.382	1613.02
632.434	1564.75
632.486	1565.62
632.537	1573.48
632.589	1559.92
632.641	1598.1
632.693	1569.29
632.745	1586.34
632.797	1542.46
632.848	1547.74
632.9	1568.19
632.952	1571.34
633.004	1597.58
633.056	1607.17
633.107	1599.32
633.159	1590.05
633.211	1619.16
633.263	1562.73
633.315	1626.76
633.366	1635.82
633.418	1607.49
633.47	1607.84
633.522	1624.62
633.574	1630.02
633.625	1623.07
633.677	1592.84
633.729	1647.45
633.781	1642.13
633.833	1655.39
633.885	1659.91
633.936	1685.98
633.988	1673.07
634.04	1649.81
634.092	1670.56
634.143	1629
634.195	1668.61
634.247	1674.68
634.299	1673.76
634.351	1697.76
634.403	1676.84
634.454	1694.47
634.506	1679.24
634.558	1694.25
634.61	1730.88
634.661	1672.9
634.713	1698.82
634.765	1698.96
634.817	1707.9
634.869	1712.25
634.92	1737.83
634.972	1719.19
635.024	1741.16
635.076	1727.12
635.128	1738.65
635.179	1737.25
635.231	1746.39
635.283	1740.84
635.335	1780.21
635.387	1742.76
635.438	1774.65
635.49	1793.01
635.542	1786.27
635.594	1795.75
635.645	1808.95
635.697	1816.62
635.749	1819.88
635.801	1817.78
635.853	1835.17
635.904	1860.7
635.956	1866.93
636.008	1886.63
636.06	1890.98
636.112	1890.19
636.163	1918.95
636.215	1920.59
636.267	1914.75
636.319	1922.09
636.37	1962.8
636.422	1970.88
636.474	1956.92
636.526	2023.98
636.577	1998.77
636.629	2008.68
636.681	2047.45
636.733	2050.9
636.785	2075.29
636.836	2112.18
636.888	2095.93
636.94	2164.92
636.992	2136.26
637.043	2146.67
637.095	2189.03
637.147	2234
637.199	2256.6
637.25	2264.45
637.302	2294.86
637.354	2313.14
637.406	2336.31
637.458	2381.74
637.509	2406
637.561	2467.26
637.613	2465.6
637.665	2447.66
637.716	2491.08
637.768	2520.52
637.82	2534.4
637.872	2566.95
637.923	2561.62
637.975	2628.34
638.027	2619.57
638.079	2633.36
638.13	2648.22
638.182	2616.52
638.234	2605.32
638.286	2614.35
638.337	2620.7
638.389	2622.29
638.441	2570.33
638.493	2563.56
638.544	2567.82
638.596	2555.52
638.648	2580.67
638.7	2561.18
638.752	2523.81
638.803	2520.1
638.855	2499
638.907	2493.49
638.958	2470.36
639.01	2448.51
639.062	2442.97
639.114	2443.44
639.165	2411.27
639.217	2400.98
639.269	2382
639.321	2368.35
639.372	2358
639.424	2333.81
639.476	2321.32
639.528	2290.78
639.579	2289.5
639.631	2289.43
639.683	2299.53
639.735	2292.43
639.786	2257.82
639.838	2244.71
639.89	2247.78
639.942	2181.65
639.993	2230.74
640.045	2198.73
640.097	2194.26
640.149	2214.37
640.2	2195.65
640.252	2170.26
640.304	2154.68
640.356	2153.21
640.407	2151.59
640.459	2141.66
640.511	2152.1
640.562	2143.9
640.614	2115.12
640.666	2129.21
640.718	2152.81
640.769	2140.19
640.821	2160
640.873	2133.9
640.925	2145.45
640.976	2115.36
641.028	2095.67
641.08	2095.06
641.131	2112.5
641.183	2110
641.235	2120.1
641.287	2100.46
641.338	2099.12
641.39	2093.35
641.442	2078.55
641.494	2086.6
641.545	2097.92
641.597	2083.5
641.649	2122.05
641.7	2135.22
641.752	2087.15
641.804	2071.3
641.856	2106.99
641.907	2068.91
641.959	2060.52
642.011	2043.71
642.063	2083.77
642.114	2088.57
642.166	2087.18
642.218	2092.11
642.269	2083.22
642.321	2075.55
642.373	2084.55
642.424	2095.18
642.476	2086.2
642.528	2086.1
642.58	2090.19
642.631	2099.85
642.683	2086.62
642.735	2079.68
642.786	2049.22
642.838	2125.07
642.89	2102.54
642.942	2103.67
642.993	2092.25
643.045	2081.63
643.097	2070.04
643.148	2098.56
643.2	2107.32
643.252	2104.84
643.304	2103.4
643.355	2084.69
643.407	2105.87
643.459	2134.55
643.51	2142.45
643.562	2122.66
643.614	2097.21
643.665	2109.62
643.717	2131.23
643.769	2127.13
643.82	2115.5
643.872	2110.59
643.924	2128.78
643.976	2151.74
644.027	2136.95
644.079	2140.53
644.131	2112.32
644.182	2121.13
644.234	2130.2
644.286	2145.3
644.337	2125.74
644.389	2145.29
644.441	2135.95
644.493	2160.14
644.544	2143.51
644.596	2154.65
644.648	2119.02
644.699	2120.84
644.751	2130.74
644.803	2170.01
644.854	2151.81
644.906	2189.32
644.958	2172.6
645.009	2131.94
645.061	2150.9
645.113	2185.97
645.164	2187.31
645.216	2149.48
645.268	2167.29
645.32	2182.81
645.371	2161.88
645.423	2182.28
645.475	2187.79
645.526	2212.55
645.578	2172.21
645.63	2183.79
645.681	2168.06
645.733	2146.77
645.785	2168.3
645.836	2198.41
645.888	2190.12
645.94	2187.12
645.991	2205.35
646.043	2189.79
646.095	2153.01
646.146	2181.65
646.198	2207.31
646.25	2218.43
646.301	2187.54
646.353	2176.28
646.405	2218.13
646.456	2172.63
646.508	2225.26
646.56	2218.96
646.611	2199.44
646.663	2230.45
646.715	2213.67
646.766	2170.51
646.818	2208.65
646.87	2191.87
646.921	2257.44
646.973	2191.37
647.025	2227.24
647.076	2220.23
647.128	2188.17
647.18	2277.14
647.231	2221.17
647.283	2273.96
647.335	2233.29
647.386	2227.66
647.438	2259.37
647.49	2246.59
647.541	2282.74
647.593	2261.69
647.645	2258.52
647.696	2262.35
647.748	2259.48
647.8	2234.1
647.851	2261.69
647.903	2278.7
647.955	2256.03
648.006	2262.89
648.058	2198.68
648.109	2275.73
648.161	2274.62
648.213	2259.56
648.264	2278.36
648.316	2253.36
648.368	2278.7
648.419	2316.85
648.471	2320.82
648.523	2292.37
648.574	2308.23
648.626	2358.53
648.678	2296.69
648.729	2301.79
648.781	2286.69
648.833	2317.35
648.884	2347.55
648.936	2270.26
648.987	2276.61
649.039	2349.64
649.091	2330.18
649.142	2293.87
649.194	2333.61
649.246	2357.13
649.297	2341.23
649.349	2359.09
649.401	2319.22
649.452	2382.44
649.504	2344.9
649.555	2354.42
649.607	2397.7
649.659	2367.2
649.71	2383.09
649.762	2397.88
649.814	2408.24
649.865	2417.95
649.917	2373.9
649.969	2414.67
650.02	2382.44
650.072	2378.9
650.123	2391.27
650.175	2403.81
650.227	2407.97
650.278	2449.24
650.33	2443.27
650.382	2414.42
650.433	2409.77
650.485	2401.38
650.536	2411.46
650.588	2382.38
650.64	2419.98
650.691	2432.25
650.743	2474.26
650.795	2441.43
650.846	2447.97
650.898	2470.53
650.949	2462.21
651.001	2454.01
651.053	2464.66
651.104	2472.01
651.156	2455.19
651.208	2464.53
651.259	2456.69
651.311	2472.32
651.362	2466.9
651.414	2518.72
651.466	2473.15
651.517	2472.82
651.569	2499.63
651.62	2489.65
651.672	2475.31
651.724	2488.84
651.775	2480.58
651.827	2496.11
651.878	2545.14
651.93	2494.05
651.982	2490.53
652.033	2484.66
652.085	2515.65
652.137	2496.12
652.188	2488.87
652.24	2496.81
652.291	2518.87
652.343	2527.59
652.395	2509.29
652.446	2510.42
652.498	2524.55
652.549	2531.58
652.601	2539.34
652.653	2540.77
652.704	2558.06
652.756	2606.8
652.772	2625.41
652.824	2597.57
652.876	2585.86
652.927	2639.2
652.979	2532.28
653.031	2577.96
653.083	2573.72
653.134	2564.83
653.186	2596.8
653.238	2610.49
653.29	2629.48
653.341	2580.98
653.393	2604.98
653.445	2623.73
653.497	2576.92
653.548	2661.77
653.6	2630.7
653.652	2614.84
653.704	2596.8
653.755	2650.26
653.807	2676.04
653.859	2642.96
653.91	2687.17
653.962	2685.79
654.014	2672.32
654.066	2641.19
654.117	2656.59
654.169	2642.25
654.221	2672.89
654.273	2741.91
654.324	2685.31
654.376	2719.13
654.428	2723.76
654.48	2720.42
654.531	2685.83
654.583	2708.9
654.635	2724.32
654.686	2735.31
654.738	2666.65
654.79	2797.13
654.842	2765.55
654.893	2755.59
654.945	2790.64
654.997	2794.93
655.049	2758.72
655.1	2752.64
655.152	2727.77
655.204	2764.22
655.255	2780.23
655.307	2808.44
655.359	2791.63
655.411	2844.55
655.462	2826.3
655.514	2839.18
655.566	2829.83
655.618	2807.56
655.669	2821.16
655.721	2875.97
655.773	2856.47
655.824	2844.28
655.876	2842.86
655.928	2896.33
655.98	2868.27
656.031	2872.61
656.083	2925.74
656.135	2919.89
656.186	2884.03
656.238	2910.49
656.29	2951.35
656.342	2943.35
656.393	2932.81
656.445	2955.1
656.497	2968.42
656.548	2878.77
656.6	2995.85
656.652	2991.28
656.704	2988.94
656.755	2961.82
656.807	2986.08
656.859	3014.01
656.91	2962.72
656.962	3016.09
657.014	3012.36
657.065	2966.22
657.117	2963.93
657.169	3059.39
657.221	3038
657.272	2955.87
657.324	2998.28
657.376	3048.58
657.427	3067.87
657.479	3023.55
657.531	3079.89
657.583	3064.59
657.634	3046.53
657.686	3068.35
657.738	3064.26
657.789	3081.76
657.841	3096.17
657.893	3095.39
657.944	3075.82
657.996	3104.24
658.048	3136.67
658.099	3122.08
658.151	3156.46
658.203	3155.57
658.255	3118.24
658.306	3080.1
658.358	3091.01
658.41	3154.96
658.461	3124.78
658.513	3117.84
658.565	3131.24
658.616	3155.42
658.668	3113.18
658.72	3181.43
658.771	3140.6
658.823	3185.53
658.875	3074.51
658.927	3192.36
658.978	3126.05
659.03	3198.58
659.082	3147.26
659.133	3162.41
659.185	3152.65
659.237	3159.03
659.288	3104.22
659.34	3181.03
659.392	3197.34
659.443	3180.41
659.495	3201.25
659.547	3220.17
659.598	3185.29
659.65	3202.38
659.702	3200.32
659.753	3235.52
659.805	3204.46
659.857	3226.41
659.909	3222.11
659.96	3210.24
660.012	3198.81
660.064	3175.18
660.115	3181.88
660.167	3216.94
660.219	3178.87
660.27	3233.55
660.322	3141.6
660.374	3227.35
660.425	3222.23
660.477	3226.84
660.529	3158.26
660.58	3178.22
660.632	3241.85
660.684	3204.57
660.735	3223.32
660.787	3220.44
660.839	3243.93
660.89	3195.46
660.942	3214.66
660.994	3192.62
661.045	3191.09
661.097	3242.52
661.149	3212.33
661.2	3218.66
661.252	3159.6
661.304	3254.35
661.355	3209.92
661.407	3226.55
661.459	3220.74
661.51	3189.75
661.562	3209.93
661.614	3209.03
661.665	3219.85
661.717	3218.87
661.768	3206
661.82	3221.83
661.872	3219.14
661.923	3196.73
661.975	3186.98
662.027	3208.05
662.078	3253.46
662.13	3240.19
662.182	3226.73
662.233	3247.85
662.285	3232.99
662.337	3208.72
662.388	3236
662.44	3223.48
662.492	3216.45
662.543	3184.68
662.595	3159.02
662.647	3236.18
662.698	3186.77
662.75	3192.89
662.802	3227.17
662.853	3257.27
662.905	3229.48
662.956	3249.15
663.008	3227.09
663.06	3200.32
663.111	3218.03
663.163	3231.41
663.215	3201.5
663.266	3219.32
663.318	3200.47
663.37	3197.9
663.421	3206.77
663.473	3237.69
663.525	3225.96
663.576	3194.26
663.628	3148.58
663.679	3213.22
663.731	3211.42
663.783	3194.74
663.834	3226.12
663.886	3229.39
663.938	3222.74
663.989	3235.77
664.041	3219.97
664.093	3274.28
664.144	3267.53
664.196	3173.1
664.247	3240.84
664.299	3194.92
664.351	3214.65
664.402	3186.65
664.454	3214.68
664.506	3254.15
664.557	3215.21
664.609	3189.39
664.66	3217.2
664.712	3218.57
664.764	3185.73
664.815	3175.16
664.867	3203.65
664.919	3226.14
664.97	3153.14
665.022	3207.91
665.073	3262.57
665.125	3205.57
665.177	3213.38
665.228	3211.74
665.28	3204.59
665.332	3179.82
665.383	3189.14
665.435	3224.95
665.486	3196.6
665.538	3191.27
665.59	3210.55
665.641	3225.08
665.693	3232.5
665.745	3242.24
665.796	3251.74
665.848	3244.82
665.899	3206.25
665.951	3228.96
666.003	3206.08
666.054	3196.41
666.106	3240.51
666.157	3209.75
666.209	3190.47
666.261	3220.47
666.312	3217.5
666.364	3239.39
666.415	3234.96
666.467	3207.96
666.519	3188.9
666.57	3173.55
666.622	3206.75
666.673	3227.76
666.725	3203.42
666.777	3220.82
666.828	3183.86
666.88	3197.74
666.931	3206.68
666.983	3233.65
667.035	3211.75
667.086	3235.15
667.138	3225.08
667.189	3188.33
667.241	3179.01
667.293	3204.92
667.344	3196.67
667.396	3198.2
667.447	3181.65
667.499	3159.18
667.551	3184.14
667.602	3214.16
667.654	3176.82
667.705	3188.04
667.757	3186.57
667.809	3205
667.86	3208.08
667.912	3203.63
667.963	3193.62
668.015	3209.87
668.067	3206.57
668.118	3193.02
668.17	3232.09
668.221	3184.68
668.273	3193.3
668.325	3210.42
668.376	3169.1
668.428	3145.84
668.479	3203.04
668.531	3242.02
668.582	3228.65
668.634	3173.31
668.686	3175.89
668.737	3218.71
668.789	3188.6
668.84	3207.3
668.892	3185.59
668.944	3194.88
668.995	3222.26
669.047	3175.76
669.098	3232.18
669.15	3189.3
669.201	3208.23
669.253	3180.61
669.305	3180.51
669.356	3226.32
669.408	3203.26
669.459	3207.29
669.511	3160.94
669.562	3161.51
669.614	3185.24
669.666	3187.52
669.717	3166.23
669.769	3217.77
669.82	3223.4
669.872	3209.88
669.923	3187.09
669.975	3214.8
670.027	3236.21
670.078	3234.07
670.13	3252.11
670.181	3176.66
670.233	3217.45
670.284	3244.66
670.336	3239.48
670.388	3214.85
670.439	3259.08
670.491	3203.27
670.542	3271.48
670.594	3212.98
670.645	3237.22
670.697	3212.3
670.748	3213.06
670.8	3223.88
670.852	3229.73
670.903	3158.94
670.955	3213
671.006	3214.62
671.058	3203.44
671.109	3228.82
671.161	3220.06
671.212	3199.89
671.264	3216.66
671.316	3155.14
671.367	3190.98
671.419	3225.17
671.47	3219.29
671.522	3189.56
671.573	3224.01
671.625	3208.48
671.676	3235.7
671.728	3240.12
671.78	3218.77
671.831	3207.59
671.883	3236.93
671.934	3224.99
671.986	3198.11
672.037	3194.5
672.089	3208.1
672.14	3229.48
672.192	3242.42
672.243	3260.3
672.295	3194.64
672.347	3259.55
672.398	3255.77
672.45	3253.74
672.501	3217.58
672.553	3238.33
672.604	3244.6
672.656	3273.21
672.707	3258.35
672.759	3267.09
672.81	3256.8
672.862	3241.71
672.913	3255.72
672.965	3239.81
673.017	3254.39
673.068	3249.5
673.12	3246.03
673.171	3269.06
673.223	3287.54
673.274	3258.56
673.326	3278.41
673.377	3279.45
673.429	3312.13
673.48	3306.97
673.532	3312.87
673.583	3315.22
673.635	3293.09
673.686	3293.68
673.738	3331.62
673.789	3306.04
673.841	3311.53
673.893	3319.27
673.944	3322.1
673.996	3321.19
674.047	3288.78
674.099	3327.25
674.15	3315.86
674.202	3304.01
674.253	3322.06
674.305	3300.88
674.356	3325.97
674.408	3347.99
674.459	3326.59
674.511	3351.87
674.562	3343.86
674.614	3341.56
674.665	3369.88
674.717	3390.33
674.768	3402.66
674.82	3402.24
674.871	3382.45
674.923	3410.49
674.974	3395.6
675.026	3394.73
675.077	3392.44
675.129	3394.52
675.18	3409.46
675.232	3398.3
675.284	3407.79
675.335	3423.98
675.387	3411.53
675.438	3440.53
675.49	3416.26
675.541	3404.38
675.593	3394.8
675.644	3423.61
675.696	3453.88
675.747	3452.33
675.799	3461.38
675.85	3441.66
675.902	3421.81
675.953	3418.79
676.005	3406.43
676.056	3448.41
676.108	3437.32
676.159	3416.21
676.211	3401.96
676.262	3432.57
676.314	3446.83
676.365	3438.23
676.417	3412.85
676.468	3429.59
676.52	3450.02
676.571	3468.16
676.623	3446.99
676.674	3434.24
676.726	3455.2
676.777	3465.15
676.828	3481.96
676.88	3460.52
676.932	3456.36
676.983	3448.92
677.034	3458.1
677.086	3464.25
677.137	3451.68
677.189	3430.52
677.24	3451.53
677.292	3475.04
677.343	3448.58
677.395	3448.97
677.446	3452.74
677.498	3448.37
677.549	3418.66
677.601	3427.08
677.652	3455.48
677.704	3456.38
677.755	3437.2
677.807	3455.37
677.858	3470.68
677.91	3482.59
677.961	3469.9
678.013	3467.51
678.064	3507.43
678.116	3496.53
678.167	3488.9
678.219	3460.82
678.27	3429.36
678.322	3443.7
678.373	3459.21
678.424	3459.32
678.476	3444.79
678.527	3454.8
678.579	3481.48
678.63	3477.79
678.682	3458.49
678.733	3449.29
678.785	3458.49
678.836	3459.1
678.888	3460.81
678.939	3463.86
678.991	3470.9
679.042	3470.87
679.094	3464.58
679.122	3482.13
679.173	3446.51
679.225	3440.59
679.277	3496.17
679.328	3515.7
679.38	3430.79
679.432	3513.74
679.483	3457.63
679.535	3476.51
679.586	3459.76
679.638	3522.79
679.69	3451.97
679.741	3481.26
679.793	3455.01
679.844	3437.82
679.896	3449.04
679.948	3499.56
679.999	3356.59
680.051	3510.61
680.103	3501.31
680.154	3503.94
680.206	3514.69
680.257	3495.45
680.309	3519.75
680.361	3465.17
680.412	3521.6
680.464	3561.47
680.515	3482.4
680.567	3458.58
680.619	3549
680.67	3528.91
680.722	3560.12
680.773	3522.1
680.825	3490.96
680.877	3520.64
680.928	3537.49
680.98	3550.48
681.031	3506.44
681.083	3545.66
681.135	3551.24
681.186	3532.71
681.238	3583.63
681.289	3594.44
681.341	3563.68
681.393	3587.24
681.444	3563.42
681.496	3580.35
681.547	3537.28
681.599	3541.04
681.651	3492.96
681.702	3577
681.754	3498.37
681.805	3601.24
681.857	3593.05
681.909	3545.37
681.96	3544.71
682.012	3589.31
682.063	3602.86
682.115	3587.03
682.166	3558.61
682.218	3517.69
682.27	3563.82
682.321	3576.91
682.373	3515.8
682.424	3519.82
682.476	3555.59
682.528	3624.97
682.579	3628.08
682.631	3608.76
682.682	3581.33
682.734	3598.3
682.785	3596.28
682.837	3626.4
682.889	3669.66
682.94	3632.53
682.992	3548.34
683.043	3613.44
683.095	3625.08
683.146	3614
683.198	3623.12
683.25	3579.89
683.301	3626.49
683.353	3588.48
683.404	3612.16
683.456	3598.79
683.508	3633.56
683.559	3660.41
683.611	3614.47
683.662	3616.03
683.714	3598.75
683.765	3585.79
683.817	3607.81
683.869	3545.31
683.92	3648.23
683.972	3567.46
684.023	3617.76
684.075	3578.37
684.126	3609.48
684.178	3584.66
684.229	3622.67
684.281	3586.9
684.333	3612.19
684.384	3555.64
684.436	3631.36
684.487	3599.55
684.539	3608.49
684.59	3597.75
684.642	3608.85
684.694	3574.76
684.745	3610.81
684.797	3597.66
684.848	3619.47
684.9	3580.81
684.951	3534.75
685.003	3548.11
685.055	3639.87
685.106	3601.51
685.158	3586.8
685.209	3558.61
685.261	3559.58
685.312	3533.17
685.364	3552.92
685.415	3574.01
685.467	3550.66
685.518	3573.14
685.57	3511.59
685.622	3522.47
685.673	3558.24
685.725	3534.13
685.776	3585.66
685.828	3536.12
685.879	3545.16
685.931	3521.07
685.982	3552.27
686.034	3529.94
686.086	3553.35
686.137	3583.57
686.189	3583.26
686.24	3519.48
686.292	3547.07
686.343	3567.77
686.395	3559.89
686.446	3543.51
686.498	3479.24
686.549	3530.12
686.601	3530.53
686.652	3559.49
686.704	3560.01
686.756	3522.39
686.807	3479.36
686.859	3555.42
686.91	3521.49
686.962	3524.52
687.013	3508.37
687.065	3549.22
687.116	3524.7
687.168	3552.49
687.219	3515.86
687.271	3529.04
687.322	3521.7
687.374	3525.07
687.426	3540.82
687.477	3532.42
687.529	3487.62
687.58	3480.81
687.632	3541.44
687.683	3477.92
687.735	3534.14
687.786	3513.23
687.838	3502.72
687.889	3521.37
687.941	3558.18
687.992	3536.54
688.044	3530.57
688.095	3551.8
688.147	3519.42
688.198	3509.04
688.25	3543.54
688.302	3515.89
688.353	3474.66
688.405	3540.57
688.456	3488.49
688.508	3531.05
688.559	3525.67
688.611	3517.34
688.662	3527.33
688.714	3525.96
688.765	3515.4
688.817	3530.98
688.868	3542.5
688.92	3512.99
688.971	3542.27
689.023	3522.43
689.074	3473.2
689.126	3504.69
689.177	3496.5
689.229	3544.71
689.28	3523.83
689.332	3554.71
689.383	3522.32
689.435	3506.62
689.486	3528.8
689.538	3498.72
689.589	3475.59
689.641	3478.19
689.692	3535.57
689.744	3516.34
689.795	3515.17
689.847	3538.16
689.898	3535.48
689.95	3522.88
690.001	3479.53
690.053	3502.73
690.104	3515.64
690.156	3508.39
690.207	3499.99
690.259	3502.75
690.31	3471.34
690.362	3505.32
690.413	3508.23
690.465	3499.53
690.516	3472.97
690.568	3459.41
690.619	3454.28
690.671	3523.59
690.722	3472.34
690.774	3461.67
690.825	3462.95
690.877	3453.87
690.928	3508.29
690.98	3446.69
691.031	3461.36
691.083	3469.88
691.134	3437.48
691.186	3468.46
691.237	3451.23
691.289	3463.18
691.34	3474.91
691.392	3461.02
691.443	3466.78
691.495	3454.32
691.546	3467.98
691.598	3509.57
691.649	3440.66
691.701	3408.24
691.752	3475.28
691.804	3441.77
691.855	3399.42
691.907	3448.89
691.958	3413.49
692.01	3443.95
692.061	3444.36
692.113	3433.49
692.164	3410.54
692.216	3384.44
692.267	3425.63
692.319	3382.4
692.37	3398
692.421	3429.57
692.473	3393.48
692.524	3424.2
692.576	3374.3
692.627	3414.65
692.679	3408.31
692.73	3424.71
692.782	3384.58
692.833	3392.07
692.885	3420.23
692.936	3408.33
692.988	3413.44
693.039	3407.17
693.091	3423.54
693.142	3356.38
693.194	3375.66
693.245	3397.23
693.297	3387.3
693.348	3392.97
693.399	3390.55
693.451	3392.78
693.502	3353.38
693.554	3387.36
693.605	3367.92
693.657	3377.24
693.708	3373.76
693.76	3383.77
693.811	3362.67
693.863	3385.87
693.914	3378.43
693.966	3357.68
694.017	3395.11
694.068	3378.78
694.12	3404.85
694.171	3379.47
694.223	3384.94
694.274	3398.72
694.326	3371.09
694.377	3319.45
694.429	3350.73
694.48	3340.99
694.532	3395.35
694.583	3355.44
694.634	3365.21
694.686	3392.5
694.737	3382.33
694.789	3353.48
694.84	3335.56
694.892	3342.43
694.943	3341.38
694.995	3352.82
695.046	3338.67
695.097	3397.63
695.149	3376.17
695.2	3363.25
695.252	3359.34
695.303	3274.04
695.355	3368.23
695.406	3352.18
695.458	3359.34
695.509	3313.96
695.56	3340.93
695.612	3392.56
695.663	3316.93
695.715	3333.57
695.766	3331.24
695.818	3330.74
695.869	3335.49
695.921	3347.19
695.972	3344.23
696.023	3329.03
696.075	3318.6
696.126	3340.53
696.178	3373.67
696.229	3307.7
696.281	3271.14
696.332	3337.06
696.383	3296.6
696.435	3313.99
696.486	3322.25
696.538	3277.47
696.589	3299.45
696.641	3334.61
696.692	3334.79
696.744	3316.61
696.795	3300.62
696.846	3344.51
696.898	3334.95
696.949	3319.47
697.001	3314.85
697.052	3284.83
697.104	3285.25
697.155	3309.17
697.206	3270.27
697.258	3292.51
697.309	3262.16
697.361	3288.63
697.412	3225.79
697.463	3278.15
697.515	3252.7
697.566	3216.95
697.618	3227.86
697.669	3264.26
697.721	3284.75
697.772	3234.91
697.823	3239.87
697.875	3216.31
697.926	3247.47
697.978	3256.28
698.029	3243.42
698.08	3203.86
698.132	3233.31
698.183	3188.59
698.235	3225.22
698.286	3185.13
698.338	3183.78
698.389	3210.68
698.44	3169.98
698.492	3214.37
698.543	3175.75
698.595	3176.02
698.646	3218.67
698.697	3246.38
698.749	3155.54
698.8	3153.96
698.852	3209.96
698.903	3197.41
698.954	3232.9
699.006	3176.33
699.057	3157.12
699.109	3168.16
699.16	3211.75
699.211	3219.74
699.263	3207.14
699.314	3189.71
699.366	3185.93
699.417	3204.01
699.468	3172.91
699.52	3172.73
699.571	3185.01
699.623	3216.18
699.674	3187.91
699.725	3172.47
699.777	3221.32
699.828	3186.51
699.88	3199.02
699.931	3168.51
699.982	3148.3
700.034	3158.72
700.085	3147.22
700.137	3163.09
700.188	3159.72
700.239	3162.9
700.291	3199.85
700.342	3184.97
700.393	3182
700.445	3165.92
700.496	3155.75
700.548	3156.45
700.599	3194.17
700.65	3193.87
700.702	3146.91
700.753	3154.49
700.805	3148.48
700.856	3165.01
700.907	3175.17
700.959	3166.93
701.01	3132.49
701.061	3147.13
701.113	3161.52
701.164	3174.96
701.216	3167.94
701.267	3155.06
701.318	3159.93
701.37	3171.38
701.421	3149.14
701.472	3166.27
701.524	3159.38
701.575	3200.11
701.627	3187.14
701.678	3191.84
701.729	3185.65
701.781	3167.89
701.832	3164.63
701.883	3156.56
701.935	3146.96
701.986	3140.91
702.038	3175.47
702.089	3183.98
702.14	3194.33
702.192	3181.93
702.243	3143.57
702.294	3170.11
702.346	3173.64
702.397	3123.82
702.448	3153.79
702.5	3157.85
702.551	3154.7
702.603	3115.69
702.654	3145.99
702.705	3179.12
702.757	3175.53
702.808	3151.16
702.859	3159.77
702.911	3171.96
702.962	3129.31
703.013	3147.45
703.065	3189.53
703.116	3161.08
703.167	3137.37
703.219	3152.79
703.27	3146.89
703.322	3110.6
703.373	3134.42
703.424	3156.4
703.476	3157.38
703.527	3162.49
703.578	3146.3
703.63	3150.56
703.681	3159.65
703.732	3156.71
703.784	3151.95
703.835	3124.13
703.886	3119.2
703.938	3137.95
703.989	3157.56
704.04	3128.82
704.092	3121.95
704.143	3109.14
704.194	3108.82
704.246	3118.06
704.297	3092.6
704.348	3089.65
704.4	3097.47
704.451	3103.15
704.503	3138.86
704.554	3137.98
704.605	3143.31
704.656	3116.32
704.708	3123.63
704.759	3150.23
704.81	3148.18
704.862	3101.34
704.913	3099.62
704.964	3075.31
705.016	3078.97
705.067	3089.47
705.119	3102.74
705.17	3135.93
705.221	3135.5
705.273	3137.68
705.324	3098.68
705.375	3091
705.408	3040
705.459	3020
705.511	3084.05
705.562	3074.17
705.614	3056.29
705.665	3084.13
705.717	3050.49
705.768	3090.16
705.82	3062.56
705.871	3050.67
705.923	3107.7
705.974	2981.67
706.026	3075.92
706.077	3047.1
706.129	3012.71
706.18	3055.4
706.232	3059.68
706.283	3042.45
706.335	3043.26
706.386	2990.38
706.438	3029.85
706.489	3041.99
706.541	2970.89
706.592	3041.04
706.643	3024.81
706.695	2959.25
706.746	3002.8
706.798	2999.74
706.849	3007.51
706.901	3002.25
706.952	2958.47
707.004	3001.2
707.055	3031.79
707.107	3010.13
707.158	3011.66
707.21	2996.78
707.261	3002.88
707.313	2968.6
707.364	2989.79
707.416	3015.31
707.467	2965.77
707.518	2995.45
707.57	2992.7
707.621	3012.35
707.673	2986.15
707.724	2967.55
707.776	2953.03
707.827	2998.7
707.879	2978.34
707.93	2997.55
707.982	2973.91
708.033	2956.98
708.084	2975.44
708.136	2977.09
708.187	2967.01
708.239	2906.15
708.29	2966.11
708.342	2987.59
708.393	2992.89
708.445	2935.48
708.496	2918.48
708.548	2963.54
708.599	2962.12
708.651	2914.04
708.702	2940.29
708.753	2937.49
708.805	2927.11
708.856	2929.42
708.908	2947.32
708.959	2926.98
709.011	2955.48
709.062	2926.92
709.114	2916.28
709.165	2878.08
709.216	2887.93
709.268	2946.68
709.319	2921.98
709.371	2921.74
709.422	2925.08
709.474	2906.78
709.525	2957.08
709.577	2922.21
709.628	2938.32
709.679	2951.15
709.731	2838.72
709.782	2882.46
709.834	2875.72
709.885	2906.71
709.937	2910.14
709.988	2940.14
710.039	2916.23
710.091	2886.82
710.142	2898.63
710.194	2894.2
710.245	2886.87
710.297	2944.74
710.348	2887.53
710.4	2883.96
710.451	2913.84
710.502	2900.13
710.554	2844.32
710.605	2890.16
710.657	2919.15
710.708	2862.98
710.76	2896.14
710.811	2918.26
710.862	2896.93
710.914	2840.49
710.965	2865.11
711.017	2894.34
711.068	2914.99
711.12	2904.93
711.171	2896.86
711.222	2831.73
711.274	2814.82
711.325	2852.55
711.377	2853.17
711.428	2862.26
711.479	2867.83
711.531	2840.48
711.582	2842.64
711.634	2809.22
711.685	2876.48
711.737	2836.76
711.788	2833.07
711.839	2868.57
711.891	2844.7
711.942	2869.39
711.994	2832.93
712.045	2882.58
712.096	2788.43
712.148	2829.83
712.199	2818.52
712.251	2799.33
712.302	2806.1
712.354	2781.95
712.405	2857.28
712.456	2771.64
712.508	2791.15
712.559	2803.72
712.611	2838.9
712.662	2807.5
712.713	2844.62
712.765	2751.62
712.816	2790.02
712.868	2773.02
712.919	2781.6
712.97	2807
713.022	2740.69
713.073	2732.69
713.125	2725.87
713.176	2763.28
713.227	2728.1
713.279	2754.1
713.33	2757.31
713.382	2790.35
713.433	2735.23
713.484	2723.27
713.536	2788.19
713.587	2758.81
713.639	2717.02
713.69	2754.54
713.741	2765.03
713.793	2721.68
713.844	2724.01
713.896	2719.06
713.947	2716.25
713.998	2691.41
714.05	2721.92
714.101	2685.88
714.153	2699.88
714.204	2743.34
714.255	2721.37
714.307	2670.78
714.358	2717.08
714.41	2697.47
714.461	2678.15
714.512	2721.55
714.564	2686.12
714.615	2672.79
714.666	2719.27
714.718	2707.66
714.769	2663.2
714.821	2680.41
714.872	2676.07
714.923	2698.29
714.975	2688.54
715.026	2666.1
715.078	2692.25
715.129	2683.71
715.18	2646
715.232	2669.46
715.283	2652.84
715.334	2646.64
715.386	2634.94
715.437	2634.72
715.489	2628.3
715.54	2637.72
715.591	2650.87
715.643	2627.1
715.694	2616.76
715.745	2643.64
715.797	2591.72
715.848	2642.41
715.9	2655.21
715.951	2658.08
716.002	2609.07
716.054	2614.72
716.105	2627.89
716.156	2618.47
716.208	2615.04
716.259	2621.27
716.31	2581.41
716.362	2597.43
716.413	2629.89
716.465	2591.33
716.516	2622.95
716.567	2633.03
716.619	2603.76
716.67	2621.32
716.721	2624.24
716.773	2630.22
716.824	2611.64
716.875	2594.03
716.927	2583.53
716.978	2559.46
717.03	2609.82
717.081	2589.32
717.132	2553.69
717.184	2602.59
717.235	2603.65
717.286	2598.38
717.338	2579.33
717.389	2600.59
717.44	2568.24
717.492	2561.88
717.543	2515.62
717.594	2585.96
717.646	2574.95
717.697	2592.15
717.749	2563.84
717.8	2564.03
717.851	2576.31
717.903	2560.29
717.954	2551.92
718.005	2537.73
718.057	2552.24
718.108	2597.63
718.159	2587
718.211	2594.43
718.262	2540.74
718.313	2537.37
718.365	2557.4
718.416	2531.23
718.467	2551.41
718.519	2525.54
718.57	2543.91
718.621	2538.51
718.673	2553
718.724	2520.6
718.775	2530.68
718.827	2498
718.878	2525.47
718.93	2535.25
718.981	2526.79
719.032	2524.63
719.083	2540.54
719.135	2534.78
719.186	2520.69
719.237	2537.8
719.289	2518.04
719.34	2558.12
719.391	2517.82
719.443	2496.32
719.494	2487.85
719.545	2506.85
719.597	2472.54
719.648	2492.65
719.699	2486.86
719.751	2478.45
719.802	2497.68
719.853	2488.41
719.905	2494.86
719.956	2467.86
720.007	2459.59
720.059	2470.56
720.11	2495.05
720.161	2464.37
720.213	2467.56
720.264	2462.41
720.315	2460.74
720.367	2456.54
720.418	2461.78
720.469	2451.13
720.521	2451.82
720.572	2451.55
720.623	2447.29
720.675	2446.13
720.726	2432.86
720.777	2423.79
720.829	2424.87
720.88	2448.02
720.931	2415.05
720.982	2412.39
721.034	2411.43
721.085	2388.81
721.136	2414.02
721.188	2422.42
721.239	2439.67
721.29	2404.9
721.342	2401.39
721.393	2378.41
721.444	2417.88
721.496	2395.89
721.547	2372.13
721.598	2415.56
721.65	2416.17
721.701	2394.18
721.752	2366.27
721.803	2361.44
721.855	2373.49
721.906	2411.08
721.957	2371.34
722.009	2395.01
722.06	2391.23
722.111	2401.72
722.163	2378.87
722.214	2379.26
722.265	2369.03
722.316	2353.89
722.368	2356.79
722.419	2369.63
722.47	2341.17
722.522	2343.69
722.573	2360.08
722.624	2336.41
722.676	2342.67
722.727	2357.02
722.778	2360.13
722.829	2358.08
722.881	2340.85
722.932	2329.24
722.983	2320.08
723.035	2327.32
723.086	2345.76
723.137	2331.06
723.188	2324.34
723.24	2339.84
723.291	2337.42
723.342	2335.79
723.394	2329.25
723.445	2313.14
723.496	2327.34
723.547	2316.97
723.599	2301.01
723.65	2308.35
723.701	2312.32
723.753	2296.98
723.804	2290.41
723.855	2298.78
723.906	2301.99
723.958	2318.44
724.009	2319.05
724.06	2317.17
724.112	2312.43
724.163	2285
724.214	2284.1
724.265	2306.36
724.317	2264.91
724.368	2277.35
724.419	2280.47
724.47	2261.91
724.522	2249.09
724.573	2269.98
724.624	2258.3
724.676	2290.35
724.727	2267.25
724.778	2273.54
724.829	2287.88
724.881	2289.36
724.932	2256.6
724.983	2270.5
725.034	2274.15
725.086	2270.71
725.137	2257.58
725.188	2276.77
725.24	2268.92
725.291	2255.03
725.342	2253.94
725.393	2250.82
725.445	2272.48
725.496	2274.71
725.547	2248.9
725.598	2241.41
725.65	2216.97
725.701	2216.23
725.752	2213.8
725.803	2242.95
725.855	2252.79
725.906	2271.26
725.957	2233.43
726.008	2224.96
726.06	2206.19
726.111	2216.6
726.162	2235.08
726.213	2229.06
726.265	2219.43
726.316	2216.2
726.367	2238.15
726.418	2247.38
726.47	2230.07
726.521	2213.15
726.572	2208.36
726.623	2213.07
726.675	2195.59
726.726	2197.99
726.777	2197.95
726.828	2165.57
726.88	2190.07
726.931	2211.88
726.982	2196.38
727.033	2183.85
727.085	2167.38
727.136	2156.42
727.187	2192.56
727.238	2205.78
727.29	2184.01
727.341	2184.64
727.392	2193.86
727.443	2184.7
727.495	2179.04
727.546	2163
727.597	2158.59
727.648	2128.5
727.7	2154.83
727.751	2184.41
727.802	2175.3
727.853	2118.95
727.904	2181.79
727.956	2136.16
728.007	2122.42
728.058	2148.6
728.109	2147.48
728.161	2087.54
728.212	2134.09
728.263	2159.28
728.314	2135.97
728.366	2140.09
728.417	2137.49
728.468	2112.71
728.519	2106.92
728.57	2105.81
728.622	2142.9
728.673	2122.83
728.724	2126.67
728.775	2114.4
728.827	2105.24
728.878	2116.04
728.929	2144.47
728.98	2103.92
729.031	2119.13
729.083	2047.19
729.134	2099.43
729.185	2082.9
729.236	2102.87
729.288	2042.9
729.339	2071.48
729.39	2077.68
729.441	2052.74
729.492	2088.16
729.544	2114.31
729.595	2042.65
729.646	2077.33
729.697	2080.72
729.748	2067.08
729.8	2082.42
729.851	2057.59
729.902	2036.51
729.953	2063.18
730.004	2071.33
730.056	2053.88
730.107	2049.41
730.158	2033.6
730.209	2035.3
730.26	2016.19
730.312	2029.56
730.363	1976
730.414	2026.8
730.465	2017.38
730.517	1973.28
730.568	1997.23
730.619	2036.34
730.67	1981.89
730.721	1991.41
730.773	2014.97
730.824	2005.99
730.875	1993
730.926	1959.38
730.977	1966.52
731.029	1998.92
731.08	1946.5
731.131	1992.98
731.182	1958.25
731.233	1969.58
731.284	1972.33
731.336	1936.39
731.387	1970.26
731.438	1958.7
731.489	1974.43
731.54	1974.32
731.592	1999.99
731.643	1964.17
731.643	1964
731.694	1976
731.746	1938
731.797	1960.06
731.848	1952.26
731.9	1950.35
731.951	1952.73
732.002	1945.02
732.054	1939.19
732.105	1869.84
732.156	1882.01
732.208	1915.67
732.259	1965.12
732.311	1929.88
732.362	1943.67
732.413	1957.56
732.465	1944.75
732.516	1935.52
732.567	1952.78
732.619	1950.6
732.67	1926.52
732.721	1939.75
732.773	1943.75
732.824	1940.49
732.875	1967.24
732.927	1929.22
732.978	1969.5
733.029	1958.61
733.081	1884.22
733.132	1895.07
733.183	1919.29
733.235	1919.53
733.286	1905.89
733.337	1956
733.389	1918.16
733.44	1929.69
733.491	1915.37
733.543	1920.84
733.594	1907.68
733.645	1922.29
733.697	1914.46
733.748	1891.67
733.799	1930.87
733.851	1934.82
733.902	1914.09
733.953	1938.36
734.005	1930.46
734.056	1887.97
734.107	1965.85
734.158	1950.55
734.21	1924.18
734.261	1920.47
734.312	1928.75
734.364	1904.03
734.415	1903.95
734.466	1922.53
734.518	1942.57
734.569	1936.62
734.62	1939.57
734.672	1920.35
734.723	1896.3
734.774	1930.82
734.826	1899.77
734.877	1869.93
734.928	1893.78
734.98	1926.97
735.031	1932.89
735.082	1928.36
735.133	1891.22
735.185	1912.82
735.236	1932.76
735.287	1914.14
735.339	1927.87
735.39	1893.96
735.441	1923.83
735.493	1882.36
735.544	1911.24
735.595	1911.31
735.647	1935.55
735.698	1935.68
735.749	1920.46
735.8	1940.78
735.852	1950.32
735.903	1977
735.954	1942.02
736.006	1889.45
736.057	1927.82
736.108	1963.66
736.16	1924.1
736.211	1914.28
736.262	1964.11
736.313	1942.28
736.365	1933.06
736.416	1925.35
736.467	1903.27
736.519	1925.66
736.57	1923.82
736.621	1944.61
736.673	1979.33
736.724	1942.96
736.775	1938.1
736.826	1942.18
736.878	1924.47
736.929	1968.76
736.98	1989.23
737.032	1943.91
737.083	1976.51
737.134	1951.73
737.185	2003.03
737.237	1944.14
737.288	1957.35
737.339	2002.7
737.391	1964.32
737.442	1978.49
737.493	2012.66
737.544	1976.22
737.596	1965.98
737.647	1989.21
737.698	1967.21
737.75	1996.1
737.801	2014.15
737.852	1973.27
737.903	1980.94
737.955	2003.26
738.006	1952.16
738.057	1978.85
738.109	2016.2
738.16	1969.25
738.211	2013.94
738.262	2005.73
738.314	2015.24
738.365	1962.41
738.416	2003.66
738.468	2016.88
738.519	2021.38
738.57	1994.03
738.621	1979.48
738.673	1994.91
738.724	1975.14
738.775	1968.44
738.826	1970.23
738.878	1964.32
738.929	1999.12
738.98	1949.81
739.031	1943.99
739.083	1941.13
739.134	1943
739.185	1951.41
739.237	1952.48
739.288	1930.59
739.339	1953.48
739.39	1934.57
739.442	1935.52
739.493	1932.29
739.544	1935.69
739.595	1873.15
739.647	1888.96
739.698	1937.34
739.749	1929.39
739.8	1890.83
739.852	1850.52
739.903	1914.85
739.954	1888.03
740.005	1908.22
740.057	1897.05
740.108	1863.67
740.159	1843.7
740.211	1818.61
740.262	1861.82
740.313	1869.13
740.364	1896.64
740.416	1832.89
740.467	1878.48
740.518	1860.22
740.569	1846.22
740.621	1869.92
740.672	1869.5
740.723	1862.98
740.774	1858.75
740.826	1837.57
740.877	1833.94
740.928	1813.35
740.979	1844.09
741.031	1802.53
741.082	1831.96
741.133	1819.75
741.184	1824.69
741.235	1824.87
741.287	1829.77
741.338	1802.09
741.389	1830.2
741.44	1796.6
741.492	1776.84
741.543	1789.89
741.594	1807.07
741.645	1763.44
741.697	1801.99
741.748	1780.87
741.799	1790.06
741.85	1785.89
741.902	1782.86
741.953	1765.53
742.004	1769.21
742.055	1755.88
742.107	1744.97
742.158	1738.12
742.209	1781.45
742.26	1722.33
742.311	1733.27
742.363	1750.37
742.414	1781.75
742.465	1728.35
742.516	1751.97
742.568	1744.39
742.619	1733.4
742.67	1721.08
742.721	1735.26
742.773	1724.24
742.824	1738.69
742.875	1736.44
742.926	1710.48
742.977	1739.31
743.029	1726.28
743.08	1726.1
743.131	1686.52
743.182	1727.42
743.234	1729
743.285	1715.62
743.336	1726.73
743.387	1711.98
743.438	1711.09
743.49	1709.85
743.541	1705.57
743.592	1700.24
743.643	1667.22
743.694	1716.86
743.746	1689.38
743.797	1714.68
743.848	1660.09
743.899	1713.22
743.951	1696.11
744.002	1671.47
744.053	1647.57
744.104	1684.13
744.155	1703.62
744.207	1686.06
744.258	1658.17
744.309	1662.4
744.36	1671.34
744.411	1680.82
744.463	1663.03
744.514	1656.18
744.565	1661.22
744.616	1667.84
744.667	1627.26
744.719	1653.73
744.77	1630.06
744.821	1666.66
744.872	1630.46
744.923	1657.3
744.975	1650.66
745.026	1653.85
745.077	1664.51
745.128	1631.54
745.179	1648.31
745.231	1651.81
745.282	1636.62
745.333	1643.55
745.384	1640.81
745.435	1621.3
745.487	1621.56
745.538	1605.32
745.589	1623.17
745.64	1639.04
745.691	1615.28
745.743	1616.63
745.794	1616.16
745.845	1623.95
745.896	1637.7
745.947	1622.3
745.998	1661.85
746.05	1627.4
746.101	1610.37
746.152	1590.83
746.203	1629.67
746.254	1607.99
746.306	1616.08
746.357	1624.21
746.408	1618.88
746.459	1601.03
746.51	1608.53
746.562	1598.77
746.613	1626.77
746.664	1600.06
746.715	1574.25
746.766	1614.07
746.817	1611.67
746.869	1606.9
746.92	1588.27
746.971	1618.16
747.022	1613.89
747.073	1605.15
747.125	1595.64
747.176	1606.52
747.227	1587.63
747.278	1583.07
747.329	1571.61
747.38	1589.5
747.432	1601.87
747.483	1591.12
747.534	1571.21
747.585	1562.83
747.636	1585.23
747.687	1576.64
747.739	1562.64
747.79	1573.4
747.841	1573.78
747.892	1568.16
747.943	1552.68
747.994	1567.71
748.046	1557.11
748.097	1547.44
748.148	1556.36
748.199	1555.18
748.25	1558.81
748.301	1535.77
748.352	1560.87
748.404	1561.66
748.455	1566.61
748.506	1552.69
748.557	1555.33
748.608	1552.55
748.659	1581.15
748.711	1570.13
748.762	1556.64
748.813	1534.44
748.864	1548.39
748.915	1543.37
748.966	1533.62
749.018	1551.09
749.069	1552.14
749.12	1552.24
749.171	1548.14
749.222	1530.84
749.273	1520.16
749.324	1529.55
749.376	1551.88
749.427	1547.11
749.478	1520.45
749.529	1527.09
749.58	1536.05
749.631	1508.72
749.682	1535.05
749.734	1521.51
749.785	1512.79
749.836	1519.69
749.887	1528.55
749.938	1525.83
749.989	1521.85
750.04	1526.74
750.092	1518.55
750.143	1522.01
750.194	1517.39
750.245	1521.66
750.296	1516.59
750.347	1527.74
750.398	1514.16
750.45	1502.91
750.501	1496.07
750.552	1473.72
750.603	1483.47
750.654	1498.27
750.705	1480.83
750.756	1493.09
750.807	1503.23
750.859	1504.17
750.91	1472.91
750.961	1495.24
751.012	1523.46
751.063	1520.85
751.114	1488.52
751.165	1485.98
751.216	1487
751.268	1487.27
751.319	1490.24
751.37	1479.04
751.421	1474.67
751.472	1486.65
751.523	1484.89
751.574	1480.63
751.625	1469.39
751.677	1461.87
751.728	1481.02
751.779	1437.94
751.83	1456.01
751.881	1447.41
751.932	1457.59
751.983	1469.62
752.034	1460.38
752.086	1468.2
752.137	1457.95
752.188	1455.04
752.239	1471.37
752.29	1465.83
752.341	1451.43
752.392	1458.88
752.443	1438.5
752.494	1443.05
752.546	1439.83
752.597	1432.15
752.648	1414.49
752.699	1463.24
752.75	1434.72
752.801	1435.14
752.852	1417.12
752.903	1419.69
752.954	1412.79
753.005	1415.41
753.057	1403.35
753.108	1407.31
753.159	1413.67
753.21	1410.66
753.261	1408.23
753.312	1442.82
753.363	1429.19
753.414	1413.82
753.465	1408.08
753.516	1419.35
753.568	1409.42
753.619	1389.81
753.67	1411.54
753.721	1412.62
753.772	1409.12
753.823	1398.56
753.874	1420.23
753.925	1381.75
753.976	1389.05
754.027	1360.14
754.079	1425.31
754.13	1377.91
754.181	1405.63
754.232	1411.57
754.283	1390.28
754.334	1374.15
754.385	1386.75
754.436	1379.68
754.487	1387.2
754.538	1364.08
754.589	1428.08
754.641	1378.89
754.692	1378.56
754.743	1387.93
754.794	1377.24
754.845	1353.72
754.896	1392.32
754.947	1392.41
754.998	1343.76
755.049	1354.9
755.1	1355.63
755.151	1336.83
755.202	1359.81
755.253	1362.97
755.305	1349.88
755.356	1328.95
755.407	1370.9
755.458	1354.32
755.509	1363.53
755.56	1363.13
755.611	1326.83
755.662	1344.37
755.713	1320.58
755.764	1336.36
755.815	1334.02
755.866	1346.48
755.917	1328.21
755.968	1312.02
756.02	1316.61
756.071	1353.24
756.122	1368.35
756.173	1316.08
756.224	1338.09
756.275	1352.15
756.326	1322.02
756.377	1361.23
756.428	1339.21
756.479	1323.61
756.53	1333.36
756.581	1335.35
756.632	1337.94
756.683	1318.26
756.734	1317.66
756.785	1307.28
756.837	1276.06
756.888	1295.89
756.939	1328.58
756.99	1270.05
757.041	1319.83
757.092	1321.48
757.143	1313.96
757.194	1304.74
757.245	1312.98
757.296	1317.3
757.347	1300.23
757.398	1299.65
757.449	1285.19
757.5	1267.48
757.551	1311.78
757.602	1343.35
757.653	1288.29
757.704	1276.52
757.755	1261.05
757.807	1311.76
757.858	1293.68
757.909	1296.31
757.917	1298
757.968	1298.01
758.02	1262.01
758.071	1279.96
758.122	1272.2
758.173	1300.02
758.224	1282.12
758.276	1278.1
758.327	1274.51
758.378	1266.76
758.429	1272.53
758.48	1261.73
758.532	1232.64
758.583	1273.54
758.634	1306.44
758.685	1265.8
758.736	1267.51
758.788	1252.38
758.839	1277.99
758.89	1268.25
758.941	1265.56
758.992	1245.97
759.044	1267.18
759.095	1273.27
759.146	1263.57
759.197	1267.49
759.248	1273.4
759.3	1247.08
759.351	1274.97
759.402	1229.92
759.453	1223.57
759.504	1270.23
759.556	1244.61
759.607	1249.16
759.658	1206.2
759.709	1217.73
759.76	1226.1
759.811	1220.8
759.863	1231.24
759.914	1263.85
759.965	1244.17
760.016	1206.24
760.067	1237.49
760.119	1206.91
760.17	1218.74
760.221	1233.26
760.272	1203.64
760.323	1188.77
760.375	1189.71
760.426	1205.56
760.477	1219.56
760.528	1226.58
760.579	1219.88
760.63	1229.73
760.682	1238
760.733	1212.4
760.784	1217.84
760.835	1169.47
760.886	1205.68
760.937	1159.45
760.989	1199.22
761.04	1213.56
761.091	1214.02
761.142	1166.32
761.193	1185.97
761.245	1176.66
761.296	1182.1
761.347	1194.52
761.398	1193.6
761.449	1166.44
761.5	1199.24
761.552	1189.52
761.603	1197
761.654	1162.11
761.705	1193.8
761.756	1161.96
761.807	1187.97
761.859	1196.53
761.91	1154.62
761.961	1190.45
762.012	1158.8
762.063	1185.35
762.114	1185.58
762.165	1161.73
762.217	1188.6
762.268	1188.94
762.319	1182.57
762.37	1158.77
762.421	1179.96
762.472	1180.77
762.524	1191.31
762.575	1172.8
762.626	1162.19
762.677	1157.99
762.728	1137.8
762.779	1140.23
762.831	1133.4
762.882	1155.86
762.933	1140.38
762.984	1161.54
763.035	1163.32
763.086	1140.06
763.137	1135.46
763.189	1144.15
763.24	1133.47
763.291	1130.27
763.342	1165.44
763.393	1147.07
763.444	1134.32
763.495	1127.3
763.547	1132.02
763.598	1104.39
763.649	1131.6
763.7	1115.33
763.751	1150.2
763.802	1130.17
763.853	1127.35
763.905	1086.39
763.956	1097.29
764.007	1123.89
764.058	1123.06
764.109	1110.88
764.16	1118.01
764.211	1128.47
764.263	1141.45
764.314	1112.7
764.365	1123.35
764.416	1125.7
764.467	1100.32
764.518	1133.85
764.569	1123.14
764.621	1116.85
764.672	1093.39
764.723	1097.25
764.774	1088.96
764.825	1081.94
764.876	1106.71
764.927	1093.69
764.978	1103.66
765.03	1094.55
765.081	1102.51
765.132	1075.92
765.183	1119.4
765.234	1092.98
765.285	1122.25
765.336	1111.17
765.387	1082.75
765.439	1100.93
765.49	1106.71
765.541	1086.04
765.592	1081.34
765.643	1070.58
765.694	1081.83
765.745	1067.62
765.796	1089.24
765.848	1102.73
765.899	1072.83
765.95	1070.65
766.001	1060.15
766.052	1087.52
766.103	1080.1
766.154	1072.61
766.205	1070.96
766.256	1063.98
766.308	1073.02
766.359	1070.71
766.41	1068.06
766.461	1047.21
766.512	1062.61
766.563	1053.93
766.614	1050.04
766.665	1058.24
766.716	1047.73
766.768	1073.77
766.819	1068.63
766.87	1050.44
766.921	1041.94
766.972	1065.11
767.023	1053.71
767.074	1057.67
767.125	1056.62
767.176	1041.26
767.227	1060.2
767.279	1054.88
767.33	1041.57
767.381	1042.26
767.432	1049.95
767.483	1034.92
767.534	1023.55
767.585	1051.14
767.636	1035.13
767.687	1045.3
767.739	1037.99
767.79	1046.96
767.841	1025.08
767.892	1052.04
767.943	1025.16
767.994	1046.22
768.045	1024.86
768.096	1014.75
768.147	1021.11
768.198	1031.05
768.249	1015.84
768.301	1029.24
768.352	1021.21
768.403	999.93
768.454	1001.83
768.505	1014.19
768.556	1019.72
768.607	1016.29
768.658	1029.86
768.709	1001.46
768.76	1006.24
768.811	1005.18
768.862	990.978
768.914	1002.83
768.965	1017.53
769.016	993.793
769.067	997.977
769.118	987.305
769.169	1012.19
769.22	974.277
769.271	999.287
769.322	970.457
769.373	989.78
769.424	982.679
769.475	990.094
769.526	992.008
769.578	979.953
769.629	966.227
769.68	991.359
769.731	983.594
769.782	968.405
769.833	991.784
769.884	1001.71
769.935	969.67
769.986	959.183
770.037	960.758
770.088	987.107
770.139	937.893
770.19	993.847
770.242	975.441
770.293	974.56
770.344	967.238
770.395	947.262
770.446	976.109
770.497	963.49
770.548	956.156
770.599	964.648
770.65	973.088
770.701	935.913
770.752	963.557
770.803	934.839
770.854	960.028
770.905	941.586
770.956	946.952
771.007	931.942
771.058	959.481
771.11	962.779
771.161	933.784
771.212	951.944
771.263	956.476
771.314	934.279
771.365	942.957
771.416	920.912
771.467	941.269
771.518	925.341
771.569	944.204
771.62	928.119
771.671	926.901
771.722	959.724
771.773	931.494
771.824	914.313
771.875	933.165
771.926	935.165
771.977	921.357
772.028	942.983
772.079	910.895
772.131	924.721
772.182	920.154
772.233	945.383
772.284	930.361
772.335	928.885
772.386	916.16
772.437	910.43
772.488	901.85
772.539	914.41
772.59	907.369
772.641	893.508
772.692	885.964
772.743	893.604
772.794	891.38
772.845	882.757
772.896	918.342
772.947	896.891
772.998	910.81
773.049	901.899
773.1	881.594
773.151	895.849
773.202	882.994
773.253	893.739
773.304	894.116
773.355	903.897
773.406	897.915
773.457	885.374
773.508	873.355
773.56	899.546
773.611	872.543
773.662	907.662
773.713	879.789
773.764	872.276
773.815	878.852
773.866	852.082
773.917	868.287
773.968	874.957
774.019	845.027
774.07	878.297
774.121	862.121
774.172	878.383
774.223	855.432
774.274	875.296
774.325	870.212
774.376	871.22
774.427	845.821
774.478	868.329
774.529	847.779
774.58	851.784
774.631	860.762
774.682	848.526
774.733	845.15
774.784	856.464
774.835	855.718
774.886	846.7
774.937	856.353
774.988	845.719
775.039	844.693
775.09	843.78
775.141	853.727
775.192	834.068
775.243	835.344
775.294	854.172
775.345	826.834
775.396	839.286
775.447	866.422
775.498	838.54
775.549	834.208
775.6	827.375
775.651	837.235
775.702	846.946
775.753	829.582
775.804	835.762
775.855	836.351
775.906	829.36
775.957	827.775
776.008	827.202
776.059	832.653
776.11	834.655
776.161	829.374
776.212	789.974
776.263	809.205
776.314	815.191
776.365	817.551
776.416	819.829
776.467	827.315
776.518	821.252
776.569	811.124
776.62	799.302
776.671	809.268
776.722	794.194
776.773	789.842
776.824	810.597
776.875	801.959
776.926	801.609
776.977	815.09
777.028	792.8
777.079	798.379
777.13	793.019
777.181	793.193
777.232	804.588
777.283	803.168
777.334	799.122
777.385	786.477
777.436	788.136
777.487	785.414
777.538	784.456
777.589	786.546
777.64	796.654
777.691	809.372
777.742	793.309
777.793	794.068
777.844	800.735
777.895	787.126
777.946	787.703
777.997	768.913
778.047	760.866
778.098	760.897
778.149	765.39
778.2	776.653
778.251	781.918
778.302	776.442
778.353	774.454
778.404	754.58
778.455	767.181
778.506	777.584
778.557	774.708
778.608	764.883
778.659	781.891
778.71	759.146
778.761	732.006
778.812	736.089
778.863	759.992
778.914	763.224
778.965	756.417
779.016	756.104
779.067	757.454
779.118	770.687
779.169	769.426
779.22	762.943
779.271	759.149
779.322	752.709
779.373	745.851
779.424	750.174
779.474	755.749
779.525	758.658
779.576	764.826
779.627	760.175
779.678	754.274
779.729	751.521
779.78	758.816
779.831	747.878
779.882	734.685
779.933	741.223
779.984	743.705
780.035	746.87
780.086	742.53
780.137	730.129
780.188	730.458
780.239	729.539
780.29	726.718
780.341	746.092
780.392	759.28
780.442	748.235
780.493	737.872
780.544	736.621
780.595	730.066
780.646	718.343
780.697	714.942
780.748	721.315
780.799	721.104
780.85	720.254
780.901	736.429
780.952	713.599
781.003	719.487
781.054	719.194
781.105	734.388
781.156	721.5
781.207	725.102
781.257	706.051
781.308	701.852
781.359	708.752
781.41	729.858
781.461	716.14
781.512	709.782
781.563	698.535
781.614	690.101
781.665	704.505
781.716	715.098
781.767	731.123
781.818	717.809
781.869	724.452
781.919	708.225
781.97	687.131
782.021	696.731
782.072	712.395
782.123	684.693
782.174	689.266
782.225	707.421
782.276	687.907
782.327	718.883
782.378	683.948
782.429	693.882
782.48	680.808
782.531	673.337
782.581	671.883
782.632	669.034
782.683	690.696
782.734	691.345
782.785	686.271
782.836	692.866
782.887	711.506
782.938	671.949
782.989	640.754
783.04	663.863
783.091	696.305
783.141	691.083
783.192	674.368
783.243	673.677
783.294	666.422
783.345	668.881
783.396	667.659
783.447	673.287
783.498	676.416
783.549	681.959
783.6	682.093
783.651	676.585
783.701	659.596
783.752	645.943
783.803	663.881
783.854	677.031
783.905	669.428
783.956	688.291
784.007	663.107
784.058	669.357
784.1	676
784.151	675.977
784.202	638.068
784.253	669.88
784.304	677.899
784.355	641.949
784.406	655.981
784.458	648.005
784.509	644.19
784.56	646
784.611	644.427
784.662	648.401
784.713	640.104
784.764	665.545
784.815	622.613
784.866	640.29
784.917	651.618
784.968	651.502
785.019	645.91
785.07	661.952
785.121	653.331
785.172	665.973
785.223	655.327
785.274	645.6
785.326	675.252
785.377	645.436
785.428	624.695
785.479	642.482
785.53	617.491
785.581	654.202
785.632	651.041
785.683	613.93
785.734	650.487
785.785	637.936
785.836	632.53
785.887	596.083
785.938	638.143
785.989	617.169
786.04	636.009
786.091	634.68
786.142	622.337
786.193	631.977
786.244	626.875
786.295	612.406
786.346	627.82
786.397	590.768
786.448	602.712
786.5	626.408
786.551	612.458
786.602	618.221
786.653	621.906
786.704	627.348
786.755	638.405
786.806	621.348
786.857	618.088
786.908	615.619
786.959	609.418
787.01	602.979
787.061	584.051
787.112	630.093
787.163	613.463
787.214	593.249
787.265	601.02
787.316	622.637
787.367	586.787
787.418	580.526
787.469	601.983
787.52	607.408
787.571	603.464
787.622	609.048
787.673	576.544
787.724	587.027
787.775	608.654
787.826	608.033
787.877	606.829
787.928	599.081
787.979	613.853
788.03	581.181
788.081	593.856
788.132	570.854
788.183	581.209
788.234	579.416
788.285	576.092
788.336	586.816
788.387	588.783
788.438	590.911
788.49	566.787
788.541	590.26
788.591	602.161
788.643	581.27
788.694	586.576
788.745	597.021
788.796	578.067
788.847	588.899
788.898	588.341
788.949	592.099
789	571.923
789.051	588.112
789.102	571.766
789.153	574.843
789.204	554.434
789.255	559.922
789.306	573.852
789.357	570.26
789.408	561.977
789.459	568.439
789.51	565.211
789.561	576.367
789.612	563.52
789.663	562.829
789.714	565.771
789.765	569.023
789.816	576.3
789.867	560.599
789.918	563.217
789.969	558.381
790.02	562.791
790.071	567.3
790.122	555.784
790.173	568.289
790.224	540.741
790.275	570.045
790.326	558.888
790.377	558.906
790.428	569.703
790.479	563.601
790.53	545.369
790.581	555.366
790.632	540.586
790.682	548.981
790.734	556.375
790.784	543.853
790.836	535.763
790.886	543.143
790.937	544.711
790.988	541.084
791.039	554.032
791.09	541.665
791.141	534.304
791.192	545.606
791.243	542.341
791.294	541.772
791.345	534.323
791.396	524.686
791.447	531.834
791.498	536.248
791.549	549.732
791.6	535.396
791.651	534.182
791.702	551.222
791.753	538.186
791.804	525.877
791.855	528.623
791.906	518.311
791.957	525.942
792.008	528.612
792.059	535.698
792.11	528.921
792.161	530.152
792.212	541.796
792.263	531.641
792.314	535.119
792.365	526.398
792.416	526.912
792.467	515.53
792.518	515.659
792.569	518.124
792.62	523.971
792.671	505.204
792.722	515.732
792.773	523.045
792.823	516.965
792.874	523.42
792.925	518.172
792.976	521.562
793.027	531.528
793.078	532.895
793.129	508.582
793.18	511.309
793.231	514.652
793.282	513.318
793.333	497.027
793.384	503.81
793.435	519.735
793.486	512.228
793.537	505.724
793.588	513.238
793.639	495.567
793.69	515.951
793.741	506.691
793.792	512.537
793.843	497.335
793.894	505.222
793.945	504.681
793.995	501.824
794.046	509.094
794.097	487.417
794.148	483.18
794.199	498.401
794.25	506.856
794.301	496.757
794.352	495.817
794.403	473.811
794.454	483.097
794.505	511.286
794.556	511.93
794.607	493.388
794.658	502.267
794.709	497.648
794.76	499.489
794.811	483.179
794.862	478.153
794.912	482.523
794.963	484.549
795.014	482.769
795.065	485.397
795.116	468.123
795.167	485.435
795.218	493.127
795.269	477.123
795.32	476.817
795.371	471.842
795.422	484.754
795.473	482.115
795.524	480.438
795.575	486.775
795.625	463.576
795.676	484.913
795.727	485.857
795.778	464.228
795.829	472.575
795.88	480.575
795.931	486.207
795.982	465.525
796.033	468.776
796.084	455.701
796.135	472.176
796.186	485.646
796.237	460.391
796.287	459.851
796.338	472.566
796.389	465.771
796.44	472.048
796.491	482.063
796.542	477.725
796.593	469.105
796.644	465.919
796.695	452.955
796.746	464.467
796.797	451.155
796.848	476.79
796.898	477.807
796.949	457.343
797	463.298
797.051	450.904
797.102	451.665
797.153	462.077
797.204	455.232
797.255	472.263
797.306	464.173
797.357	451.772
797.408	446.408
797.458	450.836
797.509	455.219
797.56	445.541
797.611	452.935
797.662	466.372
797.713	460.668
797.764	457.783
797.815	447.508
797.866	449.193
797.917	447.88
797.968	444.824
798.018	459.14
798.069	459.176
798.12	447.293
798.171	446.428
798.222	451.268
798.273	454.517
798.324	457.515
798.375	441.289
798.426	438.927
798.477	448.464
798.527	445.202
798.578	452.219
798.629	447.956
798.68	434.453
798.731	426.272
798.782	436.328
798.833	438.408
798.884	432.471
798.935	414.706
798.985	432.47
799.036	442.635
799.087	439.844
799.138	437.515
799.189	433.498
799.24	426.925
799.291	430.292
799.342	429.47
799.393	420.139
799.443	427.296
799.494	434.533
799.545	432.941
799.596	429.491
799.647	435
799.698	432.317
799.749	431.364
799.8	436.839
799.85	422.236
799.901	425.408
799.952	422.857
800.003	414.666
800.054	417.048
800.105	418.465
800.156	419.793
800.207	419.646
800.257	432.479
800.308	404.372
800.359	409.208
800.41	411.755
800.461	409.346
800.512	407.187
800.563	411.152
800.613	415.114
800.664	408.347
800.715	414.17
800.766	410.328
800.817	413.686
800.868	417.147
800.919	397.745
800.97	409.283
801.02	407.705
801.071	410.664
801.122	410.815
801.173	413.522
801.224	408.344
801.275	407.317
801.326	403.504
801.376	402.713
801.427	405.293
801.478	403.603
801.529	404.669
801.58	402.066
801.631	418.677
801.682	401.527
801.732	404.577
801.783	400.508
801.834	390.245
801.885	398.27
801.936	393.862
801.987	403.834
802.038	398.151
802.088	382.408
802.139	406.035
802.19	389.076
802.241	397.8
802.292	395.476
802.343	395.007
802.393	400.84
802.444	384.859
802.495	396.664
802.546	402.855
802.597	387.277
802.648	392.081
802.698	380.879
802.749	388.065
802.8	390.209
802.851	387.106
802.902	401.613
802.953	387.186
803.004	403.649
803.054	394.286
803.105	378.055
803.156	383.63
803.207	389.049
803.258	369.823
803.309	392.919
803.359	372.361
803.41	380.827
803.461	379.738
803.512	361.815
803.563	382.364
803.614	373.716
803.664	366.219
803.715	365.581
803.766	388.274
803.817	379.163
803.868	377.676
803.919	367.816
803.969	375.663
804.02	371.792
804.071	382.909
804.122	375.893
804.173	372.368
804.223	364.024
804.274	376.892
804.325	361.149
804.376	377.056
804.427	388.711
804.478	376.433
804.528	350.074
804.579	384.489
804.63	366
804.681	369.787
804.732	379.53
804.782	373.284
804.833	370.428
804.884	371.215
804.935	364.889
804.986	362.07
805.036	376.023
805.087	376.061
805.138	354.587
805.189	355.745
805.24	362.514
805.291	357.501
805.341	339.602
805.392	354.429
805.443	367.506
805.494	360.475
805.545	359.03
805.595	357.898
805.646	359.307
805.697	368.605
805.748	362.724
805.799	365.171
805.849	344.768
805.9	375.817
805.951	361.739
806.002	360.753
806.053	350.908
806.103	349.116
806.154	354.575
806.205	355.101
806.256	347.023
806.307	358.001
806.357	350.178
806.408	362.539
806.459	351.213
806.51	350.519
806.561	351.035
806.611	339.587
806.662	350.878
806.713	353.25
806.764	359.261
806.815	360.205
806.865	361.495
806.916	339.069
806.967	325.209
807.018	345.561
807.068	348.615
807.119	348.745
807.17	345.031
807.221	343.194
807.272	343.548
807.322	351.691
807.373	338.93
807.424	336.099
807.475	342.258
807.526	340.074
807.576	347.571
807.627	357.017
807.678	343.298
807.729	340.372
807.779	331.105
807.83	337.581
807.881	338.903
807.932	339.692
807.982	346.653
808.033	338.89
808.084	338.874
808.135	338.828
808.186	334.243
808.236	329.58
808.287	352.446
808.338	351.689
808.389	344.673
808.439	354.017
808.49	349.043
808.541	331.09
808.592	324.747
808.643	334.234
808.693	326.172
808.744	337.314
808.795	331.093
808.846	327.583
808.896	347.107
808.947	324.145
808.998	304.465
809.049	338.583
809.099	341.938
809.15	328.164
809.201	322.351
809.252	338.677
809.302	325.289
809.353	325.684
809.404	328.544
809.455	326.818
809.505	323.328
809.556	319.651
809.607	323.523
809.658	331.151
809.708	326.039
809.759	323.111
809.81	327.967
809.861	327.104
809.911	338.973
809.962	336.87
810.013	328.137
810.064	315.688
810.114	321.6
810.133	328
810.183	308
810.234	331.955
810.285	321.959
810.336	331.935
810.387	302.081
810.438	302.129
810.489	323.969
810.54	319.869
810.591	315.876
810.642	305.982
810.693	308.124
810.743	312.123
810.794	319.819
810.845	321.706
810.896	322.119
810.947	308.596
810.998	323.714
811.049	304.29
811.1	313.797
811.151	309.695
811.202	302.26
811.253	325.028
811.303	313.939
811.354	308.376
811.405	325.54
811.456	320.4
811.507	325.679
811.558	298.415
811.609	309.828
811.66	315.777
811.711	321.749
811.762	318.825
811.813	313.076
811.863	314.932
811.914	309.668
811.965	304.921
812.016	295.889
812.067	307.135
812.118	304.369
812.169	310.866
812.22	297.332
812.271	305.268
812.321	300.746
812.372	305.284
812.423	297.887
812.474	301.476
812.525	324.567
812.576	301.358
812.627	321.135
812.678	316.102
812.729	299.261
812.779	305.525
812.83	298.934
812.881	304.809
812.932	298.456
812.983	295.3
813.034	297.233
813.085	310.707
813.136	285.891
813.187	293.575
813.237	294.53
813.288	293.451
813.339	294.058
813.39	291.915
813.441	301.805
813.492	293.534
813.543	291.586
813.594	288.935
813.644	291.368
813.695	293.458
813.746	304.207
813.797	286.991
813.848	297.188
813.899	296.351
813.95	277.118
814.001	278.118
814.051	295.502
814.102	288.434
814.153	290.093
814.204	264.775
814.255	298.216
814.306	289.931
814.357	289.351
814.408	285.925
814.458	277.346
814.509	279.554
814.56	292.773
814.611	278.425
814.662	283.54
814.713	296.003
814.764	295.112
814.814	288.866
814.865	295.559
814.916	280.282
814.967	266.406
815.018	282.98
815.069	288.034
815.12	289.686
815.17	278.206
815.221	277.157
815.272	290.676
815.323	276.6
815.374	261.162
815.425	273.204
815.476	279.394
815.526	296.1
815.577	267.128
815.628	283.328
815.679	274.36
815.73	275.591
815.781	275.143
815.832	280.043
815.882	283.793
815.933	277.152
815.984	275.522
816.035	268.001
816.086	278.471
816.137	273.924
816.188	265.754
816.238	282.225
816.289	269.81
816.34	280.581
816.391	271.28
816.442	260.569
816.493	279.777
816.543	260.33
816.594	267.293
816.645	283.473
816.696	257.133
816.747	269.787
816.798	257.546
816.848	285.615
816.899	263.184
816.95	271.921
817.001	263.14
817.052	269.255
817.103	256.957
817.153	283.16
817.204	271.959
817.255	277.939
817.306	269.246
817.357	265.313
817.408	273.7
817.458	271.211
817.509	265.913
817.56	256.393
817.611	269.577
817.662	272.964
817.713	270.057
817.763	263.16
817.814	251.22
817.865	256.102
817.916	268.419
817.967	270.241
818.018	262.618
818.068	261.372
818.119	268.595
818.17	267.643
818.221	262.516
818.272	269.307
818.323	258.876
818.373	258.402
818.424	259.572
818.475	265.838
818.526	267.085
818.577	253.523
818.627	246.965
818.678	251.425
818.729	275.159
818.78	262.701
818.831	242.4
818.881	247.333
818.932	266.848
818.983	259.688
819.034	240.824
819.085	252.532
819.135	248.186
819.186	256.941
819.237	248.379
819.288	254.577
819.339	253.664
819.39	251.31
819.44	253.796
819.491	250.08
819.542	247.591
819.593	251.797
819.644	244.537
819.694	248.345
819.745	238.221
819.796	246.887
819.847	256.447
819.898	247.076
819.948	246.926
819.999	256.934
820.05	253.575
820.101	247.869
820.152	247.14
820.202	250.415
820.253	247.142
820.304	246.773
820.355	252.38
820.406	237.63
820.456	240.732
820.507	249.047
820.558	250.814
820.609	255.282
820.66	239.143
820.71	248.226
820.761	240.303
820.812	239.7
820.863	235.045
820.914	244.619
820.964	247.039
821.015	237.168
821.066	236.706
821.117	243.679
821.167	239.256
821.218	237.962
821.269	247.004
821.32	240.371
821.371	242.057
821.421	242.147
821.472	237.74
821.523	245.493
821.574	232.736
821.624	237.68
821.675	235.701
821.726	239.31
821.777	233.993
821.828	228.049
821.878	242.755
821.929	236.143
821.98	242.512
822.031	242.786
822.081	233.926
822.132	239.877
822.183	238.845
822.234	232.371
822.285	216.942
822.335	233.325
822.386	238.81
822.437	231.594
822.488	233.212
822.538	227.094
822.589	226.93
822.64	232.944
822.691	223.243
822.741	230.466
822.792	237.749
822.843	233.703
822.894	238.271
822.945	228.334
822.995	232.031
823.046	224.699
823.097	220.917
823.148	226.297
823.198	222.881
823.249	226.208
823.3	231.876
823.351	224.921
823.401	215.895
823.452	218.907
823.503	223.992
823.554	226.846
823.604	217.713
823.655	222.948
823.706	235.083
823.757	226.16
823.807	225.057
823.858	226.407
823.909	211.308
823.96	210.854
824.01	237.46
824.061	228.141
824.112	232.333
824.163	217.95
824.213	222.955
824.264	228.357
824.315	221.133
824.366	215.492
824.416	217.203
824.467	229.217
824.518	229.345
824.569	213.109
824.619	206.957
824.67	225.557
824.721	219.419
824.772	230.022
824.822	222.434
824.873	212.502
824.924	218.259
824.974	212.169
825.025	218.606
825.076	223.448
825.127	221.909
825.177	216.553
825.228	217.803
825.279	221.576
825.33	211.545
825.38	213.822
825.431	212.714
825.482	217.411
825.533	212.72
825.583	209.567
825.634	218.039
825.685	217.238
825.735	216.452
825.786	195.438
825.837	206.184
825.888	204.373
825.938	212.989
825.989	218.212
826.04	213.096
826.091	217.002
826.141	217.132
826.192	210.282
826.243	212.378
826.293	214.933
826.344	213.691
826.395	210.655
826.446	210.242
826.496	213.67
826.547	211.296
826.598	201.881
826.648	208.113
826.699	215.062
826.75	212.456
826.801	209.254
826.851	212.083
826.902	210.491
826.953	201.634
827.003	214.823
827.054	211.103
827.105	208.121
827.156	215.684
827.206	197.714
827.257	197.874
827.308	202.486
827.358	210.642
827.409	200.06
827.46	204.481
827.511	198.089
827.561	199.772
827.612	204.394
827.663	200.312
827.713	205.019
827.764	200.247
827.815	205.712
827.865	208.343
827.916	205.456
827.967	194.94
828.018	197.243
828.068	209.852
828.119	206.812
828.17	191.543
828.22	200.597
828.271	205.597
828.322	204.199
828.372	198.386
828.423	197.387
828.474	193.005
828.525	193.802
828.575	200.76
828.626	189.655
828.677	193.199
828.727	198.736
828.778	196.076
828.829	187.9
828.879	196.565
828.93	204.613
828.981	201.667
829.031	193.677
829.082	199.52
829.133	209.744
829.183	196.647
829.234	195.208
829.285	197.923
829.336	195.549
829.386	194.523
829.437	196.797
829.488	198.103
829.538	198.797
829.589	196.645
829.64	195.051
829.69	188.762
829.741	195.565
829.792	188.379
829.842	197.389
829.893	192.852
829.944	198.198
829.994	194.881
830.045	188.973
830.096	192.828
830.146	193.373
830.197	191.535
830.248	191.631
830.298	199.267
830.349	197.133
830.4	199.335
830.45	201.585
830.501	199.049
830.552	197.099
830.602	190.082
830.653	192.427
830.704	188.971
830.754	189.997
830.805	184.283
830.856	189.869
830.906	191.497
830.957	190.534
831.008	196.474
831.058	195.64
831.109	195.491
831.16	188.531
831.21	181.71
831.261	178.922
831.312	188.151
831.362	197.26
831.413	187.463
831.464	182.534
831.514	182.396
831.565	182.683
831.616	180.568
831.666	183.953
831.717	187.162
831.767	183.578
831.818	186.036
831.869	189.548
831.919	185.02
831.97	184.781
832.021	187.12
832.071	186.484
832.122	186.409
832.173	185.714
832.223	180.967
832.274	181.875
832.325	185.259
832.375	185.651
832.426	187.346
832.477	192.005
832.527	189.545
832.578	183.577
832.628	183.884
832.679	188.366
832.73	186.988
832.78	185.271
832.831	178.219
832.882	182.482
832.932	184.979
832.983	184.064
833.034	178.557
833.084	180.637
833.135	184.095
833.185	181.352
833.236	183.603
833.287	184.148
833.337	178.557
833.388	181.286
833.439	182.114
833.489	187.675
833.54	181.781
833.59	172.673
833.641	176.751
833.692	185.897
833.742	186.242
833.793	183.506
833.844	174.534
833.894	177.269
833.945	177.009
833.995	172.005
834.046	182.401
834.097	186.68
834.147	179.393
834.198	180.943
834.249	171.751
834.299	166.353
834.35	174.5
834.4	183.003
834.451	181.177
834.502	178.371
834.552	173.462
834.603	183.384
834.653	173.094
834.704	177.541
834.755	187.464
834.805	171.07
834.856	175.339
834.906	181.616
834.957	177.508
835.008	169.857
835.058	172.677
835.109	169.359
835.16	175.341
835.21	177.123
835.261	167.502
835.311	174.7
835.362	173.807
835.413	176.202
835.463	161.514
835.514	180.308
835.564	172.811
835.615	185.405
835.666	179.896
835.716	181.137
835.767	165.437
835.817	165.96
835.868	172.086
835.919	171.182
835.969	167.986
836.02	168
836.07	168.849
836.121	172.01
836.161	172
836.212	176
836.263	166.025
836.314	150.056
836.365	170.003
836.415	179.956
836.466	166.085
836.517	191.671
836.568	172.007
836.618	162.016
836.669	168.001
836.72	175.829
836.771	173.868
836.821	169.669
836.872	158.125
836.923	161.855
836.974	173.522
837.024	165.9
837.075	168.123
837.126	152.22
837.177	175.428
837.227	173.483
837.278	169.969
837.329	167.717
837.38	169.472
837.43	162.166
837.481	163.828
837.532	171.603
837.583	178.649
837.633	165.784
837.684	169.694
837.735	173.251
837.786	156.062
837.836	165.747
837.887	167.839
837.938	161.974
837.989	169.325
838.039	162.467
838.09	164.365
838.141	174.672
838.192	177.058
838.242	162.286
838.293	148.929
838.344	171.324
838.395	169.197
838.445	162.019
838.496	168.139
838.547	169.058
838.598	166.599
838.648	163.27
838.699	175.076
838.75	164.315
838.801	174.336
838.851	154.202
838.902	164.694
838.953	173.534
839.003	168.702
839.054	159.133
839.105	162.747
839.156	166.498
839.206	155.546
839.257	166.211
839.308	161.576
839.359	157.16
839.409	169.971
839.46	153.679
839.511	159.348
839.562	156.821
839.612	166.272
839.663	144.818
839.714	149.393
839.764	159.362
839.815	154.931
839.866	152.945
839.917	151.797
839.967	145.706
840.018	148.61
840.069	155.064
840.119	155.583
840.17	149.046
840.221	163.903
840.272	156.566
840.322	167.231
840.373	156.913
840.424	160.195
840.474	146.654
840.525	145.379
840.576	153.416
840.627	153.572
840.677	146.975
840.728	159.061
840.779	161.1
840.829	149.417
840.88	167.695
840.931	154.941
840.982	149.106
841.032	155.576
841.083	146.862
841.134	156.379
841.184	166.915
841.235	156.738
841.286	156.111
841.337	158.306
841.387	147.061
841.438	159.09
841.489	146.166
841.539	162.723
841.59	152.78
841.641	153.599
841.691	156.941
841.742	152.266
841.793	149.647
841.844	153.849
841.894	146.189
841.945	161.357
841.996	157.34
842.046	149.307
842.097	153.337
842.148	153.85
842.198	157.502
842.249	149.227
842.3	141.385
842.351	167.918
842.401	151.498
842.452	143.525
842.503	151.285
842.553	150.607
842.604	152.188
842.655	136.724
842.705	154.275
842.756	142.468
842.807	146.605
842.857	148.579
842.908	147.945
842.959	147.313
843.009	144.955
843.06	128.738
843.111	149.672
843.161	150.184
843.212	146.933
843.263	148.725
843.314	152.49
843.364	157.002
843.415	149.5
843.466	144.46
843.516	153.96
843.567	148.075
843.618	154.875
843.668	151.706
843.719	145.394
843.77	149.219
843.82	147.985
843.871	146.546
843.922	151.866
843.972	140.085
844.023	147.251
844.074	142.227
844.124	147.008
844.175	141.681
844.226	145.636
844.276	145.28
844.327	132.993
844.378	145.075
844.428	150.945
844.479	139.902
844.53	143.218
844.58	144.802
844.631	146.719
844.682	141.946
844.732	140.436
844.783	131.957
844.834	137.545
844.884	136.452
844.935	145.964
844.986	140.947
845.036	138.609
845.087	131.126
845.138	141.052
845.188	147.909
845.239	142.489
845.29	140.02
845.34	147.184
845.391	135.583
845.442	140.82
845.492	132.686
845.543	144.102
845.594	147.667
845.644	137.857
845.695	138.517
845.745	138.269
845.796	137.104
845.847	137.019
845.897	143.914
845.948	132.665
845.999	144.227
846.049	135.629
846.1	139.047
846.151	138.66
846.201	145.386
846.252	132.052
846.303	144.707
846.353	145.315
846.404	143.528
846.455	137.389
846.505	137.46
846.556	139.442
846.606	144.856
846.657	129.266
846.708	135.981
846.758	131.002
846.809	142.18
846.86	135.348
846.91	131.973
846.961	141.371
847.012	141.168
847.062	140.485
847.113	146.368
847.163	139.313
847.214	139.075
847.265	139.54
847.315	129.27
847.366	137.761
847.417	137.62
847.467	133.649
847.518	141.46
847.568	135.188
847.619	144.602
847.67	132.376
847.72	134.496
847.771	141.946
847.822	129.903
847.872	130.07
847.923	139.818
847.973	135.159
848.024	135.329
848.075	126.302
848.125	132.522
848.176	135.349
848.227	133.371
848.277	128.288
848.328	128.666
848.378	136.544
848.429	138.704
848.48	132.329
848.53	130.491
848.581	140.094
848.631	126.589
848.682	123.896
848.733	136.383
848.783	132.473
848.834	137.808
848.885	127.753
848.935	125.387
848.986	140.366
849.036	127.128
849.087	130.44
849.138	128.848
849.188	129.941
849.239	132.988
849.289	125.148
849.34	138.686
849.391	131.272
849.441	136.741
849.492	129.864
849.542	124.23
849.593	122.187
849.644	129.88
849.694	131.914
849.745	134.738
849.795	131.167
849.846	129.089
849.897	128.268
849.947	132.614
849.998	130.919
850.048	133.461
850.099	128.658
850.15	125.515
850.2	125.859
850.251	120.172
850.301	129.206
850.352	131.503
850.403	131.605
850.453	115.406
850.504	128.045
850.554	123.359
850.605	134.59
850.656	120.567
850.706	133.197
850.757	112.401
850.807	129.764
850.858	104.974
850.908	135.149
850.959	128.736
851.01	131.107
851.06	128.647
851.111	126.609
851.161	122.16
851.212	124.994
851.263	120.572
851.313	120.202
851.364	124.375
851.414	130.789
851.465	132
851.515	123.851
851.566	128.152
851.617	124.339
851.667	123.186
851.718	127.324
851.768	127.83
851.819	129.613
851.869	122.535
851.92	123.073
851.971	117.568
852.021	124.964
852.072	117.382
852.122	126.629
852.173	124.007
852.223	121.226
852.274	121.968
852.325	120.66
852.375	123.067
852.426	121.002
852.476	121.443
852.527	122.093
852.577	119.476
852.628	121.85
852.678	115.121
852.729	128.026
852.78	124.362
852.83	122.599
852.881	119.312
852.931	126.627
852.982	116.59
853.032	123.267
853.083	112.849
853.133	118.192
853.184	119.382
853.235	117.959
853.285	121.933
853.336	127.962
853.386	127.602
853.437	121.054
853.487	121.895
853.538	122.966
853.588	127.297
853.639	117.488
853.69	113.878
853.74	120.63
853.791	119.288
853.841	119.92
853.892	117.124
853.942	123.262
853.993	107.412
854.043	117.495
854.094	120.215
854.144	116.56
854.195	113.247
854.246	117.563
854.296	115.811
854.347	121.84
854.397	121.403
854.448	112.529
854.498	119.64
854.549	119.478
854.599	125.301
854.65	110.845
854.7	108.77
854.751	114.128
854.801	117.268
854.852	121.432
854.902	120.773
854.953	118.791
855.004	115.594
855.054	114.607
855.105	113.133
855.155	111.138
855.206	119.192
855.256	116.899
855.307	118.526
855.357	114.687
855.408	114.941
855.458	119.371
855.509	110.478
855.559	118.973
855.61	110.834
855.66	115.486
855.711	118.791
855.761	112
855.812	118.715
855.862	115.296
855.913	108.329
855.964	108.059
856.014	116.487
856.065	106.627
856.115	114.748
856.166	117.815
856.216	114.575
856.267	110.477
856.317	115.197
856.368	114.223
856.418	114.118
856.469	114.625
856.519	115.365
856.57	115.624
856.62	112.788
856.671	107.564
856.721	112.017
856.772	101.239
856.822	107.087
856.873	108.518
856.923	107.776
856.974	112.256
857.024	113.352
857.075	110.099
857.125	112.875
857.176	111.385
857.226	107.245
857.277	110.36
857.327	116.151
857.378	112.767
857.428	106.795
857.479	111.132
857.529	114.048
857.58	112.629
857.63	113.433
857.681	114.63
857.731	111.159
857.782	112.805
857.832	117.19
857.883	114.725
857.933	110.241
857.984	111.773
858.034	115.005
858.085	110.734
858.135	114.059
858.186	113.898
858.236	114.009
858.287	111.828
858.337	110.875
858.388	110.494
858.438	106.694
858.489	108.531
858.539	110.344
858.589	105.6
858.64	110.76
858.69	113.443
858.741	115.949
858.791	111.722
858.842	109.526
858.892	107.693
858.943	111.798
858.993	109.579
859.044	102.479
859.094	103.728
859.145	107.65
859.195	106.45
859.246	106.044
859.296	111.461
859.347	109.347
859.397	103.274
859.448	109.239
859.498	108.522
859.549	94.7386
859.599	101.774
859.649	104.925
859.7	97.9524
859.75	104.932
859.801	100.534
859.851	104.242
859.902	111.186
859.952	108.889
860.003	106.016
860.053	106.996
860.104	112.159
860.154	113.548
860.205	113.413
860.255	112.353
860.305	109.583
860.356	108.284
860.406	105.557
860.457	111.724
860.507	109.409
860.558	110.152
860.608	104.745
860.659	99.0932
860.709	98.9347
860.76	104.194
860.81	92.249
860.861	94.7384
860.911	105.83
860.961	103.736
861.012	104.695
861.062	107.563
861.113	110.068
861.163	104.255
861.214	100.479
861.264	100.129
861.315	99.7497
861.365	103.735
861.415	116.524
861.466	106
861.516	106.18
861.567	103.52
861.617	96.0744
861.668	98.7046
861.718	106.785
861.769	101.924
861.819	101.265
861.869	101.472
861.92	110.996
861.97	102.458
862.021	111.159
862.071	105.16
862.112	94.0117
862.162	100.003
862.213	103.983
862.263	98.0701
862.314	106.031
862.365	96.0886
862.415	105.887
862.466	105.951
862.516	107.959
862.567	96.0803
862.618	103.827
862.668	109.858
862.719	106.097
862.77	98.1898
862.82	99.922
862.871	105.888
862.921	92.4007
862.972	90.2892
863.023	94.1143
863.073	103.772
863.124	103.714
863.174	93.9392
863.225	99.5614
863.276	97.5814
863.326	86.3662
863.377	93.8065
863.427	92.1082
863.478	109.452
863.529	103.482
863.579	99.6669
863.63	90.4872
863.68	100
863.731	97.8514
863.782	90.2012
863.832	92.4958
863.883	97.9715
863.933	103.6
863.984	105.235
864.034	110.514
864.085	101.779
864.136	105.192
864.186	102.784
864.237	97.5121
864.287	104.979
864.338	99.658
864.389	100.089
864.439	100.181
864.49	105.075
864.54	104.957
864.591	100.095
864.642	96.3014
864.692	101.202
864.743	99.6776
864.793	103.691
864.844	101.483
864.894	92.0107
864.945	95.3392
864.996	95.2223
865.046	92.0763
865.097	95.8015
865.147	99.5796
865.198	99.6024
865.248	86.5753
865.299	102.762
865.35	96.5386
865.4	93.1333
865.451	92.3444
865.501	91.2838
865.552	88.0198
865.603	94.1066
865.653	97.2178
865.704	97.2844
865.754	93.3483
865.805	95.5928
865.855	87.1139
865.906	94.4165
865.956	108.088
866.007	98.7758
866.058	103.935
866.108	96.0526
866.159	93.0585
866.209	98.4733
866.26	102.9
866.31	95.0475
866.361	94.1467
866.412	100.128
866.462	96.6012
866.513	98.1293
866.563	95.3956
866.614	96.8655
866.664	99.4646
866.715	105.025
866.766	99.6394
866.816	95.4433
866.867	86.1589
866.917	100.404
866.968	98.717
867.018	84.0689
867.069	88.409
867.119	95.3574
867.17	93.7331
867.22	94.0129
867.271	91.0695
867.322	95.5741
867.372	93.0631
867.423	85.3006
867.473	97.6423
867.524	101.467
867.574	90.0687
867.625	86.9353
867.675	96.8709
867.726	97.1949
867.776	95.1277
867.827	97.4781
867.878	91.9517
867.928	98.8347
867.979	88.3793
868.029	93.7785
868.08	85.9793
868.13	92.0723
868.181	87.3463
868.231	93.0021
868.282	94.9618
868.332	90.7411
868.383	91.9368
868.433	88.1983
868.484	96.0273
868.535	91.5029
868.585	98.3574
868.636	90.9738
868.686	86.0277
868.737	92.9594
868.787	92.5166
868.838	96.9591
868.888	92.5244
868.939	81.9795
868.989	92.4484
869.04	94.3186
869.09	93.3392
869.141	81.0233
869.191	90.834
869.242	91.9601
869.292	90.3635
869.343	95.3241
869.394	89.6403
869.444	79.3248
869.495	100.174
869.545	90.2383
869.596	90.0399
869.646	88.0011
869.697	92.3486
869.747	83.1695
869.798	94.9757
869.848	89.2266
869.899	90.8912
869.949	80.72
870	99.7617
870.05	82.5562
870.101	95.7007
870.151	89.0144
870.202	96.2367
870.252	85.2145
870.303	83.5886
870.353	93.1767
870.404	92.4407
870.454	89.1359
870.505	89.9474
870.555	83.8725
870.606	93.0303
870.656	89.2723
870.707	91.7589
870.757	85.8689
870.808	83.4844
870.858	88.396
870.909	91.4296
870.959	85.8301
871.01	90.6316
871.06	87.308
871.111	91.4226
871.161	87.833
871.212	91.9736
871.262	93.6879
871.313	86.6387
871.363	86.9872
871.414	83.8558
871.464	91.0491
871.515	88.5992
871.565	89.1668
871.616	81.569
871.666	84.0274
871.717	84.0001
871.767	79.8864
871.818	76.0039
871.868	81.1348
871.919	86.9966
871.969	94.7814
872.02	83.831
872.07	90.4898
872.121	87.5478
872.171	89.8735
872.222	81.2409
872.272	85.7266
872.323	82.6826
872.373	93.6855
872.424	86.7973
872.474	90.472
872.525	91.1758
872.575	82.7943
872.626	80.4056
872.676	89.2562
872.727	81.4565
872.777	82.091
872.828	79.2065
872.878	85.8282
872.929	85.9607
872.979	84.9953
873.03	77.7979
873.08	87.2691
873.13	86.3907
873.181	86.2885
873.231	77.876
873.282	81.3126
873.332	88.123
873.383	86.2432
873.433	79.6655
873.484	85.4061
873.534	88.7018
873.585	83.6659
873.635	81.0555
873.686	82.1759
873.736	80.6525
873.787	81.4128
873.837	81.9344
873.888	85.8596
873.938	77.5582
873.988	82.9181
874.039	79.3149
874.089	83.3704
874.14	74.1727
874.19	81.0209
874.241	85.6295
874.291	91.2891
874.342	86.7106
874.392	91.1503
874.443	83.4577
874.493	83.7786
874.544	85.1201
874.594	83.2673
874.644	75.3366
874.695	82.0475
874.745	84.3033
874.796	84.887
874.846	79.9376
874.897	82.8256
874.947	82.6582
874.998	84.2854
875.048	85.6031
875.099	83.5355
875.149	79.1814
875.199	82.4326
875.25	77.2919
875.3	83.0146
875.351	81.4988
875.401	81.8216
875.452	85.8752
875.502	82.9649
875.553	81.039
875.603	82.4369
875.653	83.9557
875.704	84.8479
875.754	78.8294
875.805	86.8529
875.855	82.1046
875.906	79.0209
875.956	84.0313
876.006	78.6068
876.057	79.1548
876.107	80.5331
876.158	84.1415
876.208	78.3787
876.259	83.6533
876.309	81.2318
876.36	79.2616
876.41	77.8923
876.46	82.0334
876.511	86.4697
876.561	79.0162
876.612	78.3234
876.662	81.2133
876.713	76.3281
876.763	79.9085
876.813	76.3715
876.864	82.4402
876.914	81.815
876.965	87.2452
877.015	79.0805
877.065	83.8796
877.116	76.1399
877.166	84.65
877.217	78.0619
877.267	77.4404
877.318	76.7033
877.368	82.5783
877.418	76.1613
877.469	79.3618
877.519	77.4984
877.57	75.5604
877.62	79.6545
877.671	83.2614
877.721	77.6051
877.771	82.4132
877.822	72.8489
877.872	78.3096
877.923	76.7778
877.973	87.0597
878.023	81.2488
878.074	80.2794
878.124	75.0214
878.175	73.5975
878.225	70.7544
878.276	76.9418
878.326	75.7121
878.376	78.4807
878.427	79.0312
878.477	78.5762
878.528	77.1334
878.578	78.3645
878.628	79.0465
878.679	80
878.729	81.6276
878.78	81.4622
878.83	75.6046
878.88	72.1814
878.931	77.9623
878.981	79.1415
879.031	75.545
879.082	77.0502
879.132	77.3959
879.183	87.2868
879.233	82.5435
879.284	79.0333
879.334	75.9556
879.384	71.854
879.435	78.317
879.485	77.8005
879.535	80.5493
879.586	77.9594
879.636	74.5819
879.687	77.5001
879.737	79.3626
879.787	77.6676
879.838	72.6127
879.888	71.5436
879.939	80.0732
879.989	77.87
880.039	75.8421
880.09	78.3792
880.14	73.9647
880.19	71.2877
880.241	73.5906
880.291	75.649
880.342	76.914
880.392	76.9669
880.442	76.5828
880.493	78.2014
880.543	77.4409
880.594	74.5048
880.644	75.8197
880.694	76.1583
880.745	83.6006
880.795	73.2823
880.845	71.3469
880.896	71.3852
880.946	73.5773
880.996	72
881.047	76.128
881.097	77.7189
881.148	79.633
881.198	73.5317
881.248	74
881.299	75.0495
881.349	73.772
881.399	71.0419
881.45	74.8049
881.5	73.0788
881.551	70.9365
881.601	74.0995
881.651	72.3004
881.702	76.3748
881.752	78.1237
881.802	76.7124
881.853	74.7851
881.903	78.1746
881.953	78.7519
882.004	74.7541
882.054	71.8158
882.104	70.3395
882.155	73.2343
882.205	69.7684
882.256	75.4405
882.306	76.5612
882.356	74.9047
882.407	70.8431
882.457	70.419
882.507	72.4965
882.558	73.29
882.608	75.662
882.658	74
882.709	71.6204
882.759	71.0738
882.809	74.764
882.86	73.9721
882.91	71.8516
882.96	70.8867
883.011	74.6476
883.061	73.235
883.111	68.1406
883.162	61.0124
883.212	68.181
883.262	77.1541
883.313	76.4069
883.363	69.8369
883.413	74.2195
883.464	75.8007
883.514	71.5755
883.565	68.1489
883.615	65.0867
883.665	60.2755
883.716	73.2779
883.766	75.918
883.816	70.7778
883.867	72.4109
883.917	72.3862
883.967	69.9976
884.017	71.5585
884.068	75.6506
884.118	73.9378
884.168	75.3827
884.219	74.3887
884.269	72.7274
884.319	78.1264
884.37	74.3139
884.42	70.04
884.47	63.2821
884.521	67.3143
884.571	73.8502
884.621	63.7308
884.672	75.1467
884.722	68.9672
884.772	61.6018
884.823	68.5174
884.873	78.9783
884.923	77.5682
884.974	64.6321
885.024	66.13
885.074	61.8665
885.125	75.9021
885.175	69.4421
885.225	67.7962
885.276	70
885.326	70.3043
885.376	67.214
885.426	62.7908
885.477	68.5841
885.527	67.4243
885.577	67.58
885.628	64.6478
885.678	68.5002
885.728	71.3175
885.779	78.485
885.829	72.8983
885.879	72.878
885.93	68.7861
885.98	73.2361
886.03	62.4504
886.08	74.3318
886.131	68.2934
886.181	65.8329
886.231	67.0926
886.282	77.1275
886.332	73.4844
886.382	69.1719
886.432	53.0877
886.483	71.4263
886.533	61.9383
886.583	59.8534
886.634	65.4098
886.684	74.1245
886.734	64.0341
886.785	68.1366
886.835	64.1297
886.885	73.6827
886.935	70.0697
886.986	67.7908
887.036	62.4495
887.086	72
887.137	71.4463
887.187	64.2999
887.237	62.1851
887.287	77.4048
887.338	71.1992
887.388	67.8251
887.438	68
887.489	68
887.539	67.6031
887.589	74.1413
887.639	64.3512
887.69	65.9325
887.74	67.7137
887.79	62.2633
887.841	61.9184
887.891	62.0123
887.941	73.5914
887.943	73.9769
887.993	70.0179
888.044	69.971
888.094	64.0608
888.144	69.8076
888.195	58.0498
888.245	67.8588
888.296	67.4866
888.346	56.1407
888.397	65.9691
888.447	62.1291
888.498	73.4404
888.548	63.8578
888.599	62.4434
888.649	69.9538
888.699	65.7712
888.75	74.6931
888.8	71.1257
888.851	66.3299
888.901	69.4851
888.952	71.3569
889.002	63.3209
889.053	68.6243
889.103	69.301
889.153	66.0296
889.204	54.7094
889.254	65.6531
889.305	68.5575
889.355	65.2915
889.406	68.4517
889.456	68.8024
889.507	65.0767
889.557	82.6639
889.607	64.1992
889.658	69.7647
889.708	72.6681
889.759	66.5033
889.809	58.0639
889.86	64.59
889.91	71.4691
889.96	67.0732
890.011	65.1491
890.061	66.2561
890.112	65.6946
890.162	66.9611
890.213	68.0061
890.263	69.8379
890.313	58.5775
890.364	71.1011
890.414	61.8751
890.465	67.4741
890.515	67.1286
890.566	63.8008
890.616	64.5433
890.666	64.4597
890.717	62.1652
890.767	69.2676
890.818	57.5795
890.868	65.0988
890.919	59.3015
890.969	56.4503
891.019	57.3335
891.07	60.2994
891.12	59.2746
891.171	64.5436
891.221	63.1037
891.271	68.2708
891.322	64.3252
891.372	63.25
891.423	66.0834
891.473	70.6598
891.523	63.3943
891.574	62.6382
891.624	62.5664
891.675	58.5501
891.725	60.4849
891.776	67.7892
891.826	58.1225
891.876	60.7012
891.927	59.4229
891.977	60.4406
892.028	61.7764
892.078	65.2282
892.128	62.5069
892.179	60.9404
892.229	64.8063
892.28	64.9314
892.33	59.7967
892.38	59.8561
892.431	57.7497
892.481	61.2617
892.532	69.5376
892.582	60.8547
892.632	62.6291
892.683	65.1285
892.733	63.3503
892.784	63.3746
892.834	64.9696
892.884	56.7579
892.935	66.7597
892.985	67.473
893.036	56.916
893.086	62.6846
893.136	61.9424
893.187	57.5829
893.237	57.4574
893.288	58.9529
893.338	58.7933
893.388	65.4564
893.439	60.9944
893.489	61.5388
893.539	63.9605
893.59	57.8427
893.64	64.7436
893.691	56.1154
893.741	58.0944
893.791	59.1733
893.842	65.7079
893.892	60.1213
893.943	57.0169
893.993	58.0133
894.043	60.9783
894.094	63.0217
894.144	57.9952
894.194	61.0036
894.245	61.9928
894.295	57.0338
894.346	58.9746
894.396	56
894.446	61.029
894.497	57.9819
894.547	61.9565
894.597	54.0483
894.648	66.8138
894.698	62.1812
894.749	57.0978
894.799	58.8188
894.849	61.9601
894.9	59.087
894.95	65.8164
895	59.2476
895.051	63.74
895.101	63.3333
895.151	57.1184
895.202	60.5688
895.252	59.9348
895.303	58.413
895.353	58.786
895.403	55.2246
895.454	67.529
895.504	64.0821
895.554	54.8464
895.605	61.1304
895.655	64.0906
895.706	56.471
895.756	52.9033
895.806	56.6993
895.857	57.2077
895.907	59.2128
895.957	58.6703
896.008	66.2053
896.058	61.5804
896.108	53.5978
896.159	55.8779
896.209	50.3768
896.259	57.2246
896.31	66
896.36	59.1353
896.41	56
896.461	63.5725
896.511	58.4384
896.561	55.2975
896.612	57
896.662	62.3809
896.713	58.4746
896.763	58
896.813	58.5072
896.864	62.5042
896.914	56.343
896.964	53.6518
897.015	62.6449
897.065	60.1802
897.115	60
897.166	50.9371
897.216	60.4813
897.266	57.7729
897.317	55.8029
897.367	52
897.417	59.1874
897.468	59.2406
897.518	61.3696
897.568	56.6385
897.619	59.7013
897.669	53.7585
897.719	54.555
897.77	55.3216
897.82	57.4589
897.87	58.7666
897.921	62
897.971	50.9565
898.021	56.5139
898.072	59.0181
898.122	59.2491
898.172	56.2524
898.223	59
898.273	58.7763
898.323	53.312
898.374	51.2056
898.424	57.3841
898.474	55.2721
898.524	55.2757
898.575	58
898.625	58.1548
898.675	58.5683
898.726	61.7122
898.776	56.7536
898.826	55.4099
898.877	52.1947
898.927	55.8924
898.977	53.3047
899.028	58.6167
899.078	58.6892
899.128	55
899.179	52.364
899.229	59
899.279	55.9722
899.33	49.3108
899.38	54.3495
899.43	58.6675
899.48	55.6747
899.531	55.682
899.581	53.9323
899.631	60.6941
899.682	58.7013
899.732	56.7086
899.782	54.1366
899.833	62.3615
899.883	54.364
899.933	57.838
899.984	55.5182
