#Acq. time (s)=	3
#Accumulations=	2
#Range (nm)=	520...900
#Windows=	16
#Auto scanning=	On
#Autofocus=	Off
#AutoExposure=	Off
#Spike filter=	Multiple accum.
#Delay time (s)=	0
#Binning=	1
#Readout mode=	Signal
#DeNoise=	Off
#ICS correction=	Off
#Dark correction=	Off
#Inst. Process=	Off
#Detector temperature (°C)=	-59.98
#Instrument=	LabRAM HR Evol
#Detector=	Syncerity OE
#Objective=	x50_VIS
#Grating=	600 (500nm)
#ND Filter=	10%
#Laser=	514nm_Edge
#Hole=	199.981
#Range=	Auto
#StageXY=	Marzhauser
#StageZ=	Marzhauser
#X (µm)=	-7385.9
#Y (µm)=	8016.4
#Z (µm)=	84.7
#Full time(mm:ss)=	2:39
#Project=	
#Sample=	
#Site=	
#Title=	PL_230124_Amostra_mais_branca
#Remark=	
#Date=	31.01.2024 11:08
#Acquired=	31.01.2024 11:08:41
520.042	43
520.094	45.8709
520.147	41.0908
520.199	46.8137
520.251	43.293
520.304	48.5902
520.356	38.3667
520.408	36.1607
520.461	42.7721
520.513	42.8836
520.565	44.1781
520.618	46.9372
520.67	43.064
520.723	41.9348
520.775	35.135
520.827	44.7907
520.88	40.3609
520.932	43.6333
520.984	42.9243
521.037	49.9232
521.089	47.0791
521.141	47.9185
521.194	38.5786
521.246	42.83
521.298	40.0861
521.351	43.5523
521.403	37.3632
521.455	43.9069
521.508	40
521.56	46.1304
521.612	39.1735
521.665	44.5953
521.717	41.8976
521.769	40.4191
521.822	43.5763
521.874	49.7835
521.926	43.4377
521.979	44.553
522.031	42.1129
522.083	43.1152
522.136	46.8814
522.188	39.4796
522.24	46.5111
522.293	45.2468
522.345	42.1257
522.397	39.7439
522.45	43
522.502	45
522.554	44.2678
522.607	48.0547
522.659	45.099
522.711	45.3015
522.764	35.1269
522.816	45.7113
522.868	46.7276
522.921	45.8533
522.973	48.404
523.025	46.454
523.078	44
523.13	41.3097
523.182	42.6857
523.234	39.681
523.287	43.482
523.339	43.837
523.391	51.5041
523.444	39.3411
523.496	45.156
523.548	39.8508
523.601	46.9662
523.653	45.1746
523.705	44.8231
523.758	41.3562
523.81	47.9173
523.862	39.9139
523.915	43.6298
523.967	46.3749
524.019	46.6224
524.072	42.1909
524.124	47.4237
524.176	47.9721
524.229	51.213
524.281	46.1991
524.333	43.4009
524.385	42.2026
524.438	44.7951
524.49	43.5856
524.542	48.4191
524.595	46
524.647	47.5763
524.699	39.071
524.752	44.9173
524.804	45.532
524.856	39.7797
524.909	38.5553
524.961	46.5506
525.013	43.454
525.066	48.4009
525.118	38.305
525.17	46.1374
525.222	43.4685
525.275	42.2363
525.327	40.4773
525.379	46.035
525.432	43.9732
525.484	44.5262
525.536	42.7439
525.589	37.9977
525.641	41.7485
525.693	48.7311
525.745	46
525.798	46.5145
525.85	46.5175
525.902	45.6962
525.955	38.3213
526.007	40.7343
526.059	46
526.112	43.2701
526.164	44.9138
526.216	45.8207
526.268	38.8287
526.321	41.4435
526.373	39.5594
526.425	41.8731
526.478	46.8522
526.53	38.2867
526.582	42.1339
526.635	43.5804
526.687	42.8312
526.739	41.2937
526.791	41
526.844	42.8951
526.896	40.6996
526.948	45.3939
527.001	44.61
527.053	43.6935
527.105	46
527.157	44.0664
527.21	41.9395
527.262	43.6294
527.314	44.3644
527.367	40.9161
527.419	42.7564
527.471	47.6764
527.523	46
527.576	40.6356
527.628	41.3508
527.68	38.9907
527.733	49.3275
527.785	47.3427
527.837	42.9744
527.889	49.6597
527.942	46.7075
527.994	42.6892
528.046	45.9231
528.099	43.397
528.151	45.5967
528.203	42.7063
528.255	44.3551
528.308	45.7133
528.36	43.2051
528.412	40.8044
528.464	44.1818
528.517	39.0944
528.569	48.1643
528.621	47.7381
528.674	44.7436
528.726	47.3741
528.778	43.624
528.83	48.8636
528.883	45.1399
528.935	43.1469
528.987	50.0792
529.039	43.3869
529.092	43.9464
529.144	45.8287
529.196	44.2145
529.249	40
529.301	50.2051
529.353	43.7984
529.405	49.3916
529.458	43.4359
529.51	40.5623
529.562	43.2238
529.614	46.5385
529.667	45.0629
529.719	47.9312
529.771	45.4965
529.823	46.1618
529.876	38
529.928	46.3077
529.98	42.4033
530.033	39.1445
530.085	41.1422
530.137	44
530.189	45.5664
530.242	48
530.294	43.6888
530.346	47
530.398	49.7716
530.451	48.7739
530.503	45.3427
530.555	46.4487
530.607	46.549
530.66	49.3601
530.712	45.0886
530.764	46
530.816	47.5396
530.869	44.9231
530.921	45.6084
530.973	41.331
531.025	48.1259
531.078	47.5291
531.13	44.4732
531.182	42.5245
531.234	47.9557
531.287	46.4802
531.339	44.035
531.391	48
531.443	47.5146
531.496	46.5128
531.548	47.4476
531.6	48.049
531.652	51
531.705	50.4895
531.757	47
531.809	50.9953
531.861	47.5105
531.914	48.9883
531.966	48.0152
532.018	45
532.07	52.4883
532.123	50.028
532.175	47.965
532.227	49.5594
532.279	45.5216
532.332	48.3834
532.384	44.1538
532.436	50.3601
532.488	49.0606
532.541	47.0642
532.593	45.4662
532.645	50
532.697	44
532.75	42.5414
532.802	39.9138
532.854	46
532.906	54.2611
532.958	47.3967
533.011	45.6853
533.063	52.2191
533.115	46.4429
533.167	48.1179
533.22	42.4394
533.272	51.7436
533.324	52.5659
533.376	49
533.429	50.1326
533.481	52.9816
533.533	53.7675
533.585	51.1719
533.638	51.7179
533.69	54.5741
533.742	48.4553
533.794	49.0722
533.846	48.7701
533.899	56.9922
533.951	50.4255
534.003	47.2348
534.055	47.3574
534.108	50.3133
534.16	53.1464
534.212	55.0626
534.264	56.9335
534.316	51.4449
534.369	54.2695
534.421	52.4842
534.473	58.2497
534.525	51.1799
534.578	55.3506
534.63	51.8043
534.682	55.4292
534.734	58.6991
534.786	56.2732
534.839	48.5105
534.891	55.285
534.943	59.1523
534.995	54.4874
535.047	53.3231
535.1	50.8494
535.152	57.1234
535.204	54.993
535.256	56.1035
535.309	57.8778
535.361	57.5613
535.413	56.6093
535.465	57.0446
535.517	57.0169
535.57	50.0639
535.622	59.0986
535.674	49.4726
535.726	56.849
535.778	56.3807
535.831	55.2015
535.883	54.7597
535.935	56.3393
535.987	56.1165
536.039	52.7606
536.092	49.6524
536.144	54.5961
536.196	58.1753
536.248	56.2382
536.301	51.2862
536.353	54.3307
536.405	56.5621
536.457	57.0025
536.509	53.4943
536.562	60.0978
536.614	59.3282
536.666	59.2856
536.718	54.7174
536.77	55.4912
536.823	56.5789
536.875	54.9452
536.927	49.9329
536.979	60.5715
537.031	55.9667
537.083	57.5224
537.136	51.8114
537.188	53.4401
537.24	50.4365
537.292	52.5871
537.344	53.6654
537.397	53.0312
537.449	55.0593
537.501	53.1286
537.553	48.5068
537.605	47.6702
537.658	55.3581
537.71	55.3854
537.762	51.5892
537.814	62.0379
537.866	55.9636
537.919	60.0369
537.971	55.0357
538.023	55.2621
538.075	56.0568
538.127	58.0425
538.18	57.1132
538.232	62.4718
538.284	50.8221
538.336	52.8496
538.388	54.3925
538.44	60.4727
538.493	61.8012
538.545	59.3815
538.597	62.4987
538.649	58.4585
538.701	60
538.754	60.922
538.806	57.0833
538.858	59.1442
538.91	59.6959
538.962	59.7332
539.014	60.5682
539.067	61.5245
539.119	56.1538
539.171	59.7378
539.223	59.7534
539.275	62.244
539.327	62.0261
539.38	61.2691
539.432	55.8003
539.484	61.464
539.536	56.0043
539.588	63.4441
539.641	65.9194
539.693	59.6725
539.745	62.5284
539.797	63.8271
539.849	67.5445
539.901	63.7599
539.954	56.1929
540.006	65.5825
540.058	63.3086
540.11	67.5421
540.162	64.6496
540.214	63.0254
540.267	63.1133
540.319	69.1515
540.371	64.7987
540.423	58.5356
540.475	63.2398
540.527	66.7555
540.58	65.5486
540.632	65.7082
540.684	68.4164
540.736	61.5219
540.788	58.2404
540.84	60.9665
540.892	65.6871
540.945	69.8345
540.997	62.7076
541.049	68.1268
541.101	74.0644
541.153	66.4402
541.205	62.0054
541.258	69.137
541.31	71.4739
541.362	66.6748
541.414	67.9409
541.466	61.3975
541.518	65.095
541.57	70.1017
541.623	70.5602
541.675	64.9616
541.727	66.887
541.779	64.6324
541.831	69.552
541.883	68.1605
541.936	69.985
541.988	69.3445
542.04	78.329
542.092	71.3072
542.144	71.5375
542.196	69.6365
542.248	67.3891
542.301	68.5641
542.353	66.5457
542.405	75.1976
542.457	67.2913
542.509	65.7641
542.561	75.9743
542.613	72.6525
542.666	64.6958
542.718	72.7745
542.77	71.5133
542.822	76.5772
542.874	73.4247
542.926	73.7162
542.978	69.4173
543.031	73.7523
543.083	75.728
543.135	72.3086
543.187	71.4716
543.239	73.7113
543.291	74.6856
543.343	71.7647
543.396	80.3683
543.448	80.4892
543.5	79.2779
543.552	75.1639
543.604	74.5256
543.656	66.3814
543.708	74.4642
543.76	74.2959
543.813	83.8215
543.865	67.6046
543.917	79.385
543.969	72.574
544.021	79.4118
544.073	69.7923
544.125	82.381
544.177	83.4305
544.23	84.3718
544.282	70.4244
544.334	80.4086
544.386	78.4344
544.438	73.772
544.49	77.7422
544.542	86.6204
544.594	80.7609
544.647	89.9865
544.699	76.3429
544.751	79.9467
544.803	83.3719
544.855	76.8434
544.907	69.5335
544.959	84.3101
545.011	75.664
545.064	78.0985
545.116	76.6796
545.168	81.4946
545.22	83.342
545.272	85.891
545.324	85.6888
545.376	82.0581
545.428	80.713
545.48	85.5604
545.533	84.0673
545.585	80.4969
545.637	83.4931
545.689	90.1177
545.741	90.4105
545.793	101.557
545.845	83.1164
545.897	85.3324
545.949	97.6981
546.002	87.8956
546.054	95.8171
546.106	84.6283
546.158	83.8942
546.21	85.7579
546.262	84.3217
546.314	84.1468
546.366	89.0729
546.418	89.9354
546.471	88.3807
546.523	88.0548
546.575	89.664
546.627	93.2367
546.679	102.106
546.689	103.957
546.741	99.9858
546.793	92.0091
546.845	91.9909
546.898	78.2128
546.95	99.9845
547.002	84.276
547.054	95.9297
547.106	93.8383
547.159	92.0185
547.211	105.834
547.263	98.066
547.315	103.759
547.368	101.924
547.42	98.235
547.472	94.3672
547.524	103.992
547.577	98.3545
547.629	108
547.681	92.623
547.733	119.188
547.785	115.321
547.838	105.987
547.89	106.058
547.942	109.555
547.994	115.177
548.047	100.459
548.099	104.137
548.151	109.632
548.203	109.621
548.255	102.294
548.308	102.593
548.36	109.852
548.412	107.691
548.464	109.768
548.517	100.538
548.569	108.034
548.621	109.902
548.673	107.481
548.725	94.5959
548.778	121.119
548.83	123.31
548.882	116.872
548.934	111.159
548.987	115.662
549.039	106.724
549.091	112.031
549.143	110.363
549.195	117.505
549.248	119.951
549.3	128.615
549.352	110.187
549.404	119.46
549.456	113.969
549.509	114.588
549.561	118
549.613	119.768
549.665	114.728
549.718	123.74
549.77	112.993
549.822	118.741
549.874	125.57
549.926	132.578
549.979	129.194
550.031	119.751
550.083	119.275
550.135	134.167
550.187	126.549
550.24	124.74
550.292	124.277
550.344	129.05
550.396	137.873
550.448	137.12
550.501	130.385
550.553	125.61
550.605	142.568
550.657	141.892
550.709	133.676
550.762	143.773
550.814	148.511
550.866	133.932
550.918	144.64
550.97	131.68
551.023	149.118
551.075	146.874
551.127	143.627
551.179	151.061
551.231	160.176
551.284	151.351
551.336	155.925
551.388	156.808
551.44	164.507
551.492	165.486
551.545	178.607
551.597	173.563
551.649	183.044
551.701	176.098
551.753	194.888
551.806	195.851
551.858	202.201
551.91	198.195
551.962	231.422
552.014	234.958
552.067	262.807
552.119	270.891
552.171	316.391
552.223	358.129
552.275	459.243
552.327	738.117
552.38	1384.51
552.432	2589.6
552.484	4641.36
552.536	8925.19
552.588	15760.3
552.641	14649.6
552.693	8974.43
552.745	4020.73
552.797	1576.62
552.849	777.182
552.901	517.225
552.954	387.447
553.006	332.543
553.058	270.868
553.11	259.87
553.162	240.866
553.215	224.501
553.267	219.801
553.319	206.286
553.371	203.668
553.423	208.879
553.475	191.241
553.528	202.508
553.58	183.98
553.632	187.561
553.684	173.459
553.736	189.347
553.788	182.264
553.841	180.145
553.893	173.557
553.945	175.552
553.997	175.788
554.049	167.898
554.102	182.261
554.154	185.054
554.206	168.624
554.258	185.17
554.31	176.189
554.362	175.859
554.414	180.284
554.467	179.218
554.519	171.679
554.571	189.501
554.623	172.627
554.675	179.054
554.727	181.034
554.78	176.584
554.832	180.812
554.884	188.304
554.936	175.963
554.988	183.914
555.04	177.644
555.093	180.64
555.145	176.851
555.197	189.897
555.249	183.097
555.301	194.488
555.353	178.531
555.406	188.49
555.458	195.242
555.51	185.5
555.562	185.097
555.614	181.428
555.666	190.616
555.719	204.463
555.771	190.106
555.823	192.009
555.875	192.593
555.927	198.748
555.979	183.943
556.031	204.506
556.084	196.714
556.136	200.708
556.188	198.38
556.24	210.271
556.292	200.861
556.344	202.405
556.396	200.999
556.449	213.452
556.501	211.04
556.553	195.567
556.605	203.122
556.657	219.315
556.709	210.848
556.762	209.064
556.814	204.408
556.866	206.571
556.918	212.276
556.97	217.456
557.022	203.859
557.074	210.775
557.127	217.445
557.179	217.925
557.231	221.954
557.283	218.284
557.335	206.28
557.387	224.283
557.439	214.26
557.492	231.189
557.544	221.317
557.596	229.876
557.648	221.97
557.7	208.318
557.752	216.997
557.804	228.719
557.856	213.351
557.909	223.199
557.961	219.023
558.013	230.585
558.065	231.43
558.117	233.429
558.169	227.196
558.221	235.651
558.273	238.519
558.326	236.36
558.378	224.033
558.43	241.109
558.482	240.214
558.534	236.419
558.586	237.496
558.638	237.784
558.691	238.909
558.743	244.191
558.795	247.521
558.847	239.651
558.899	241.279
558.951	234.948
559.003	246.959
559.055	241.438
559.108	242.252
559.16	241.056
559.212	232.904
559.264	246.098
559.316	248.794
559.368	247.788
559.42	245.47
559.472	248.734
559.525	251.897
559.577	245.895
559.629	254.508
559.681	253.595
559.733	254.904
559.785	266.63
559.837	264.532
559.889	255.807
559.941	255.373
559.994	256.616
560.046	257.081
560.098	254.054
560.15	263.935
560.202	249.046
560.254	268.764
560.306	268.964
560.358	270.604
560.41	261.61
560.463	261.208
560.515	256.927
560.567	258.386
560.619	269.941
560.671	264.113
560.723	268.777
560.775	274.178
560.827	283.445
560.879	276.516
560.932	276.165
560.984	272.881
561.036	283.007
561.088	282.611
561.14	300.529
561.192	296.933
561.244	283.623
561.296	279.862
561.348	273.462
561.4	294.713
561.453	296.542
561.505	298.303
561.557	299.755
561.609	291.5
561.661	294.751
561.713	302.202
561.765	307.141
561.817	303.831
561.869	303.529
561.921	300.004
561.974	305.582
562.026	299.441
562.078	311.612
562.13	307.217
562.182	314.291
562.234	315.223
562.286	308.458
562.338	316.605
562.39	317.038
562.442	315.832
562.494	317.787
562.547	322.515
562.599	322.177
562.651	322.204
562.703	327.42
562.755	325.929
562.807	327.884
562.859	323.339
562.911	322.902
562.963	330.379
563.015	323.461
563.067	333.5
563.12	333.658
563.172	328.99
563.224	344.89
563.276	333.797
563.328	325.015
563.38	332.939
563.432	344.352
563.484	350.124
563.536	345.614
563.588	348.212
563.64	344.411
563.692	341.73
563.744	351.961
563.797	353.392
563.849	346.074
563.901	363.954
563.953	367.21
564.005	356.854
564.057	348.752
564.109	343.434
564.161	355.687
564.213	360.892
564.265	363.742
564.317	373.744
564.369	377.415
564.421	348.141
564.474	367.77
564.526	368.453
564.578	364.335
564.63	367.876
564.682	380.331
564.734	381.026
564.786	374.798
564.838	384.988
564.89	378.838
564.942	380.211
564.994	387.938
565.046	381.25
565.098	380.835
565.15	378.502
565.202	390.414
565.255	380.34
565.307	381.247
565.359	392.421
565.411	393.842
565.463	395.797
565.515	392.705
565.567	394.85
565.619	394.336
565.671	405.837
565.723	391.415
565.775	396.667
565.827	409.67
565.879	402.331
565.931	403.888
565.983	403.912
566.035	412.379
566.087	415.965
566.139	408.881
566.192	398.344
566.244	406.579
566.296	420.42
566.348	421.66
566.4	425.401
566.452	426.59
566.504	425.888
566.556	431.088
566.608	424.732
566.66	428.207
566.712	427.969
566.764	416.58
566.816	417.471
566.868	424.936
566.92	432.162
566.972	441.363
567.024	436.668
567.076	441.745
567.128	444.749
567.18	436.162
567.232	432.551
567.285	434.033
567.337	446.554
567.389	453.792
567.441	448.297
567.493	451.676
567.545	442.604
567.597	444.887
567.649	456.423
567.701	458.133
567.753	462.852
567.805	457.979
567.857	472.184
567.909	472.792
567.961	475.698
568.013	477.58
568.065	474.32
568.117	477.457
568.169	482.046
568.221	484.905
568.273	487.332
568.325	485.527
568.377	483.02
568.429	486.641
568.481	491.034
568.533	493.651
568.585	494.957
568.637	489.4
568.69	490.228
568.742	486.232
568.794	493.574
568.846	498.397
568.898	495.904
568.95	519.59
569.002	511.108
569.054	506.333
569.106	509.352
569.158	515.492
569.21	515.631
569.262	507.747
569.314	519.56
569.366	525.158
569.418	529.217
569.47	539.369
569.522	544.34
569.574	534.888
569.626	527.348
569.678	532.753
569.73	547.947
569.782	546.889
569.834	543.698
569.886	546.03
569.938	558.141
569.99	555.569
570.042	549.136
570.094	560.938
570.146	566.318
570.198	572.667
570.25	582.629
570.302	587.29
570.354	586.482
570.406	581.944
570.458	593.128
570.51	599.025
570.562	588.049
570.614	597.973
570.666	611.111
570.718	615.348
570.77	612.637
570.822	615.548
570.874	623.257
570.926	628.905
570.978	628.213
571.03	630.158
571.082	651.989
571.134	653.307
571.186	650.762
571.238	664.944
571.29	687.67
571.342	662.216
571.394	671.989
571.446	704.45
571.498	700.225
571.55	713.425
571.602	694.605
571.654	703.532
571.706	726.576
571.758	727.391
571.81	722.295
571.862	728.861
571.914	731.763
571.966	728.859
572.018	766.524
572.07	756.497
572.122	772.638
572.174	804.52
572.226	805.567
572.278	803.905
572.33	789.928
572.382	832.562
572.434	852.809
572.486	861.233
572.538	873.747
572.59	866.446
572.642	870.809
572.694	862.619
572.746	860.437
572.798	889.619
572.85	912.504
572.902	925.778
572.954	931.052
573.006	955.111
573.058	949.979
573.11	972.73
573.162	1010.26
573.214	1009.23
573.266	1031.36
573.302	1043.95
573.355	1018.19
573.407	1068
573.459	1054.1
573.511	1093.69
573.563	1094.24
573.615	1139.71
573.667	1171.02
573.719	1157.78
573.772	1166.14
573.824	1186.13
573.876	1194.61
573.928	1200.57
573.98	1249.39
574.032	1260.22
574.084	1285.46
574.136	1282.34
574.188	1316.12
574.241	1343.57
574.293	1346.3
574.345	1373.19
574.397	1411.66
574.449	1443.36
574.501	1445.31
574.553	1462.32
574.605	1505.7
574.657	1525.28
574.71	1535.27
574.762	1572.57
574.814	1586.55
574.866	1607.39
574.918	1603.19
574.97	1667.64
575.022	1633.17
575.074	1657.19
575.126	1719.39
575.178	1704.72
575.231	1738.81
575.283	1729.8
575.335	1745.33
575.387	1732.07
575.439	1790.33
575.491	1814.58
575.543	1816.72
575.595	1768.96
575.647	1851.35
575.7	1850.24
575.752	1815.42
575.804	1840.54
575.856	1783.34
575.908	1853.05
575.96	1823.55
576.012	1829.7
576.064	1848.01
576.116	1822.28
576.168	1841.98
576.22	1816.28
576.273	1835.53
576.325	1790.77
576.377	1790.14
576.429	1766.39
576.481	1796
576.533	1778.02
576.585	1778.48
576.637	1735.18
576.689	1717.72
576.741	1723.45
576.793	1714.57
576.846	1677.37
576.898	1639.76
576.95	1653.6
577.002	1635.73
577.054	1613.02
577.106	1576.69
577.158	1620.51
577.21	1568.56
577.262	1545.32
577.314	1529.08
577.366	1519.09
577.418	1534.46
577.471	1463.27
577.523	1451.99
577.575	1465.2
577.627	1433.26
577.679	1401.97
577.731	1436.19
577.783	1384.23
577.835	1397.14
577.887	1371.87
577.939	1364.44
577.991	1359.31
578.043	1346.33
578.095	1353.7
578.148	1311.26
578.2	1273.44
578.252	1291
578.304	1306.65
578.356	1264.73
578.408	1290.59
578.46	1267.83
578.512	1233.57
578.564	1262.21
578.616	1249.1
578.668	1270.07
578.72	1237.92
578.772	1243.33
578.824	1230.85
578.877	1251.87
578.929	1223.99
578.981	1183.51
579.033	1191.61
579.085	1185.47
579.137	1187.91
579.189	1185.17
579.241	1153.35
579.293	1157.73
579.345	1182.32
579.397	1171.07
579.449	1182.53
579.501	1158.55
579.553	1178.21
579.605	1200.67
579.658	1161.04
579.71	1179.31
579.762	1149.32
579.814	1174.37
579.866	1163.66
579.918	1167.07
579.97	1129.2
580.022	1158.9
580.074	1176.24
580.126	1163.84
580.178	1173.57
580.23	1165.64
580.282	1160.91
580.334	1181.88
580.386	1170.65
580.438	1148.06
580.49	1153.3
580.542	1169.75
580.595	1154.25
580.647	1157.75
580.699	1169.85
580.751	1195.06
580.803	1195.49
580.855	1167.19
580.907	1175.53
580.959	1186.36
581.011	1158.68
581.063	1182.12
581.115	1185.29
581.167	1167.89
581.219	1184.29
581.271	1205.79
581.323	1190.13
581.375	1173.49
581.427	1195.64
581.479	1187.75
581.531	1205.45
581.583	1206.26
581.635	1187.19
581.688	1202.89
581.74	1173.9
581.792	1201.8
581.844	1169.7
581.896	1230.55
581.948	1229.81
582	1199.5
582.052	1214.4
582.104	1228.83
582.156	1207.75
582.208	1224.18
582.26	1222.06
582.312	1229.59
582.364	1230.43
582.416	1260.17
582.468	1252.13
582.52	1240.8
582.572	1257.62
582.624	1242.36
582.676	1257.75
582.728	1236.18
582.78	1271.17
582.832	1232.6
582.884	1265.18
582.936	1273.94
582.988	1248.88
583.04	1242.01
583.092	1297.31
583.144	1269.09
583.196	1299.92
583.249	1258.11
583.301	1277.4
583.353	1286.96
583.405	1290.17
583.457	1290.91
583.509	1304.67
583.561	1324.72
583.613	1339.08
583.665	1313.88
583.717	1313.24
583.769	1329.1
583.821	1328.01
583.873	1351.26
583.925	1325.36
583.977	1315.79
584.029	1359.79
584.081	1352.27
584.133	1345.86
584.185	1319.78
584.237	1355.25
584.289	1374.7
584.341	1370.87
584.393	1389.8
584.445	1378.39
584.497	1365.56
584.549	1387.81
584.601	1387.79
584.653	1414.83
584.705	1400.33
584.757	1402.55
584.809	1414.1
584.861	1413.31
584.913	1431.19
584.965	1457.66
585.017	1432.95
585.069	1426.86
585.121	1467.48
585.173	1427.06
585.225	1424.44
585.277	1462.23
585.329	1452.1
585.381	1483.16
585.433	1452.12
585.485	1456.35
585.537	1479.27
585.589	1509.69
585.641	1479.74
585.693	1489.76
585.745	1513.85
585.797	1487.19
585.849	1493.86
585.901	1481.53
585.953	1487.37
586.005	1534.36
586.057	1509.81
586.109	1544.96
586.161	1521.8
586.213	1532.47
586.265	1539.11
586.317	1517.1
586.369	1527.01
586.421	1506.28
586.473	1562.39
586.525	1539.04
586.577	1591.81
586.629	1550.58
586.681	1557.89
586.733	1542.02
586.785	1573.3
586.837	1561.89
586.889	1564.06
586.941	1572.64
586.993	1568.81
587.045	1569.26
587.097	1565.49
587.149	1603.17
587.201	1589.13
587.253	1574.93
587.305	1611.12
587.357	1570.33
587.409	1581.74
587.461	1587.09
587.513	1588.21
587.565	1586.89
587.617	1600.67
587.669	1596.59
587.721	1586.23
587.773	1602.02
587.825	1619
587.877	1608.17
587.929	1620.02
587.981	1603.22
588.033	1594.67
588.085	1625.43
588.137	1593.08
588.189	1616.95
588.241	1625.09
588.293	1625.92
588.345	1619.28
588.397	1623.29
588.449	1628.7
588.501	1614.11
588.552	1598.23
588.604	1620.53
588.656	1604.39
588.708	1620.23
588.76	1637.01
588.812	1627.36
588.864	1654.38
588.916	1617.41
588.968	1614.74
589.02	1636.53
589.072	1630.78
589.124	1643.93
589.176	1645.57
589.228	1626.35
589.28	1652.87
589.332	1644.86
589.384	1655.11
589.436	1663.46
589.488	1637.92
589.54	1673.58
589.592	1664.8
589.644	1631.37
589.696	1650.71
589.748	1646.99
589.8	1646.58
589.852	1655.18
589.904	1634.03
589.956	1664.97
590.008	1671.68
590.06	1643.82
590.112	1664.62
590.163	1647.52
590.215	1635.37
590.267	1665.57
590.319	1647.75
590.371	1629.5
590.423	1662.83
590.475	1647.7
590.527	1640.04
590.579	1648.43
590.631	1624.58
590.683	1658.69
590.735	1666.71
590.787	1651.9
590.839	1653.34
590.891	1664.8
590.943	1676.04
590.995	1660.13
591.047	1643.01
591.099	1650.2
591.151	1659.99
591.203	1629.44
591.254	1625.57
591.306	1663.26
591.358	1655.38
591.41	1627.29
591.462	1650.24
591.514	1641.31
591.566	1634.69
591.618	1635.72
591.67	1645.61
591.722	1646.04
591.774	1632.1
591.826	1614.82
591.878	1632.24
591.93	1631.04
591.982	1652.4
592.034	1648.28
592.086	1606.62
592.137	1595.71
592.189	1627.01
592.241	1634.65
592.293	1629.4
592.345	1638.05
592.397	1617.45
592.449	1610.04
592.501	1587.5
592.553	1616.85
592.605	1627.42
592.657	1628.1
592.709	1632.08
592.761	1613.15
592.813	1587.55
592.865	1619.22
592.916	1605.81
592.968	1597.98
593.02	1600.54
593.072	1604.75
593.124	1618.58
593.176	1629.06
593.228	1606.09
593.28	1615.45
593.332	1606.24
593.384	1638.85
593.436	1623.31
593.488	1639.71
593.54	1632.46
593.591	1624.52
593.643	1634.97
593.695	1643.41
593.747	1624.67
593.799	1628.6
593.851	1638.37
593.903	1642.31
593.955	1617.07
594.007	1620.58
594.059	1645.03
594.111	1637.4
594.163	1633.58
594.215	1622.85
594.266	1633.97
594.318	1640.61
594.37	1658.48
594.422	1644.41
594.474	1643.95
594.526	1669.23
594.578	1659.74
594.63	1639.94
594.682	1639.77
594.734	1661.5
594.786	1657.66
594.837	1645.36
594.889	1656.64
594.941	1655.28
594.993	1641.68
595.045	1672.54
595.097	1683.05
595.149	1669.9
595.201	1682.09
595.253	1698.09
595.305	1690.32
595.357	1707.69
595.408	1696.66
595.46	1705.12
595.512	1710.27
595.564	1718.09
595.616	1715.98
595.668	1712.6
595.72	1710.67
595.772	1715.21
595.824	1717.21
595.876	1735.23
595.927	1737.08
595.979	1726.55
596.031	1731.11
596.083	1744.11
596.135	1722.21
596.187	1727.35
596.239	1738.23
596.291	1717.52
596.343	1738.84
596.394	1759.47
596.446	1760.29
596.498	1769.99
596.55	1776.2
596.602	1794.08
596.654	1811.39
596.706	1789.05
596.758	1761.15
596.81	1773.19
596.862	1780.64
596.913	1780.81
596.965	1764.43
597.017	1746.98
597.069	1747.56
597.121	1763.63
597.173	1774.89
597.225	1761.02
597.277	1769.26
597.328	1808.53
597.38	1821.1
597.432	1810.99
597.484	1778.89
597.536	1770.23
597.588	1800.85
597.64	1819.35
597.692	1794.7
597.744	1795.82
597.795	1812.23
597.847	1817.39
597.899	1824.46
597.951	1818.21
598.003	1830.9
598.055	1839.46
598.107	1842.26
598.159	1861.01
598.21	1833.46
598.262	1813.18
598.314	1830.69
598.366	1850.17
598.418	1850.17
598.47	1863.63
598.522	1854.12
598.574	1865.96
598.625	1883.53
598.677	1862.02
598.729	1856.94
598.781	1844.08
598.833	1851.86
598.885	1851.1
598.937	1820.14
598.988	1841.61
599.04	1874.55
599.092	1882.18
599.144	1833.12
599.196	1831.13
599.248	1861.72
599.3	1866.85
599.352	1911.24
599.403	1876.62
599.455	1857.47
599.507	1851.51
599.559	1843.9
599.611	1854.24
599.663	1866.71
599.715	1852.96
599.766	1845.65
599.803	1885.96
599.855	1925.88
599.907	1923.87
599.959	1882.05
600.011	1893.74
600.063	1907.58
600.115	1915.55
600.167	1921.7
600.219	1899.65
600.271	1966.93
600.323	1893.91
600.375	1917.85
600.427	1886.37
600.479	1908.13
600.531	1864.94
600.583	1908.26
600.635	1900.79
600.686	1913.5
600.738	1908.3
600.79	1917.57
600.842	1900.06
600.894	1867.83
600.946	1929.53
600.998	1912.13
601.05	1888.11
601.102	1901.3
601.154	1895.55
601.206	1931.13
601.258	1902.48
601.31	1874.18
601.362	1964.53
601.414	1915.25
601.466	1931.87
601.518	1955.28
601.57	1959.83
601.622	1938.91
601.674	1930.41
601.726	1903.44
601.778	1936.92
601.83	1908.92
601.882	1924.36
601.934	1918.78
601.986	1906.36
602.038	1932.01
602.09	1919.48
602.142	1930.67
602.194	1936.91
602.246	1896.46
602.298	1943.74
602.35	1886.52
602.402	1946.94
602.454	1950.42
602.506	1992.02
602.558	1927.78
602.61	1923.59
602.662	1933.16
602.714	1944.9
602.766	1943.78
602.818	1966.2
602.87	1934.92
602.922	1960.6
602.974	1956.83
603.026	1918.58
603.078	1954.62
603.13	1974.87
603.182	1961.11
603.234	1972.94
603.285	1949.68
603.337	1975.84
603.389	1968.44
603.441	1987.08
603.493	1943.6
603.545	1963.79
603.597	1991.67
603.649	1959.37
603.701	1970.01
603.753	1976.22
603.805	1961.42
603.857	1961.67
603.909	1995.31
603.961	1953.47
604.013	1983.22
604.065	1988.09
604.117	1976.24
604.169	1995.13
604.221	1990.62
604.273	1951.53
604.325	1955.4
604.377	1971.92
604.429	1984.01
604.481	1979.07
604.533	1962.04
604.584	2016
604.636	1984.2
604.688	1997.54
604.74	2014.01
604.792	1977.12
604.844	1994.19
604.896	2031.78
604.948	1949.27
605	2020.89
605.052	1972.81
605.104	2000.51
605.156	2015.18
605.208	1996.89
605.26	2021.19
605.312	1986.51
605.364	1998.86
605.416	1983.63
605.468	2026.73
605.52	1964.84
605.572	1986.63
605.623	1952.04
605.675	1982.16
605.727	1997.57
605.779	1997.26
605.831	2008.83
605.883	1992.38
605.935	2005.47
605.987	1999.93
606.039	2021.41
606.091	1994.77
606.143	1994.02
606.195	2001.81
606.247	2028.91
606.299	1982.51
606.351	2015.47
606.403	1990.62
606.455	2005.45
606.506	1976.96
606.558	1976.45
606.61	1976.42
606.662	1981.79
606.714	2000.31
606.766	1999.26
606.818	1975.43
606.87	1972.6
606.922	2034.36
606.974	1995.28
607.026	1997.82
607.078	1968.75
607.13	1966.23
607.182	2001.3
607.234	1980.28
607.285	2001.33
607.337	1997.6
607.389	2024.85
607.441	2040.78
607.493	2027.05
607.545	1994.23
607.597	2024.45
607.649	2008.76
607.701	2029.69
607.753	2020.96
607.805	2012.57
607.857	2003.76
607.909	2030.31
607.96	2036.11
608.012	2028.42
608.064	2011.81
608.116	2039.53
608.168	2057.31
608.22	2021.84
608.272	2054.25
608.324	1984.7
608.376	2056.9
608.428	2037.71
608.48	2057.65
608.532	2025.58
608.583	2068.96
608.635	2067.8
608.687	2033.71
608.739	2047.24
608.791	2048.66
608.843	2038.45
608.895	2083.81
608.947	2066.91
608.999	2093.3
609.051	2025.57
609.103	2073.24
609.155	2086.11
609.206	2094.91
609.258	2093.95
609.31	2093.35
609.362	2084.21
609.414	2106.77
609.466	2095.84
609.518	2071.75
609.57	2080.53
609.622	2102.89
609.674	2105.1
609.725	2109.25
609.777	2096.27
609.829	2125.82
609.881	2134.92
609.933	2094.21
609.985	2100.18
610.037	2110.99
610.089	2114.95
610.141	2141.33
610.193	2105.67
610.245	2118.3
610.296	2140.69
610.348	2150.5
610.4	2156.22
610.452	2112.31
610.504	2083.48
610.556	2153.72
610.608	2123.37
610.66	2107.45
610.712	2119.33
610.763	2154.7
610.815	2146.1
610.867	2140.82
610.919	2146.6
610.971	2135.23
611.023	2165.03
611.075	2110.76
611.127	2172.66
611.179	2110.53
611.23	2167.86
611.282	2159.3
611.334	2167.48
611.386	2128.05
611.438	2175.09
611.49	2141.92
611.542	2138.39
611.594	2157.68
611.646	2188.43
611.697	2168.64
611.749	2173.9
611.801	2161.53
611.853	2155.62
611.905	2204.4
611.957	2179.46
612.009	2202.68
612.061	2196.03
612.113	2198.27
612.164	2175.04
612.216	2202.64
612.268	2191.45
612.32	2214.43
612.372	2222.32
612.424	2232.61
612.476	2221.36
612.528	2226.08
612.579	2211.8
612.631	2248.24
612.683	2261.78
612.735	2247.06
612.787	2212.89
612.839	2248.6
612.891	2206.84
612.943	2247.88
612.994	2226.49
613.046	2266.62
613.098	2269.29
613.15	2222.46
613.202	2233.29
613.254	2248.85
613.306	2238.34
613.357	2244.55
613.409	2269.43
613.461	2278.5
613.513	2288.53
613.565	2270.65
613.617	2261.71
613.669	2285.08
613.721	2278.75
613.772	2290.39
613.824	2263.51
613.876	2278.56
613.928	2298.15
613.98	2320.78
614.032	2292.37
614.084	2291
614.135	2312.35
614.187	2305.7
614.239	2317.69
614.291	2318.19
614.343	2324.82
614.395	2350.52
614.447	2360.79
614.498	2350.25
614.55	2338.24
614.602	2335.74
614.654	2370.58
614.706	2360.3
614.758	2366.2
614.81	2373.67
614.861	2379.57
614.913	2354.75
614.965	2352.87
615.017	2361.24
615.069	2384.42
615.121	2410.2
615.172	2395.68
615.224	2391.15
615.276	2368.22
615.328	2367.72
615.38	2413.92
615.432	2439.71
615.484	2427.26
615.535	2393.86
615.587	2383.13
615.639	2421.37
615.691	2424.66
615.743	2433.85
615.795	2447.06
615.846	2461.72
615.898	2434.82
615.95	2437.3
616.002	2416.29
616.054	2451.32
616.106	2453.05
616.158	2451.69
616.209	2459.92
616.261	2468.89
616.313	2479.93
616.365	2485.83
616.417	2459.38
616.469	2491.59
616.52	2494.26
616.572	2496.96
616.624	2521.84
616.676	2498.93
616.728	2483.9
616.78	2514.14
616.831	2533.4
616.883	2519.3
616.935	2563.13
616.987	2545.79
617.039	2522.89
617.091	2541.22
617.142	2554.48
617.194	2543.03
617.246	2513.42
617.298	2582.37
617.35	2542.32
617.401	2550.96
617.453	2538.48
617.505	2569.08
617.557	2582.89
617.609	2589.22
617.661	2597.78
617.712	2605.82
617.764	2578.28
617.816	2580.91
617.868	2599.63
617.92	2615.73
617.972	2588.12
618.023	2612.46
618.075	2624.14
618.127	2630.69
618.179	2649.37
618.231	2631.14
618.282	2602.64
618.334	2659.71
618.386	2666.52
618.438	2683.66
618.49	2669.68
618.542	2682.2
618.593	2654.22
618.645	2665.59
618.697	2673.68
618.749	2638.66
618.801	2666.01
618.852	2682.97
618.904	2673.36
618.956	2673.1
619.008	2672.62
619.06	2693.23
619.111	2721.1
619.163	2716.7
619.215	2742.24
619.267	2733.13
619.319	2725.15
619.37	2707.46
619.422	2742.2
619.474	2745.36
619.526	2710.3
619.578	2749.77
619.63	2787.03
619.681	2766.34
619.733	2745
619.785	2756.81
619.837	2779.03
619.888	2750.47
619.94	2753.17
619.992	2776.78
620.044	2758.88
620.096	2792.28
620.147	2778.86
620.199	2813.94
620.251	2786.58
620.303	2786.09
620.355	2797.55
620.406	2817.07
620.458	2774.45
620.51	2836.46
620.562	2817.53
620.614	2818.88
620.665	2794.82
620.717	2785.92
620.769	2833.7
620.821	2801.05
620.873	2778.96
620.924	2817.17
620.976	2848.24
621.028	2807.95
621.08	2852.48
621.132	2853.14
621.183	2864.91
621.235	2840.38
621.287	2831.5
621.339	2829.89
621.39	2849.3
621.442	2851.3
621.494	2843.7
621.546	2856
621.598	2923.22
621.649	2878.34
621.701	2860.73
621.753	2856.25
621.805	2852.5
621.856	2826.18
621.908	2859.26
621.96	2868.95
622.012	2857.75
622.064	2898.76
622.115	2853.42
622.167	2898.27
622.219	2800.94
622.271	2812.79
622.322	2877.88
622.374	2890.28
622.426	2857.98
622.478	2850.63
622.53	2881.99
622.581	2881.55
622.633	2913.79
622.685	2910.17
622.737	2909.28
622.788	2928.75
622.84	2857.09
622.892	2901.56
622.944	2921.25
622.995	2940.89
623.047	2875.96
623.099	2938.58
623.151	2904.7
623.203	2926.8
623.254	2918.13
623.306	2911.44
623.358	2917.84
623.41	2925.58
623.461	2882.27
623.513	2914.05
623.565	2939.87
623.617	2906.28
623.668	2904.8
623.72	2864.52
623.772	2930.96
623.824	2932.35
623.875	2917.65
623.927	2915.99
623.979	2931.6
624.031	2920.04
624.082	2978.77
624.134	2940.75
624.186	2983.84
624.238	2942.72
624.289	2941
624.341	2927.86
624.393	2900.64
624.445	2935.58
624.496	2963.76
624.548	2961.14
624.6	2940.67
624.652	2973.65
624.703	2961.17
624.755	2933.75
624.807	2939.42
624.859	2946.32
624.91	2953.63
624.962	2977.99
625.014	2922.41
625.066	2998.77
625.117	2990.31
625.169	2919.44
625.221	3041.51
625.273	2957.83
625.324	3015.26
625.376	3049.8
625.428	3038.64
625.48	3019.49
625.531	3029.94
625.583	2973.42
625.635	3078.44
625.687	3011.02
625.738	3059.22
625.79	2991.04
625.842	3036.4
625.893	3027.72
625.945	3063.25
625.997	3059.97
626.049	3110.21
626.1	3044.47
626.152	3023.67
626.204	3037.29
626.256	3083.58
626.307	3040.16
626.316	3029.44
626.368	3049.61
626.42	2990.43
626.472	3110.2
626.523	3078.8
626.575	3050.98
626.627	3083.95
626.679	3090.81
626.731	3022.59
626.783	3119.1
626.835	3105.96
626.887	3091.97
626.938	3103.09
626.99	3102.23
627.042	3107.35
627.094	3064.55
627.146	3115.22
627.198	3130.22
627.25	3127.94
627.302	3098.18
627.353	3080.7
627.405	3065.9
627.457	3131.31
627.509	3082.28
627.561	3082.26
627.613	3138.36
627.665	3143.12
627.716	3165.22
627.768	3184.59
627.82	3183.77
627.872	3141.09
627.924	3189.12
627.976	3194.17
628.028	3162.5
628.079	3165.22
628.131	3216.88
628.183	3181.67
628.235	3158.83
628.287	3092.88
628.339	3187.53
628.391	3181.38
628.443	3179.9
628.494	3218.22
628.546	3252.26
628.598	3183.7
628.65	3282.2
628.702	3200.58
628.754	3257.24
628.805	3224.39
628.857	3275.62
628.909	3271.24
628.961	3249.35
629.013	3238.81
629.065	3285.07
629.117	3272.12
629.168	3294.91
629.22	3271.6
629.272	3303.2
629.324	3196.49
629.376	3254.11
629.428	3274.34
629.479	3235.77
629.531	3257.79
629.583	3260.92
629.635	3298.67
629.687	3240.72
629.739	3302.46
629.791	3303.63
629.842	3328.16
629.894	3301.59
629.946	3312.63
629.998	3310.55
630.05	3307.28
630.102	3312.44
630.153	3318.86
630.205	3327.71
630.257	3334.52
630.309	3321.58
630.361	3340.72
630.413	3304.7
630.464	3293.65
630.516	3374.13
630.568	3324.2
630.62	3345.03
630.672	3326.24
630.724	3326.96
630.776	3381.55
630.827	3363.51
630.879	3359.93
630.931	3360.86
630.983	3378.86
631.035	3393.43
631.086	3350.81
631.138	3450.37
631.19	3411.54
631.242	3400.59
631.294	3430.36
631.346	3426.31
631.397	3449.53
631.449	3420.02
631.501	3448.84
631.553	3435.57
631.605	3452.31
631.657	3451.68
631.708	3485.62
631.76	3432.93
631.812	3437.06
631.864	3515.09
631.916	3498.04
631.967	3505.73
632.019	3565.9
632.071	3538.49
632.123	3476.65
632.175	3535.84
632.227	3499.1
632.278	3488.63
632.33	3566.67
632.382	3544.36
632.434	3552.24
632.486	3510.46
632.537	3571.09
632.589	3539.91
632.641	3522.55
632.693	3543.8
632.745	3544.91
632.797	3611.2
632.848	3554
632.9	3603.57
632.952	3641.45
633.004	3602.79
633.056	3624.19
633.107	3608.87
633.159	3637.05
633.211	3669.03
633.263	3661.87
633.315	3681.66
633.366	3671.6
633.418	3648.6
633.47	3656.55
633.522	3643.41
633.574	3673.57
633.625	3736.3
633.677	3674.9
633.729	3665.41
633.781	3704.69
633.833	3720.95
633.885	3731.1
633.936	3736.29
633.988	3741.04
634.04	3789.2
634.092	3799.2
634.143	3774.7
634.195	3791.82
634.247	3782.47
634.299	3826.2
634.351	3849.66
634.403	3821.47
634.454	3886.55
634.506	3847.54
634.558	3833
634.61	3847.13
634.661	3888.3
634.713	3883.29
634.765	3947.3
634.817	3946.88
634.869	3966.21
634.92	3950.28
634.972	3946.4
635.024	3964.93
635.076	4026.98
635.128	4019.44
635.179	4047.65
635.231	4073.46
635.283	4041.41
635.335	4044.35
635.387	4092.04
635.438	4116.05
635.49	4139.42
635.542	4180.08
635.594	4158.64
635.645	4170.2
635.697	4230.1
635.749	4249.3
635.801	4262.03
635.853	4314.19
635.904	4323.27
635.956	4339.11
636.008	4410.13
636.06	4430.83
636.112	4443.96
636.163	4461.86
636.215	4464.5
636.267	4546.55
636.319	4560.32
636.37	4593.71
636.422	4611.18
636.474	4632.51
636.526	4705.94
636.577	4695.9
636.629	4802.61
636.681	4816.41
636.733	4820.84
636.785	4901.4
636.836	4932.95
636.888	4955.1
636.94	4993.81
636.992	5033.74
637.043	5056.94
637.095	5063.29
637.147	5071.44
637.199	5171.95
637.25	5203.34
637.302	5234.33
637.354	5285.24
637.406	5296
637.458	5280.25
637.509	5372.89
637.561	5390.84
637.613	5462.43
637.665	5460.88
637.716	5515.81
637.768	5553.87
637.82	5550.96
637.872	5541.35
637.923	5631.84
637.975	5618.1
638.027	5592.27
638.079	5653.34
638.13	5639.55
638.182	5681.93
638.234	5713.25
638.286	5738.24
638.337	5782
638.389	5738.75
638.441	5737.01
638.493	5776.1
638.544	5758.98
638.596	5754.89
638.648	5729.94
638.7	5748.68
638.752	5694.02
638.803	5712.79
638.855	5717.29
638.907	5674.66
638.958	5645.38
639.01	5609.09
639.062	5644.45
639.114	5577.47
639.165	5576.65
639.217	5557.54
639.269	5480.49
639.321	5467.14
639.372	5415.88
639.424	5422.94
639.476	5404.74
639.528	5435.11
639.579	5376.79
639.631	5337.42
639.683	5298.94
639.735	5251.57
639.786	5221.68
639.838	5170.06
639.89	5164.31
639.942	5203.18
639.993	5209.92
640.045	5160.74
640.097	5105.4
640.149	5092.43
640.2	5021.62
640.252	5022.29
640.304	5048.74
640.356	4989.86
640.407	5007.86
640.459	4961.44
640.511	4995.65
640.562	4960.33
640.614	4948.28
640.666	4958.6
640.718	4914.43
640.769	4943.67
640.821	4929.63
640.873	4864.7
640.925	4896.64
640.976	4884.76
641.028	4840.63
641.08	4872.54
641.131	4806
641.183	4844.72
641.235	4867.9
641.287	4810.01
641.338	4802.74
641.39	4802.83
641.442	4836.28
641.494	4855.23
641.545	4846.22
641.597	4802.23
641.649	4820.1
641.7	4807.56
641.752	4771.17
641.804	4795.72
641.856	4776.05
641.907	4752.23
641.959	4786.68
642.011	4836.43
642.063	4754.68
642.114	4774.13
642.166	4775.07
642.218	4793.25
642.269	4798.79
642.321	4772.93
642.373	4803.58
642.424	4778.22
642.476	4790.55
642.528	4773.89
642.58	4795.71
642.631	4764.93
642.683	4814.83
642.735	4827.45
642.786	4777.41
642.838	4803.57
642.89	4831.19
642.942	4795.93
642.993	4823.06
643.045	4791.23
643.097	4795.5
643.148	4812.94
643.2	4815.28
643.252	4848.98
643.304	4809.89
643.355	4843.98
643.407	4811.8
643.459	4856.01
643.51	4832.08
643.562	4824.28
643.614	4822.49
643.665	4814.85
643.717	4857.84
643.769	4838.56
643.82	4824.79
643.872	4901.01
643.924	4865.41
643.976	4903.12
644.027	4914.21
644.079	4908.51
644.131	4834.5
644.182	4849.52
644.234	4826.96
644.286	4898.19
644.337	4919.93
644.389	4937.45
644.441	4908.74
644.493	4966.03
644.544	4932.75
644.596	4960.61
644.648	4934
644.699	4876.95
644.751	4899.03
644.803	4943.54
644.854	4925.4
644.906	4947.38
644.958	4908.02
645.009	4968.56
645.061	4935.38
645.113	4942.98
645.164	4921.5
645.216	4967.55
645.268	4957.65
645.32	4945.11
645.371	4905.04
645.423	5012.54
645.475	4939.06
645.526	4950.81
645.578	4981.41
645.63	4936.1
645.681	5047.35
645.733	5015.87
645.785	4964.65
645.836	5003.95
645.888	5023.26
645.94	5008.3
645.991	5026.79
646.043	5051.12
646.095	5078.99
646.146	5045.42
646.198	5066.92
646.25	5038.97
646.301	5081.16
646.353	4990.63
646.405	5050.41
646.456	5081.74
646.508	5115.13
646.56	5062.83
646.611	5087.68
646.663	5044.74
646.715	5080.61
646.766	5086.55
646.818	5135.31
646.87	5101.99
646.921	5082.25
646.973	5110.75
647.025	5124.56
647.076	5102.89
647.128	5159.09
647.18	5120.26
647.231	5151.44
647.283	5103.65
647.335	5159.75
647.386	5119.53
647.438	5124.19
647.49	5166.4
647.541	5198.94
647.593	5242.09
647.645	5146.61
647.696	5167.68
647.748	5200.85
647.8	5198.23
647.851	5204.2
647.903	5200.78
647.955	5214.03
648.006	5234.55
648.058	5230.87
648.109	5206.51
648.161	5246.38
648.213	5249.56
648.264	5248.77
648.316	5258.03
648.368	5261.73
648.419	5217.18
648.471	5302.99
648.523	5283.33
648.574	5312.16
648.626	5249.99
648.678	5283.73
648.729	5286.57
648.781	5290.9
648.833	5278.76
648.884	5322.85
648.936	5262.1
648.987	5312.84
649.039	5311.24
649.091	5340.5
649.142	5438.38
649.194	5412.25
649.246	5400.19
649.297	5433.98
649.349	5416.42
649.401	5360.02
649.452	5375.46
649.504	5445.16
649.555	5412.85
649.607	5400.19
649.659	5445.33
649.71	5388.71
649.762	5473.21
649.814	5408.84
649.865	5460.18
649.917	5458.01
649.969	5490.9
650.02	5509.48
650.072	5461.64
650.123	5458.7
650.175	5495.84
650.227	5517.84
650.278	5508.7
650.33	5560.83
650.382	5555.8
650.433	5558.82
650.485	5549.99
650.536	5583.79
650.588	5627.63
650.64	5644.97
650.691	5585.84
650.743	5654.34
650.795	5628.05
650.846	5649.77
650.898	5652.28
650.949	5650.27
651.001	5732.39
651.053	5657.31
651.104	5643.51
651.156	5646.39
651.208	5639.02
651.259	5640.24
651.311	5631.1
651.362	5698.47
651.414	5693.68
651.466	5729.91
651.517	5722.03
651.569	5714.38
651.62	5726.66
651.672	5760.45
651.724	5705.75
651.775	5672.33
651.827	5746.23
651.878	5791
651.93	5779.5
651.982	5723.96
652.033	5796.53
652.085	5820.09
652.137	5855.69
652.188	5842.89
652.24	5842.27
652.291	5845.72
652.343	5852.51
652.395	5866.33
652.446	5870.35
652.498	5885.58
652.549	5890.59
652.601	5930.35
652.653	5897.29
652.704	5922.18
652.756	5950.75
652.772	5953.62
652.824	5917.89
652.876	5860.55
652.927	5960.35
652.979	5993.56
653.031	5885.86
653.083	5909.46
653.134	5828.99
653.186	5971.98
653.238	6054.33
653.29	6026.94
653.341	6026.72
653.393	5955.32
653.445	6020.88
653.497	6016.41
653.548	6037.4
653.6	6086.99
653.652	6047.83
653.704	6149.94
653.755	6109.33
653.807	6108.32
653.859	6102.38
653.91	6042.17
653.962	6118.65
654.014	6137.67
654.066	6244.26
654.117	6202.61
654.169	6128.69
654.221	6234.02
654.273	6158.9
654.324	6226.08
654.376	6264.03
654.428	6162.54
654.48	6268.83
654.531	6256.73
654.583	6299
654.635	6325.98
654.686	6238.75
654.738	6348.22
654.79	6312.09
654.842	6304.19
654.893	6415.39
654.945	6377.05
654.997	6430.86
655.049	6391.44
655.1	6460.23
655.152	6297.31
655.204	6423.94
655.255	6490.65
655.307	6452.05
655.359	6404.94
655.411	6497.02
655.462	6528.23
655.514	6464.44
655.566	6573.57
655.618	6556.48
655.669	6562.67
655.721	6554.53
655.773	6551.09
655.824	6600.38
655.876	6580.37
655.928	6607.03
655.98	6581.4
656.031	6685.63
656.083	6648.69
656.135	6679.4
656.186	6704.54
656.238	6752.33
656.29	6693.59
656.342	6725.77
656.393	6762.18
656.445	6704.33
656.497	6712.04
656.548	6781.34
656.6	6830.1
656.652	6796.93
656.704	6815.15
656.755	6893.7
656.807	6866.92
656.859	6845.84
656.91	6853.61
656.962	6950.27
657.014	6912.2
657.065	6905.04
657.117	6988.83
657.169	6974.29
657.221	6986.37
657.272	6963.99
657.324	7049.17
657.376	7082.77
657.427	6992.63
657.479	7039.26
657.531	7023.48
657.583	6998.79
657.634	7135.93
657.686	7169.86
657.738	7122.13
657.789	7119.08
657.841	7093.01
657.893	7139.45
657.944	7055.89
657.996	7123.65
658.048	7137.37
658.099	7149.11
658.151	7203.17
658.203	7176.32
658.255	7170.14
658.306	7184.98
658.358	7172.89
658.41	7198.41
658.461	7246.88
658.513	7212.17
658.565	7154.38
658.616	7284.52
658.668	7213.15
658.72	7275.67
658.771	7248.38
658.823	7309.49
658.875	7358.59
658.927	7304.33
658.978	7269.32
659.03	7218.73
659.082	7266.31
659.133	7286.08
659.185	7303.32
659.237	7220.94
659.288	7323.24
659.34	7261.08
659.392	7364.45
659.443	7410.61
659.495	7354.47
659.547	7352.96
659.598	7332.09
659.65	7358.58
659.702	7277.46
659.753	7368.35
659.805	7291.81
659.857	7368
659.909	7336.25
659.96	7274.31
660.012	7322.73
660.064	7389.83
660.115	7363.81
660.167	7346.98
660.219	7296.38
660.27	7390.54
660.322	7328.32
660.374	7410.38
660.425	7336.55
660.477	7379.14
660.529	7382.52
660.58	7415.02
660.632	7313.49
660.684	7366.03
660.735	7415.84
660.787	7366.03
660.839	7384.01
660.89	7385.26
660.942	7405.62
660.994	7337.59
661.045	7414.55
661.097	7385.89
661.149	7403.61
661.2	7374.78
661.252	7350.6
661.304	7390.51
661.355	7382.24
661.407	7372.33
661.459	7359.83
661.51	7373.37
661.562	7421.8
661.614	7408.43
661.665	7375.48
661.717	7318.72
661.768	7344.12
661.82	7375.63
661.872	7330.4
661.923	7367.79
661.975	7400.86
662.027	7393.21
662.078	7387.11
662.13	7382.28
662.182	7402.54
662.233	7378.47
662.285	7406.61
662.337	7408.78
662.388	7454.56
662.44	7389.18
662.492	7389.94
662.543	7404.73
662.595	7415.53
662.647	7365.94
662.698	7392.32
662.75	7361.48
662.802	7370.1
662.853	7369.86
662.905	7379.21
662.956	7351.78
663.008	7399.97
663.06	7408
663.111	7412.69
663.163	7369.85
663.215	7421.99
663.266	7355.62
663.318	7346.06
663.37	7391.29
663.421	7377.86
663.473	7416.09
663.525	7433.96
663.576	7372.29
663.628	7441.43
663.679	7372.84
663.731	7377.63
663.783	7417.84
663.834	7409.91
663.886	7400.54
663.938	7412.98
663.989	7422.42
664.041	7388.07
664.093	7453.96
664.144	7438.35
664.196	7440.85
664.247	7412.09
664.299	7404.97
664.351	7386.76
664.402	7408.29
664.454	7465.96
664.506	7495.95
664.557	7411.3
664.609	7400.84
664.66	7421.36
664.712	7430.94
664.764	7412.27
664.815	7319.2
664.867	7404.73
664.919	7407.99
664.97	7439.54
665.022	7407.06
665.073	7407.95
665.125	7396.92
665.177	7355.1
665.228	7407.84
665.28	7316.19
665.332	7358.71
665.383	7352.33
665.435	7329.16
665.486	7359.52
665.538	7350.72
665.59	7348.95
665.641	7350.84
665.693	7394.79
665.745	7293.06
665.796	7294.27
665.848	7354.3
665.899	7377.52
665.951	7375.82
666.003	7371.66
666.054	7325.12
666.106	7315.72
666.157	7371.15
666.209	7399.06
666.261	7357.16
666.312	7351.96
666.364	7369.62
666.415	7409.07
666.467	7343.68
666.519	7321.73
666.57	7375.68
666.622	7350.08
666.673	7275.61
666.725	7362.39
666.777	7382.13
666.828	7354.03
666.88	7350.98
666.931	7342.16
666.983	7363.62
667.035	7369.68
667.086	7319.72
667.138	7336.35
667.189	7366.74
667.241	7309.16
667.293	7314.96
667.344	7352.18
667.396	7370.43
667.447	7356.12
667.499	7322.55
667.551	7408.05
667.602	7326.52
667.654	7355.25
667.705	7403.56
667.757	7348.38
667.809	7407.78
667.86	7335.07
667.912	7362.36
667.963	7339.09
668.015	7347.04
668.067	7342.55
668.118	7296.33
668.17	7307.26
668.221	7338.59
668.273	7288.43
668.325	7333.01
668.376	7301.97
668.428	7305.35
668.479	7320.85
668.531	7317.89
668.582	7267.83
668.634	7336.1
668.686	7368.36
668.737	7357.06
668.789	7361.33
668.84	7300.93
668.892	7357.7
668.944	7347.18
668.995	7375.19
669.047	7390.92
669.098	7388.53
669.15	7328.51
669.201	7299.1
669.253	7366.89
669.305	7306.14
669.356	7362.96
669.408	7341.13
669.459	7281.44
669.511	7327.93
669.562	7324.17
669.614	7274.23
669.666	7396.46
669.717	7351.78
669.769	7407.87
669.82	7294.84
669.872	7347.6
669.923	7368.8
669.975	7295.6
670.027	7338.17
670.078	7387.54
670.13	7370.29
670.181	7376.67
670.233	7322.12
670.284	7322.03
670.336	7303.98
670.388	7364.19
670.439	7381.97
670.491	7390.13
670.542	7350.42
670.594	7365.16
670.645	7340.62
670.697	7314.47
670.748	7401.65
670.8	7340.56
670.852	7300.58
670.903	7295.75
670.955	7344.14
671.006	7360.32
671.058	7285.44
671.109	7373.9
671.161	7317.53
671.212	7325.22
671.264	7408.62
671.316	7340.18
671.367	7360.71
671.419	7319.21
671.47	7382.62
671.522	7338.96
671.573	7315.72
671.625	7325.05
671.676	7315.22
671.728	7353.8
671.78	7339.86
671.831	7362.42
671.883	7395.82
671.934	7361.59
671.986	7369.31
672.037	7428.77
672.089	7368.73
672.14	7422.05
672.192	7413.82
672.243	7483.54
672.295	7418.4
672.347	7454.72
672.398	7353.58
672.45	7393.75
672.501	7360.39
672.553	7385.28
672.604	7437.25
672.656	7459.26
672.707	7457.61
672.759	7444.29
672.81	7440.65
672.862	7470.48
672.913	7455.54
672.965	7470.27
673.017	7413.44
673.068	7451.92
673.12	7461
673.171	7509.11
673.223	7525.21
673.274	7423.97
673.326	7446.05
673.377	7496.08
673.429	7519.12
673.48	7592.87
673.532	7616.54
673.583	7578.99
673.635	7511.34
673.686	7547.27
673.738	7615.33
673.789	7611.53
673.841	7556.1
673.893	7581.73
673.944	7562.69
673.996	7552.5
674.047	7584.87
674.099	7622.03
674.15	7635.02
674.202	7655.92
674.253	7658.92
674.305	7717.62
674.356	7679.83
674.408	7682.97
674.459	7673.41
674.511	7656.48
674.562	7666.34
674.614	7706.48
674.665	7694.67
674.717	7720.99
674.768	7773.9
674.82	7772.11
674.871	7747.24
674.923	7705.46
674.974	7688.61
675.026	7749.43
675.077	7744.23
675.129	7673.59
675.18	7679.52
675.232	7741.08
675.284	7791.51
675.335	7805.42
675.387	7796.28
675.438	7781.72
675.49	7766.67
675.541	7774.09
675.593	7812.33
675.644	7809.01
675.696	7801.22
675.747	7849.37
675.799	7849.2
675.85	7838.84
675.902	7871.99
675.953	7883.43
676.005	7844.16
676.056	7859.55
676.108	7909.25
676.159	7900.68
676.211	7876.35
676.262	7840.48
676.314	7888.48
676.365	7873.35
676.417	7883.7
676.468	7852.13
676.52	7862.97
676.571	7905.81
676.623	7933.58
676.674	7927.84
676.726	7904.23
676.777	7893.86
676.828	7908.41
676.88	7913.24
676.932	7917.75
676.983	7900.17
677.034	7937.99
677.086	7914.72
677.137	7878.31
677.189	7831.01
677.24	7868.8
677.292	7927.53
677.343	7900.69
677.395	7912.76
677.446	7883.85
677.498	7881.34
677.549	7904.92
677.601	7936.8
677.652	7935.3
677.704	7900.8
677.755	7908.6
677.807	7865.41
677.858	7857.79
677.91	7904.31
677.961	7901.72
678.013	7872.41
678.064	7903.88
678.116	7871.51
678.167	7888.02
678.219	7959.73
678.27	7965.47
678.322	7911.33
678.373	7832.39
678.424	7859.5
678.476	7895.11
678.527	7889.89
678.579	7895.53
678.63	7931.81
678.682	7952.07
678.733	7903.02
678.785	7907.15
678.836	7954.66
678.888	7966.93
678.939	7924.37
678.991	7880.62
679.042	7899.59
679.094	7886.38
679.122	7862.44
679.173	7912.6
679.225	7843.05
679.277	7998.14
679.328	7946.45
679.38	7919.38
679.432	7908.87
679.483	7875.78
679.535	7960.22
679.586	7887.53
679.638	7855.3
679.69	7951.89
679.741	7884.51
679.793	7979.1
679.844	7993.3
679.896	7872.92
679.948	8026.53
679.999	8003.73
680.051	7967.74
680.103	7990.74
680.154	7978.2
680.206	7948.72
680.257	7923.55
680.309	7991.48
680.361	7932.47
680.412	7955.72
680.464	7991.32
680.515	7944.65
680.567	8000.45
680.619	7970.87
680.67	7992.14
680.722	8018.23
680.773	8018.06
680.825	8036.94
680.877	7934.2
680.928	7950.23
680.98	8004.75
681.031	7992.54
681.083	8079.66
681.135	8030.66
681.186	8095.1
681.238	8102.07
681.289	8103.78
681.341	8126.36
681.393	8154.95
681.444	8078.48
681.496	8022.9
681.547	8120.66
681.599	8015.21
681.651	8074.21
681.702	8147.5
681.754	8158.44
681.805	8102.32
681.857	8129.93
681.909	8094.08
681.96	8221.03
682.012	8140.85
682.063	8113.95
682.115	8157.77
682.166	8138.65
682.218	8210.14
682.27	8179.23
682.321	8144.4
682.373	8080.3
682.424	8102.18
682.476	8125.76
682.528	8150.28
682.579	8090.16
682.631	8225.33
682.682	8206.77
682.734	8143.29
682.785	8238.81
682.837	8205.19
682.889	8229.24
682.94	8220.67
682.992	8135.23
683.043	8251.27
683.095	8219.37
683.146	8237.33
683.198	8203.87
683.25	8154.88
683.301	8189.57
683.353	8214.17
683.404	8180.54
683.456	8207.54
683.508	8140.94
683.559	8218.82
683.611	8216.49
683.662	8155.42
683.714	8174.61
683.765	8169.95
683.817	8166.37
683.869	8150
683.92	8183.34
683.972	8145.37
684.023	8205.9
684.075	8171.59
684.126	8227.59
684.178	8159.44
684.229	8209.71
684.281	8117.47
684.333	8163.85
684.384	8115.18
684.436	8137.06
684.487	8175
684.539	8218.81
684.59	8226.33
684.642	8166.3
684.694	8209.51
684.745	8137.22
684.797	8158.54
684.848	8164.16
684.9	8119.72
684.951	8153.96
685.003	8089.73
685.055	8151.1
685.106	8100.21
685.158	8111.72
685.209	8105.23
685.261	8105.1
685.312	8099.63
685.364	8118.3
685.415	8122.87
685.467	8108.86
685.518	8036.99
685.57	8095.89
685.622	8104.05
685.673	8099.71
685.725	8093.8
685.776	8027.68
685.828	8072.87
685.879	8169.86
685.931	8109.67
685.982	8003.49
686.034	8062.47
686.086	8074.88
686.137	8074.61
686.189	8034.18
686.24	8055.39
686.292	8020.61
686.343	8003.96
686.395	8054.47
686.446	8021.06
686.498	7936.87
686.549	7997.15
686.601	8029.48
686.652	8030.96
686.704	8006.38
686.756	8018.86
686.807	7935.03
686.859	8000.21
686.91	8030.86
686.962	7947.75
687.013	7993.31
687.065	7997.1
687.116	7999.14
687.168	7991.64
687.219	7979.8
687.271	7990.98
687.322	7934.26
687.374	7949.25
687.426	7929.86
687.477	8009.85
687.529	7887.44
687.58	7985.38
687.632	8019.57
687.683	7965.64
687.735	7914.53
687.786	7869.91
687.838	7954.67
687.889	8006.95
687.941	7962.81
687.992	7970.32
688.044	7970.56
688.095	7941.29
688.147	7937.15
688.198	7935.22
688.25	8023.09
688.302	7910.78
688.353	8026.75
688.405	7970.87
688.456	7946
688.508	8014.03
688.559	8018.53
688.611	7887.37
688.662	7928.33
688.714	7951.6
688.765	7966.22
688.817	7937.2
688.868	7987.9
688.92	7932.17
688.971	7948
689.023	7921.43
689.074	7982.48
689.126	7874.87
689.177	7955.17
689.229	7946.5
689.28	7918.76
689.332	7937.48
689.383	7925.23
689.435	7908.73
689.486	7981.17
689.538	7902.48
689.589	7916.08
689.641	7877.17
689.692	7933.79
689.744	7907.17
689.795	7861.48
689.847	7900.48
689.898	7909.61
689.95	7904.28
690.001	7923.07
690.053	7881.38
690.104	7923.25
690.156	7863.28
690.207	7934.67
690.259	7865.14
690.31	7933
690.362	7898.7
690.413	7931.22
690.465	7865.03
690.516	7855.65
690.568	7881.03
690.619	7898.51
690.671	7848.71
690.722	7899.61
690.774	7863.98
690.825	7847.78
690.877	7821.34
690.928	7776.24
690.98	7860.87
691.031	7802.66
691.083	7794.82
691.134	7807.06
691.186	7828.33
691.237	7822.59
691.289	7798.88
691.34	7715.96
691.392	7803.39
691.443	7823.42
691.495	7711.25
691.546	7810.72
691.598	7833.85
691.649	7770.32
691.701	7754.15
691.752	7696.22
691.804	7763.9
691.855	7798.91
691.907	7707.3
691.958	7767.86
692.01	7735.89
692.061	7724.32
692.113	7744.51
692.164	7736.17
692.216	7688.19
692.267	7686.9
692.319	7672.31
692.37	7727.56
692.421	7680.84
692.473	7659.43
692.524	7704.66
692.576	7643.45
692.627	7690.77
692.679	7705.58
692.73	7637.99
692.782	7632.79
692.833	7615.76
692.885	7693.77
692.936	7731.79
692.988	7638.54
693.039	7621.77
693.091	7685.25
693.142	7579.71
693.194	7607.5
693.245	7642.4
693.297	7625.84
693.348	7656.63
693.399	7581.15
693.451	7655.94
693.502	7668.45
693.554	7571.37
693.605	7613.16
693.657	7602.74
693.708	7617
693.76	7605.76
693.811	7639.1
693.863	7581.43
693.914	7512.69
693.966	7536.39
694.017	7567.12
694.068	7595.56
694.12	7603.4
694.171	7596.95
694.223	7585.62
694.274	7580.45
694.326	7547.5
694.377	7578.25
694.429	7521.48
694.48	7552.96
694.532	7485.84
694.583	7530.72
694.634	7599.04
694.686	7510.41
694.737	7586.31
694.789	7534.79
694.84	7540.86
694.892	7599.73
694.943	7561.74
694.995	7624.88
695.046	7549.4
695.097	7519.21
695.149	7487.6
695.2	7535.1
695.252	7535.8
695.303	7539.16
695.355	7531.72
695.406	7525
695.458	7476.33
695.509	7493.46
695.56	7473.61
695.612	7430.82
695.663	7459.49
695.715	7511.23
695.766	7513.81
695.818	7460.59
695.869	7462.76
695.921	7423.24
695.972	7438.22
696.023	7459.55
696.075	7444.46
696.126	7508.5
696.178	7497.81
696.229	7434.93
696.281	7435.94
696.332	7468.8
696.383	7439.87
696.435	7473.26
696.486	7366.28
696.538	7418.78
696.589	7418.99
696.641	7380.63
696.692	7367.33
696.744	7370.01
696.795	7332.53
696.846	7398.21
696.898	7402.36
696.949	7398.61
697.001	7421.07
697.052	7398.5
697.104	7386.29
697.155	7356.07
697.206	7282.01
697.258	7337.83
697.309	7352.92
697.361	7293.9
697.412	7286.99
697.463	7273.69
697.515	7335.22
697.566	7311.89
697.618	7305.09
697.669	7321.99
697.721	7207.34
697.772	7247.44
697.823	7253.92
697.875	7233.95
697.926	7301.58
697.978	7196.63
698.029	7168.35
698.08	7210.59
698.132	7253.51
698.183	7211.95
698.235	7201.12
698.286	7244.76
698.338	7171.31
698.389	7163.14
698.44	7164.01
698.492	7171.62
698.543	7204.72
698.595	7175.6
698.646	7183.9
698.697	7171.11
698.749	7176.79
698.8	7158.55
698.852	7181.27
698.903	7181.21
698.954	7172.87
699.006	7114.66
699.057	7123.26
699.109	7099.07
699.16	7117.78
699.211	7120.23
699.263	7083.94
699.314	7122.12
699.366	7093.17
699.417	7054.52
699.468	7069.89
699.52	7075.5
699.571	7080.7
699.623	7081.67
699.674	7047.35
699.725	7032.34
699.777	7079.49
699.828	7106.44
699.88	7100.22
699.931	7065.32
699.982	7089.26
700.034	7075.96
700.085	7095.86
700.137	7102.95
700.188	7076.27
700.239	7085.89
700.291	7007.67
700.342	6985.71
700.393	7033.06
700.445	7053.57
700.496	7019.25
700.548	7043.41
700.599	7084.63
700.65	7080.4
700.702	7082.12
700.753	7064.43
700.805	7051.91
700.856	7020.35
700.907	7042.79
700.959	7063.41
701.01	7036.19
701.061	7023.87
701.113	7057.7
701.164	7021.42
701.216	7022.61
701.267	7042.2
701.318	6979.13
701.37	6996.56
701.421	7003.82
701.472	7043.56
701.524	7072.25
701.575	7049.41
701.627	7070.67
701.678	7047.83
701.729	7056.19
701.781	7097.87
701.832	7072.03
701.883	7013.76
701.935	7017.38
701.986	7004.9
702.038	7050.29
702.089	7049.24
702.14	7001.15
702.192	7024.19
702.243	7028.49
702.294	7068.02
702.346	7091.14
702.397	7005.45
702.448	7026.5
702.5	7084.73
702.551	7085.85
702.603	7054.17
702.654	7045
702.705	7112.52
702.757	7106.93
702.808	7032.7
702.859	7009.22
702.911	7056.58
702.962	7055.04
703.013	7027.08
703.065	7045.66
703.116	7000.78
703.167	6989.58
703.219	7049
703.27	7076.44
703.322	7061.55
703.373	7045.42
703.424	7006.7
703.476	6976.33
703.527	6966.34
703.578	7039.66
703.63	7072.33
703.681	7064.93
703.732	6987.15
703.784	6945.77
703.835	6963.92
703.886	6976.75
703.938	6975.54
703.989	6998.52
704.04	7012.77
704.092	6925.03
704.143	6945.42
704.194	6931.25
704.246	6903.81
704.297	6977.83
704.348	6970.12
704.4	6962.05
704.451	6939.16
704.503	6940.83
704.554	6966.28
704.605	6957.1
704.656	6945.52
704.708	6872.69
704.759	6861.5
704.81	6909.2
704.862	6955.45
704.913	6978.01
704.964	6943.46
705.016	6884.36
705.067	6889.25
705.119	6861.48
705.17	6890.32
705.221	6884.08
705.273	6777.1
705.324	6795.9
705.375	6816.44
705.408	6880
705.459	6868
705.511	6856.11
705.562	6798.54
705.614	6794.83
705.665	6743.02
705.717	6761.15
705.768	6796.67
705.82	6713.72
705.871	6716.45
705.923	6794.56
705.974	6728.2
706.026	6791.83
706.077	6748.4
706.129	6691.68
706.18	6666.25
706.232	6748.21
706.283	6713.39
706.335	6709.18
706.386	6664.87
706.438	6644.8
706.489	6769.58
706.541	6641.03
706.592	6666.24
706.643	6669.61
706.695	6589.12
706.746	6759.92
706.798	6607.22
706.849	6698.68
706.901	6628.45
706.952	6713.38
707.004	6646.06
707.055	6642
707.107	6755.27
707.158	6654.03
707.21	6597.88
707.261	6630.16
707.313	6575.76
707.364	6543.71
707.416	6629.74
707.467	6632.56
707.518	6664.34
707.57	6660.65
707.621	6657.81
707.673	6628.69
707.724	6621.76
707.776	6613.79
707.827	6594.93
707.879	6615.78
707.93	6570.49
707.982	6563.58
708.033	6632.19
708.084	6556.47
708.136	6638.61
708.187	6604.55
708.239	6544.85
708.29	6550.29
708.342	6574.53
708.393	6458.98
708.445	6538.09
708.496	6527.98
708.548	6522.19
708.599	6520.85
708.651	6525.24
708.702	6545.12
708.753	6478.77
708.805	6457.54
708.856	6513.85
708.908	6504.51
708.959	6519.85
709.011	6491.09
709.062	6480.83
709.114	6486.79
709.165	6509.91
709.216	6443.64
709.268	6504.02
709.319	6456.55
709.371	6402.83
709.422	6490.93
709.474	6419.44
709.525	6487.3
709.577	6489.92
709.628	6418.69
709.679	6498.53
709.731	6490.06
709.782	6417.89
709.834	6441.32
709.885	6432.09
709.937	6448.61
709.988	6513.22
710.039	6463.51
710.091	6466.02
710.142	6357.97
710.194	6377.3
710.245	6410.24
710.297	6415.03
710.348	6431.43
710.4	6433.48
710.451	6415.53
710.502	6392.82
710.554	6294.24
710.605	6451.92
710.657	6346.44
710.708	6343.45
710.76	6440.27
710.811	6395.86
710.862	6378.01
710.914	6390.99
710.965	6386.34
711.017	6384.01
711.068	6321.36
711.12	6364.63
711.171	6378.86
711.222	6365.41
711.274	6340.87
711.325	6333.77
711.377	6335.08
711.428	6240.77
711.479	6342.46
711.531	6232.93
711.582	6400.38
711.634	6277.88
711.685	6244.68
711.737	6258.66
711.788	6276.16
711.839	6236.94
711.891	6254.11
711.942	6248.75
711.994	6286.16
712.045	6141.08
712.096	6213.46
712.148	6198.27
712.199	6216.84
712.251	6166.16
712.302	6198.75
712.354	6173.47
712.405	6220.2
712.456	6161.68
712.508	6148.38
712.559	6178.47
712.611	6153.56
712.662	6196.4
712.713	6199.31
712.765	6125.99
712.816	6149.04
712.868	6175.51
712.919	6168.7
712.97	6143.98
713.022	6108.17
713.073	6138.55
713.125	6146.06
713.176	6090.49
713.227	6092.31
713.279	6080.67
713.33	6084.86
713.382	6056.89
713.433	6106.17
713.484	6067.56
713.536	6049.59
713.587	6043.54
713.639	6016.03
713.69	5996.38
713.741	5971.09
713.793	6105.52
713.844	6012.44
713.896	5980.31
713.947	6049.67
713.998	6030.99
714.05	5959.89
714.101	5963.51
714.153	5993.92
714.204	5955.96
714.255	5981.65
714.307	6016.06
714.358	5930.98
714.41	5948.43
714.461	5905.46
714.512	5850.17
714.564	5880.46
714.615	5971.86
714.666	5890.24
714.718	5880.72
714.769	5909.65
714.821	5852.4
714.872	5874.07
714.923	5847.97
714.975	5884.63
715.026	5882.43
715.078	5809.17
715.129	5846.97
715.18	5842.42
715.232	5828.21
715.283	5754.23
715.334	5825.07
715.386	5746.17
715.437	5842.12
715.489	5846.96
715.54	5810.22
715.591	5826.78
715.643	5839.35
715.694	5778.33
715.745	5773.2
715.797	5807.12
715.848	5782.49
715.9	5760.08
715.951	5780.4
716.002	5715.12
716.054	5738.2
716.105	5702.72
716.156	5717.7
716.208	5713.8
716.259	5744.96
716.31	5716.31
716.362	5730.42
716.413	5728.3
716.465	5700.86
716.516	5710.92
716.567	5762.23
716.619	5702.56
716.67	5728.63
716.721	5742.9
716.773	5715.79
716.824	5706.45
716.875	5680.53
716.927	5707.55
716.978	5707.62
717.03	5657.53
717.081	5691.1
717.132	5703.66
717.184	5681.47
717.235	5666.35
717.286	5668.38
717.338	5633.37
717.389	5649.65
717.44	5630.08
717.492	5625.37
717.543	5620.8
717.594	5638.65
717.646	5689.29
717.697	5646.35
717.749	5631.88
717.8	5637.93
717.851	5629.41
717.903	5609.94
717.954	5623.19
718.005	5589.35
718.057	5636.89
718.108	5622.62
718.159	5562.45
718.211	5580.86
718.262	5523.07
718.313	5598.08
718.365	5561.33
718.416	5579.39
718.467	5571.21
718.519	5621
718.57	5540.59
718.621	5565.27
718.673	5562.65
718.724	5517.76
718.775	5534.33
718.827	5518.37
718.878	5535.18
718.93	5519.79
718.981	5503.64
719.032	5454.69
719.083	5502.89
719.135	5517.29
719.186	5523.62
719.237	5519.17
719.289	5524.07
719.34	5495.33
719.391	5477.24
719.443	5479.89
719.494	5510.34
719.545	5448.25
719.597	5430.92
719.648	5447.51
719.699	5455.65
719.751	5430.84
719.802	5424.59
719.853	5410.34
719.905	5447.02
719.956	5445.4
720.007	5364.91
720.059	5395.09
720.11	5402.11
720.161	5390.68
720.213	5409.36
720.264	5322.63
720.315	5360.01
720.367	5367.58
720.418	5361.94
720.469	5368.98
720.521	5351.46
720.572	5325.94
720.623	5341.45
720.675	5327.18
720.726	5293.93
720.777	5317.29
720.829	5315.63
720.88	5309.17
720.931	5335.16
720.982	5278.26
721.034	5267.93
721.085	5299.08
721.136	5309.07
721.188	5288.49
721.239	5194.64
721.29	5242.33
721.342	5278.21
721.393	5252.43
721.444	5238.69
721.496	5252.92
721.547	5246.62
721.598	5240.3
721.65	5226.05
721.701	5232.88
721.752	5217.08
721.803	5250.32
721.855	5192.49
721.906	5191.94
721.957	5208.38
722.009	5152.1
722.06	5168.66
722.111	5152.32
722.163	5165.25
722.214	5134.73
722.265	5165.65
722.316	5133.42
722.368	5156.27
722.419	5153.47
722.47	5128.99
722.522	5134.27
722.573	5078.84
722.624	5078.41
722.676	5109.09
722.727	5139.59
722.778	5127
722.829	5092.52
722.881	5086.31
722.932	5054.32
722.983	5078.17
723.035	5073.51
723.086	5042.23
723.137	5089.76
723.188	5062.72
723.24	5067.36
723.291	5080.62
723.342	5075.9
723.394	5071.32
723.445	5057.11
723.496	5047.5
723.547	5002.89
723.599	5028.84
723.65	5013.53
723.701	5016.63
723.753	5012.19
723.804	4965.02
723.855	5019.82
723.906	5011.17
723.958	5030.08
724.009	5018.88
724.06	4979.96
724.112	5013.61
724.163	4994.13
724.214	4982.73
724.265	4932.74
724.317	4919.38
724.368	4958.65
724.419	4970.58
724.47	4946.64
724.522	4947.7
724.573	4951.61
724.624	4929.54
724.676	4944.5
724.727	4970.13
724.778	4959.13
724.829	4953.39
724.881	4929.53
724.932	4926.05
724.983	4916.6
725.034	4938.65
725.086	4931.79
725.137	4932.65
725.188	4924.3
725.24	4917.54
725.291	4944.6
725.342	4918.37
725.393	4890.85
725.445	4901.5
725.496	4924.99
725.547	4883.49
725.598	4869.64
725.65	4835.71
725.701	4862.83
725.752	4905.55
725.803	4912.7
725.855	4873.88
725.906	4842.84
725.957	4864.63
726.008	4823.8
726.06	4814.26
726.111	4843.29
726.162	4840.61
726.213	4847.32
726.265	4832.93
726.316	4802.12
726.367	4844.63
726.418	4841.04
726.47	4827.23
726.521	4815.13
726.572	4814.66
726.623	4774.35
726.675	4780.99
726.726	4764.23
726.777	4722.61
726.828	4758.89
726.88	4774.96
726.931	4759.62
726.982	4749.69
727.033	4761.12
727.085	4775.03
727.136	4682.93
727.187	4642.61
727.238	4629.14
727.29	4752.79
727.341	4743.99
727.392	4692.59
727.443	4738.14
727.495	4711.06
727.546	4696.4
727.597	4674.45
727.648	4645.85
727.7	4661.89
727.751	4673.56
727.802	4688.56
727.853	4690.43
727.904	4633.54
727.956	4748.76
728.007	4701.63
728.058	4636.56
728.109	4691.65
728.161	4629.54
728.212	4636.28
728.263	4576.56
728.314	4531.87
728.366	4588.15
728.417	4569.01
728.468	4562.73
728.519	4544.37
728.57	4550.15
728.622	4564.42
728.673	4583.88
728.724	4520.17
728.775	4523.06
728.827	4563.73
728.878	4600.81
728.929	4599.62
728.98	4537.42
729.031	4529.07
729.083	4566.54
729.134	4548.04
729.185	4587.03
729.236	4477.65
729.288	4476.46
729.339	4526.5
729.39	4515.46
729.441	4527.12
729.492	4545.93
729.544	4424.05
729.595	4448.91
729.646	4428.87
729.697	4427.44
729.748	4430.33
729.8	4472.68
729.851	4432.29
729.902	4470.37
729.953	4444.7
730.004	4428.78
730.056	4408
730.107	4360.17
730.158	4396.26
730.209	4414.31
730.26	4371.87
730.312	4397.29
730.363	4376.74
730.414	4334.71
730.465	4365.63
730.517	4312.99
730.568	4317.66
730.619	4298.76
730.67	4324.78
730.721	4318.95
730.773	4271.91
730.824	4255.41
730.875	4301.66
730.926	4266.62
730.977	4321.19
731.029	4253.18
731.08	4307.93
731.131	4136.97
731.182	4248.46
731.233	4202.9
731.284	4212.1
731.336	4263.31
731.387	4249.68
731.438	4241.86
731.489	4264.75
731.54	4189.01
731.592	4188.82
731.643	4261.98
731.643	4262
731.694	4230
731.746	4164
731.797	4260.06
731.848	4274.17
731.9	4119.15
731.951	4214.92
732.002	4189.11
732.054	4228.65
732.105	4223.55
732.156	4227.9
732.208	4249.25
732.259	4199.2
732.311	4156.5
732.362	4168.41
732.413	4227.65
732.465	4197.03
732.516	4182.28
732.567	4214.11
732.619	4199.22
732.67	4150.39
732.721	4157.23
732.773	4174.66
732.824	4141.21
732.875	4136.81
732.927	4181.25
732.978	4081.84
733.029	4142.96
733.081	4183.17
733.132	4153.31
733.183	4129.7
733.235	4172.66
733.286	4151.62
733.337	4174.38
733.389	4149.25
733.44	4157.15
733.491	4113.73
733.543	4124.53
733.594	4118.71
733.645	4052.72
733.697	4132.59
733.748	4172.39
733.799	4189.98
733.851	4084.63
733.902	4156.09
733.953	4133.13
734.005	4134.91
734.056	4169.55
734.107	4109.52
734.158	4211.42
734.21	4155.19
734.261	4167.86
734.312	4190.21
734.364	4119.88
734.415	4162.54
734.466	4112.65
734.518	4167.26
734.569	4197.92
734.62	4107.01
734.672	4137.48
734.723	4145.02
734.774	4141.47
734.826	4158.49
734.877	4164.6
734.928	4184.59
734.98	4141.03
735.031	4120.66
735.082	4081.95
735.133	4161
735.185	4166.69
735.236	4149.89
735.287	4135.68
735.339	4226.51
735.39	4155.8
735.441	4106.06
735.493	4180.37
735.544	4129.12
735.595	4151.42
735.647	4174.54
735.698	4161.15
735.749	4141.83
735.8	4157.28
735.852	4211.32
735.903	4180.47
735.954	4206.16
736.006	4152.34
736.057	4171.54
736.108	4231.09
736.16	4191.18
736.211	4257.51
736.262	4195.72
736.313	4213.51
736.365	4281.45
736.416	4282.14
736.467	4248.47
736.519	4152.93
736.57	4312.61
736.621	4214.88
736.673	4215.84
736.724	4220.6
736.775	4314.36
736.826	4283.84
736.878	4261.6
736.929	4286.31
736.98	4268.73
737.032	4318.28
737.083	4299.62
737.134	4261.72
737.185	4277.19
737.237	4335.09
737.288	4284.2
737.339	4388.95
737.391	4356.7
737.442	4299.97
737.493	4315.64
737.544	4346.72
737.596	4375.33
737.647	4321.99
737.698	4344.71
737.75	4364.81
737.801	4347.68
737.852	4365.59
737.903	4334.18
737.955	4407.16
738.006	4379.31
738.057	4352.3
738.109	4377.55
738.16	4354.8
738.211	4362.33
738.262	4332.55
738.314	4368.05
738.365	4372.88
738.416	4353.33
738.468	4358.13
738.519	4385.25
738.57	4396.01
738.621	4353.36
738.673	4358.06
738.724	4320.05
738.775	4299.88
738.826	4351.34
738.878	4349.42
738.929	4308.1
738.98	4293.13
739.031	4266.9
739.083	4260.59
739.134	4266.95
739.185	4214.95
739.237	4209.61
739.288	4193.98
739.339	4277.11
739.39	4191.83
739.442	4160.2
739.493	4190.55
739.544	4135.87
739.595	4183.76
739.647	4141.41
739.698	4173.42
739.749	4148.22
739.8	4168.77
739.852	4079.47
739.903	4122.57
739.954	4116.83
740.005	4088.58
740.057	4104
740.108	4080.57
740.159	4047.71
740.211	4097.12
740.262	4028.09
740.313	4048.35
740.364	4016.41
740.416	4028.87
740.467	3980.76
740.518	3996.89
740.569	3995.94
740.621	3987.12
740.672	3990.73
740.723	3962.59
740.774	3976.84
740.826	3889.8
740.877	3945.5
740.928	3959.81
740.979	3929.79
741.031	3873.7
741.082	3905.46
741.133	3919.01
741.184	3862.13
741.235	3899.65
741.287	3883.95
741.338	3884.65
741.389	3903.06
741.44	3838.26
741.492	3806.41
741.543	3849.59
741.594	3850.55
741.645	3867.12
741.697	3840.44
741.748	3833.59
741.799	3778.23
741.85	3812.69
741.902	3834.23
741.953	3803.2
742.004	3817.46
742.055	3772.94
742.107	3734.87
742.158	3773.22
742.209	3794.91
742.26	3798.74
742.311	3793.94
742.363	3733.52
742.414	3732.97
742.465	3737.95
742.516	3748.4
742.568	3715.02
742.619	3699.88
742.67	3696.45
742.721	3717.9
742.773	3722.2
742.824	3735.19
742.875	3699.87
742.926	3729.83
742.977	3723.4
743.029	3675.09
743.08	3656.22
743.131	3652.13
743.182	3688.62
743.234	3677.47
743.285	3639.37
743.336	3653.73
743.387	3664.04
743.438	3647.78
743.49	3633.78
743.541	3625.32
743.592	3634.71
743.643	3639.01
743.694	3615.85
743.746	3619.94
743.797	3593.73
743.848	3598.19
743.899	3602.85
743.951	3629.09
744.002	3596.81
744.053	3574.87
744.104	3578.05
744.155	3556.38
744.207	3567.58
744.258	3577.55
744.309	3547.09
744.36	3571.22
744.411	3537.77
744.463	3533.07
744.514	3532.17
744.565	3540.35
744.616	3546.06
744.667	3566.03
744.719	3537.65
744.77	3527.4
744.821	3542.72
744.872	3545
744.923	3520.1
744.975	3541.79
745.026	3511.32
745.077	3506.89
745.128	3489.43
745.179	3476.96
745.231	3488.5
745.282	3491.74
745.333	3458.91
745.384	3445.97
745.435	3470.26
745.487	3452.39
745.538	3495.82
745.589	3495.02
745.64	3439.95
745.691	3468.35
745.743	3453.79
745.794	3433.2
745.845	3405.29
745.896	3434.63
745.947	3444.53
745.998	3460.07
746.05	3412.26
746.101	3435.08
746.152	3426.54
746.203	3436.98
746.254	3390.93
746.306	3371.04
746.357	3425.23
746.408	3404.12
746.459	3433.93
746.51	3417.77
746.562	3401.56
746.613	3388.24
746.664	3414.49
746.715	3396.7
746.766	3395.83
746.817	3416.69
746.869	3384.05
746.92	3379.24
746.971	3363.26
747.022	3359.12
747.073	3380.01
747.125	3364.02
747.176	3344.05
747.227	3355.1
747.278	3357.9
747.329	3356.4
747.38	3314.07
747.432	3364.33
747.483	3355.33
747.534	3368.98
747.585	3390.68
747.636	3346.29
747.687	3323.51
747.739	3297.56
747.79	3322.68
747.841	3366.4
747.892	3339.77
747.943	3310.27
747.994	3299.95
748.046	3311.2
748.097	3328.43
748.148	3291.29
748.199	3295.76
748.25	3293.83
748.301	3302.37
748.352	3296.03
748.404	3282.77
748.455	3279.79
748.506	3266.72
748.557	3263.52
748.608	3289.46
748.659	3315.91
748.711	3292.32
748.762	3253.6
748.813	3244.43
748.864	3264.98
748.915	3242.54
748.966	3232.46
749.018	3273.8
749.069	3261.77
749.12	3266.23
749.171	3273.21
749.222	3261.49
749.273	3238.69
749.324	3234.5
749.376	3253.29
749.427	3225.89
749.478	3222.17
749.529	3222.93
749.58	3219.62
749.631	3247.11
749.682	3202.24
749.734	3197.74
749.785	3190.21
749.836	3204.75
749.887	3217.25
749.938	3225.91
749.989	3179.95
750.04	3203.67
750.092	3205.86
750.143	3190.82
750.194	3177.74
750.245	3189.92
750.296	3193.49
750.347	3201.59
750.398	3218.73
750.45	3185.08
750.501	3191.62
750.552	3165.43
750.603	3175.93
750.654	3160.88
750.705	3150.14
750.756	3134.4
750.807	3161
750.859	3128.64
750.91	3131.43
750.961	3153.5
751.012	3147.82
751.063	3136.05
751.114	3129.4
751.165	3126.4
751.216	3127.03
751.268	3127.71
751.319	3152
751.37	3116.1
751.421	3123.65
751.472	3148.4
751.523	3123.69
751.574	3086.91
751.625	3084.99
751.677	3125.7
751.728	3100.12
751.779	3091.4
751.83	3072.54
751.881	3069.6
751.932	3067.05
751.983	3065.14
752.034	3065.5
752.086	3098.77
752.137	3096.86
752.188	3090.59
752.239	3035.83
752.29	3046.16
752.341	3084.19
752.392	3026.78
752.443	3024.63
752.494	3078.1
752.546	3026.46
752.597	3005.41
752.648	3008.84
752.699	3030.66
752.75	2992.67
752.801	2997.3
752.852	3000.52
752.903	3000.05
752.954	3034.89
753.005	3004
753.057	2987.66
753.108	3002.29
753.159	2927.35
753.21	2948.21
753.261	3012.36
753.312	3010.77
753.363	2935.83
753.414	2964.91
753.465	2936.42
753.516	2915.72
753.568	2973.08
753.619	2999.27
753.67	2948.5
753.721	2972.06
753.772	2939.08
753.823	2940.01
753.874	2975.19
753.925	2911.58
753.976	2912.97
754.027	2920.15
754.079	2950.24
754.13	2924.71
754.181	2901.97
754.232	2922.83
754.283	2957.28
754.334	2930.82
754.385	2844.35
754.436	2884
754.487	2858.74
754.538	2905.1
754.589	2905.42
754.641	2856.92
754.692	2883.37
754.743	2928.47
754.794	2862.14
754.845	2836.71
754.896	2840.89
754.947	2818.51
754.998	2837.57
755.049	2851.14
755.1	2807.35
755.151	2815.78
755.202	2830.74
755.253	2829.97
755.305	2824.4
755.356	2885.97
755.407	2847.65
755.458	2850.59
755.509	2834.38
755.56	2815.86
755.611	2854.2
755.662	2872.14
755.713	2841.53
755.764	2799.84
755.815	2754.02
755.866	2836.9
755.917	2792.13
755.968	2800.37
756.02	2802.11
756.071	2776.46
756.122	2767.56
756.173	2795.23
756.224	2779.17
756.275	2821.85
756.326	2803.37
756.377	2729.89
756.428	2753.71
756.479	2790.4
756.53	2812.3
756.581	2782.77
756.632	2783.04
756.683	2759.48
756.734	2778.05
756.785	2772.24
756.837	2683.37
756.888	2716.15
756.939	2700.43
756.99	2730.13
757.041	2731.95
757.092	2747.24
757.143	2734.75
757.194	2706.66
757.245	2742.46
757.296	2683.95
757.347	2689.77
757.398	2741.36
757.449	2699.98
757.5	2681.08
757.551	2720.92
757.602	2692.94
757.653	2658.21
757.704	2690.07
757.755	2704.58
757.807	2692.62
757.858	2700.11
757.909	2655.46
757.917	2646
757.968	2700.07
758.02	2674.13
758.071	2687.96
758.122	2666.06
758.173	2678.04
758.224	2690.3
758.276	2629.1
758.327	2626.72
758.378	2612.36
758.429	2634.15
758.48	2675.55
758.532	2654.41
758.583	2646.31
758.634	2686.39
758.685	2577.96
758.736	2598.52
758.788	2624.87
758.839	2662.59
758.89	2620.59
758.941	2611.79
758.992	2617.66
759.044	2646.88
759.095	2600.89
759.146	2586.16
759.197	2634.29
759.248	2615
759.3	2586.79
759.351	2610.99
759.402	2579.56
759.453	2599.31
759.504	2610.92
759.556	2596.86
759.607	2583.8
759.658	2618.56
759.709	2565.36
759.76	2617.08
759.811	2608.52
759.863	2534.17
759.914	2534.06
759.965	2619.71
760.016	2531.82
760.067	2549.44
760.119	2511.43
760.17	2503.93
760.221	2537.08
760.272	2536.71
760.323	2498.58
760.375	2516.84
760.426	2562.78
760.477	2470.22
760.528	2486.82
760.579	2471.73
760.63	2511.48
760.682	2515.44
760.733	2514.71
760.784	2503.44
760.835	2500.92
760.886	2443.94
760.937	2475.14
760.989	2413.27
761.04	2486.4
761.091	2493.55
761.142	2451.35
761.193	2480.04
761.245	2483.01
761.296	2497.31
761.347	2446.53
761.398	2511.08
761.449	2516.37
761.5	2459.32
761.552	2482.69
761.603	2444.17
761.654	2469.02
761.705	2434.92
761.756	2440.02
761.807	2500.71
761.859	2445.2
761.91	2436.94
761.961	2473.22
762.012	2399.92
762.063	2470.16
762.114	2408.3
762.165	2446.99
762.217	2420.44
762.268	2419.23
762.319	2419.2
762.37	2377.45
762.421	2375.14
762.472	2425.71
762.524	2401.89
762.575	2388.06
762.626	2412.73
762.677	2383.78
762.728	2360.84
762.779	2368.5
762.831	2397.43
762.882	2359.95
762.933	2356.05
762.984	2396.01
763.035	2362.02
763.086	2354.81
763.137	2361.18
763.189	2364.88
763.24	2389.97
763.291	2368.9
763.342	2371.63
763.393	2389.56
763.444	2340.42
763.495	2317.23
763.547	2369.23
763.598	2337.59
763.649	2347.4
763.7	2347.9
763.751	2308.13
763.802	2317.31
763.853	2359.77
763.905	2310.66
763.956	2322.28
764.007	2352.61
764.058	2307.13
764.109	2314.66
764.16	2291.02
764.211	2274.82
764.263	2324.6
764.314	2319.07
764.365	2307.03
764.416	2305.58
764.467	2275.79
764.518	2290.91
764.569	2277.49
764.621	2289.22
764.672	2298.51
764.723	2270.46
764.774	2291.21
764.825	2304.12
764.876	2273.84
764.927	2280.3
764.978	2261.17
765.03	2263.28
765.081	2246.36
765.132	2280.34
765.183	2270.33
765.234	2306.21
765.285	2233.88
765.336	2291.76
765.387	2255
765.439	2268.57
765.49	2276.82
765.541	2257.92
765.592	2241.79
765.643	2217.34
765.694	2227.7
765.745	2236.74
765.796	2254.66
765.848	2247.31
765.899	2267.75
765.95	2215.94
766.001	2236.31
766.052	2218.03
766.103	2224.4
766.154	2232.15
766.205	2226.97
766.256	2193.47
766.308	2216.79
766.359	2191.71
766.41	2192.97
766.461	2219.47
766.512	2212.95
766.563	2147.45
766.614	2198.51
766.665	2191.05
766.716	2189.32
766.768	2164.36
766.819	2164.34
766.87	2186.87
766.921	2204.9
766.972	2191.36
767.023	2177.97
767.074	2140.2
767.125	2153.59
767.176	2150.87
767.227	2143.23
767.279	2162.61
767.33	2130.66
767.381	2124.84
767.432	2187.22
767.483	2145.82
767.534	2146.85
767.585	2144.12
767.636	2124.06
767.687	2146.51
767.739	2131.25
767.79	2114.58
767.841	2131.22
767.892	2099.29
767.943	2137.13
767.994	2095.7
768.045	2104.98
768.096	2101.19
768.147	2095.34
768.198	2107.89
768.249	2119.06
768.301	2077.68
768.352	2099.14
768.403	2122.8
768.454	2100.87
768.505	2084.92
768.556	2086.81
768.607	2083.9
768.658	2106.12
768.709	2046.52
768.76	2062.74
768.811	2041.35
768.862	2072.02
768.914	2058.56
768.965	2047.3
769.016	2051.73
769.067	2051.81
769.118	2027.43
769.169	2006.95
769.22	2044.67
769.271	2053.91
769.322	2072.12
769.373	2002.42
769.424	2026.77
769.475	2055.6
769.526	2022.19
769.578	2063.56
769.629	2037.79
769.68	2028.96
769.731	2023.55
769.782	2016.76
769.833	1987.06
769.884	2000.57
769.935	2014.59
769.986	1961.96
770.037	2021.75
770.088	2008.64
770.139	1994
770.19	1954.18
770.242	1988.16
770.293	1978.4
770.344	1978.02
770.395	1961.94
770.446	2001.87
770.497	1968.59
770.548	1984.3
770.599	1985.9
770.65	1964.67
770.701	1931.45
770.752	1955.59
770.803	1955.19
770.854	1964.19
770.905	1940.52
770.956	1925.42
771.007	1935.82
771.058	1936.84
771.11	1964.23
771.161	1917.99
771.212	1942.66
771.263	1920.01
771.314	1937.38
771.365	1899.46
771.416	1910.54
771.467	1915.08
771.518	1891.46
771.569	1917.69
771.62	1906.59
771.671	1897.34
771.722	1895.13
771.773	1910.13
771.824	1893.56
771.875	1895.86
771.926	1870.95
771.977	1856.99
772.028	1867.94
772.079	1873.33
772.131	1856.89
772.182	1867.09
772.233	1892.23
772.284	1875.3
772.335	1880.1
772.386	1878.92
772.437	1870.91
772.488	1859.98
772.539	1857.52
772.59	1835.2
772.641	1849.05
772.692	1848.59
772.743	1821.13
772.794	1805.5
772.845	1836.11
772.896	1853.68
772.947	1834.4
772.998	1815.28
773.049	1804.49
773.1	1849.03
773.151	1831.59
773.202	1817
773.253	1780.54
773.304	1801.05
773.355	1798.47
773.406	1790.48
773.457	1813.31
773.508	1808.53
773.56	1801.73
773.611	1802.36
773.662	1793.89
773.713	1816.43
773.764	1803.12
773.815	1785.46
773.866	1795.8
773.917	1776.74
773.968	1785.13
774.019	1802.07
774.07	1767.09
774.121	1748.78
774.172	1772.09
774.223	1770.58
774.274	1761
774.325	1767.63
774.376	1737.48
774.427	1759.02
774.478	1772.98
774.529	1748.65
774.58	1741.26
774.631	1755.45
774.682	1748.42
774.733	1722.9
774.784	1732.97
774.835	1721.35
774.886	1717.69
774.937	1744.61
774.988	1714.73
775.039	1725.38
775.09	1735.69
775.141	1741.63
775.192	1726.52
775.243	1742.04
775.294	1699.65
775.345	1707.92
775.396	1717.35
775.447	1710.1
775.498	1716.26
775.549	1708.97
775.6	1708.65
775.651	1656.54
775.702	1693.75
775.753	1709.03
775.804	1672.62
775.855	1709.61
775.906	1729.92
775.957	1682.24
776.008	1638.89
776.059	1658.39
776.11	1661.66
776.161	1673.04
776.212	1685.75
776.263	1674.72
776.314	1673.24
776.365	1660.32
776.416	1659.19
776.467	1674.82
776.518	1657.62
776.569	1662.2
776.62	1651.27
776.671	1636.43
776.722	1626.48
776.773	1640.11
776.824	1641.03
776.875	1640.22
776.926	1637.05
776.977	1626.31
777.028	1644.55
777.079	1614.57
777.13	1624.81
777.181	1603.28
777.232	1615.8
777.283	1628.64
777.334	1616.52
777.385	1600.18
777.436	1626.36
777.487	1612.33
777.538	1589.52
777.589	1595.67
777.64	1604.11
777.691	1594.68
777.742	1601.63
777.793	1607.68
777.844	1580.93
777.895	1574.21
777.946	1594.22
777.997	1614.08
778.047	1609.83
778.098	1589.9
778.149	1589.03
778.2	1587.72
778.251	1573.25
778.302	1578.5
778.353	1570.2
778.404	1568.71
778.455	1549.38
778.506	1537.23
778.557	1555.98
778.608	1544.42
778.659	1536.25
778.71	1551.68
778.761	1572.35
778.812	1552.27
778.863	1534.81
778.914	1537.1
778.965	1549.83
779.016	1583.32
779.067	1557.99
779.118	1531.56
779.169	1531.4
779.22	1528.96
779.271	1513.79
779.322	1520.25
779.373	1512.87
779.424	1512.91
779.474	1507.89
779.525	1520.47
779.576	1529.79
779.627	1543.84
779.678	1548.11
779.729	1548.56
779.78	1523.63
779.831	1529.11
779.882	1512.42
779.933	1494.21
779.984	1528.9
780.035	1512.92
780.086	1500.7
780.137	1513.21
780.188	1495.43
780.239	1480.18
780.29	1502.25
780.341	1497.36
780.392	1471.33
780.442	1489.42
780.493	1484.11
780.544	1481.19
780.595	1488.33
780.646	1478.58
780.697	1465.08
780.748	1476.52
780.799	1479.07
780.85	1436.68
780.901	1438.36
780.952	1445.35
781.003	1439.39
781.054	1454.86
781.105	1452.12
781.156	1441.14
781.207	1441.24
781.257	1467.13
781.308	1447.2
781.359	1437.89
781.41	1439.58
781.461	1444.3
781.512	1433.74
781.563	1444.36
781.614	1427.73
781.665	1431.93
781.716	1428.84
781.767	1435.55
781.818	1433.39
781.869	1416.64
781.919	1417.42
781.97	1423.28
782.021	1391.94
782.072	1430.18
782.123	1424.05
782.174	1416.48
782.225	1400.74
782.276	1409.95
782.327	1411.82
782.378	1401.69
782.429	1415.56
782.48	1415.63
782.531	1395.34
782.581	1393.88
782.632	1385.92
782.683	1389.06
782.734	1382.27
782.785	1392.32
782.836	1365.54
782.887	1369.66
782.938	1384.01
782.989	1367.63
783.04	1353.98
783.091	1367.39
783.141	1354.94
783.192	1368.29
783.243	1373.61
783.294	1368.61
783.345	1347.43
783.396	1332.53
783.447	1337.4
783.498	1352.17
783.549	1355.17
783.6	1355.64
783.651	1371.53
783.701	1381.83
783.752	1361.28
783.803	1336.63
783.854	1333.27
783.905	1349.46
783.956	1320.67
784.007	1334.47
784.058	1345.66
784.1	1344
784.151	1306.01
784.202	1312.08
784.253	1308
784.304	1341.67
784.355	1292.21
784.406	1316
784.458	1323.45
784.509	1292.09
784.56	1337.06
784.611	1297.86
784.662	1331.29
784.713	1347.28
784.764	1291.5
784.815	1306.36
784.866	1299.91
784.917	1335.1
784.968	1262.61
785.019	1294.68
785.07	1294.75
785.121	1294.09
785.172	1317.2
785.223	1333.52
785.274	1308.28
785.326	1268.45
785.377	1300.72
785.428	1268.15
785.479	1226.51
785.53	1239.57
785.581	1289.63
785.632	1261.95
785.683	1261.38
785.734	1260.36
785.785	1258.23
785.836	1255.2
785.887	1296.3
785.938	1235.36
785.989	1241
786.04	1253.95
786.091	1240.34
786.142	1272.31
786.193	1224.63
786.244	1215.54
786.295	1251.19
786.346	1227.45
786.397	1236.43
786.448	1265.92
786.5	1230.93
786.551	1230.55
786.602	1249.47
786.653	1225.62
786.704	1227.55
786.755	1233.76
786.806	1236.98
786.857	1216.78
786.908	1235.29
786.959	1217.1
787.01	1233.45
787.061	1223.31
787.112	1200.25
787.163	1198.97
787.214	1202.5
787.265	1228.01
787.316	1213.05
787.367	1236.57
787.418	1218.92
787.469	1222.6
787.52	1217.37
787.571	1206.97
787.622	1186.27
787.673	1208.18
787.724	1190.21
787.775	1178.12
787.826	1184.58
787.877	1193.39
787.928	1209.04
787.979	1183
788.03	1154.08
788.081	1154.81
788.132	1181.61
788.183	1174.01
788.234	1161.29
788.285	1189.57
788.336	1177.92
788.387	1142.27
788.438	1175.41
788.49	1128.95
788.541	1162.4
788.591	1156.13
788.643	1187.75
788.694	1177.22
788.745	1164.83
788.796	1142.78
788.847	1144.09
788.898	1163
788.949	1127.95
789	1144.14
789.051	1159.57
789.102	1139.2
789.153	1136.83
789.204	1122.85
789.255	1161.45
789.306	1148.08
789.357	1163.95
789.408	1138.18
789.459	1156.67
789.51	1148.2
789.561	1126.02
789.612	1141.89
789.663	1164.72
789.714	1074.01
789.765	1134.47
789.816	1088.75
789.867	1102.81
789.918	1101.39
789.969	1140.9
790.02	1106.34
790.071	1093.35
790.122	1127.85
790.173	1113.73
790.224	1113.1
790.275	1094
790.326	1107.18
790.377	1115.9
790.428	1108.86
790.479	1107.8
790.53	1127.16
790.581	1090.22
790.632	1094.73
790.682	1091.43
790.734	1097.49
790.784	1064.52
790.836	1072.29
790.886	1103.44
790.937	1076.48
790.988	1090.85
791.039	1055.16
791.09	1097.84
791.141	1067.18
791.192	1084.67
791.243	1047.43
791.294	1086.81
791.345	1082.19
791.396	1075.37
791.447	1078.72
791.498	1086.41
791.549	1048.15
791.6	1053.07
791.651	1060.88
791.702	1055.49
791.753	1058.75
791.804	1055.68
791.855	1031.61
791.906	1090.14
791.957	1057.13
792.008	1044.81
792.059	1026.32
792.11	1050.4
792.161	1032.46
792.212	1067.17
792.263	1025.1
792.314	1041.83
792.365	1041.31
792.416	1045.21
792.467	1023.76
792.518	1011.78
792.569	1011.36
792.62	1041.89
792.671	1039.02
792.722	1046.17
792.773	1022.67
792.823	1016.29
792.874	1014.26
792.925	1017.87
792.976	1022.81
793.027	1024.29
793.078	1026.44
793.129	1007.63
793.18	1008.57
793.231	1031.47
793.282	979.287
793.333	1012.79
793.384	982.973
793.435	990.735
793.486	1001.07
793.537	992.122
793.588	991.312
793.639	1006.43
793.69	990.623
793.741	988.661
793.792	991.328
793.843	997.609
793.894	985.687
793.945	997.13
793.995	995.508
794.046	1008.18
794.097	974.812
794.148	953.748
794.199	989.463
794.25	963.491
794.301	986.51
794.352	968.845
794.403	1002.58
794.454	958.409
794.505	987.705
794.556	973.281
794.607	969.835
794.658	991.409
794.709	970.682
794.76	961.305
794.811	960.325
794.862	977.529
794.912	970.583
794.963	969.169
795.014	959.381
795.065	950.924
795.116	967.961
795.167	956.35
795.218	948.528
795.269	957.33
795.32	940.709
795.371	961.124
795.422	951.216
795.473	949.273
795.524	935.452
795.575	951.459
795.625	951.293
795.676	934.738
795.727	950.145
795.778	951.07
795.829	940.275
795.88	938.418
795.931	935.354
795.982	908.685
796.033	922.856
796.084	925.951
796.135	922.673
796.186	933.727
796.237	906.902
796.287	912.227
796.338	934.63
796.389	914.538
796.44	919.811
796.491	922.078
796.542	917.894
796.593	921.291
796.644	921.668
796.695	926.753
796.746	914.729
796.797	886.651
796.848	912.274
796.898	907.307
796.949	916.939
797	901.807
797.051	907.419
797.102	913.41
797.153	908.153
797.204	903.583
797.255	904.056
797.306	917.955
797.357	899.822
797.408	903.13
797.458	883.236
797.509	882.902
797.56	874.847
797.611	876.063
797.662	885.333
797.713	887.403
797.764	883.743
797.815	894.479
797.866	879.099
797.917	886.84
797.968	862.812
798.018	870.09
798.069	872.576
798.12	898.488
798.171	896.157
798.222	867.565
798.273	871.567
798.324	860.498
798.375	865.47
798.426	861.549
798.477	853.218
798.527	871.748
798.578	852.402
798.629	845.41
798.68	858.243
798.731	845.926
798.782	855.782
798.833	849.208
798.884	865.922
798.935	860.02
798.985	867.965
799.036	862.718
799.087	858.281
799.138	843.408
799.189	834.086
799.24	836.025
799.291	838.619
799.342	848.787
799.393	850.08
799.443	840.176
799.494	842.659
799.545	823.309
799.596	816.618
799.647	844.28
799.698	845.33
799.749	831.094
799.8	850.44
799.85	831.282
799.901	821.562
799.952	827.333
800.003	819.02
800.054	818.635
800.105	810.909
800.156	801.299
800.207	829.539
800.257	819.957
800.308	840.69
800.359	826.618
800.41	806.67
800.461	814.23
800.512	809.235
800.563	826.439
800.613	817.858
800.664	795.715
800.715	803.186
800.766	800.542
800.817	813.583
800.868	803.865
800.919	808.397
800.97	801.7
801.02	788.066
801.071	777.913
801.122	793.558
801.173	795.072
801.224	799.334
801.275	793.464
801.326	792.643
801.376	793.73
801.427	773.577
801.478	773.601
801.529	788.624
801.58	788.029
801.631	788.701
801.682	796.431
801.732	792.455
801.783	776.919
801.834	770.8
801.885	773.038
801.936	775.14
801.987	786.943
802.038	783.526
802.088	758.99
802.139	767.247
802.19	768.035
802.241	770.272
802.292	757.831
802.343	761.568
802.393	760.534
802.444	761.725
802.495	776.272
802.546	768.026
802.597	754.827
802.648	746.488
802.698	752.881
802.749	754.204
802.8	760.196
802.851	753.744
802.902	748.144
802.953	735.932
803.004	767.088
803.054	743.237
803.105	772.287
803.156	737.861
803.207	732.172
803.258	755.469
803.309	756.876
803.359	718.567
803.41	740.383
803.461	740.021
803.512	730.096
803.563	738.939
803.614	745.487
803.664	751.417
803.715	730.867
803.766	720.891
803.817	744.687
803.868	729.562
803.919	721.161
803.969	727.089
804.02	718.43
804.071	734.057
804.122	734.038
804.173	729.009
804.223	709.551
804.274	720.149
804.325	722.18
804.376	706.387
804.427	715.595
804.478	717.178
804.528	719.164
804.579	714.286
804.63	741.884
804.681	708.462
804.732	719.366
804.782	700.645
804.833	709.842
804.884	711.888
804.935	711.57
804.986	697.453
805.036	695.213
805.087	698.354
805.138	694.9
805.189	692.839
805.24	710.711
805.291	713.311
805.341	700.057
805.392	691.591
805.443	705.358
805.494	680.248
805.545	698.033
805.595	685.245
805.646	681.071
805.697	691.593
805.748	708.668
805.799	705.353
805.849	699.85
805.9	694.825
805.951	680.262
806.002	677.941
806.053	688.34
806.103	669.266
806.154	663.414
806.205	680.74
806.256	686.102
806.307	670.317
806.357	677.28
806.408	677.425
806.459	703.405
806.51	689.407
806.561	665.85
806.611	661.45
806.662	679.664
806.713	673.028
806.764	674.513
806.815	660.949
806.865	667.512
806.916	667.996
806.967	667.984
807.018	664.191
807.068	670.602
807.119	663.539
807.17	670.504
807.221	681.026
807.272	678.896
807.322	685.213
807.373	654.808
807.424	651.46
807.475	663.663
807.526	660.881
807.576	657.407
807.627	643.205
807.678	673.945
807.729	670.863
807.779	650.753
807.83	644.35
807.881	657.447
807.932	641.766
807.982	644.694
808.033	634.241
808.084	655.239
808.135	648.587
808.186	631.667
808.236	646.686
808.287	655.571
808.338	645.328
808.389	634.003
808.439	647.472
808.49	636.205
808.541	628.445
808.592	639.131
808.643	623.116
808.693	611.759
808.744	615.081
808.795	638.758
808.846	650.368
808.896	624.087
808.947	615.032
808.998	628.747
809.049	636.278
809.099	637.519
809.15	647.76
809.201	645.695
809.252	651.12
809.302	643.964
809.353	638.045
809.404	639.4
809.455	644.285
809.505	628.047
809.556	620.63
809.607	612.599
809.658	629.907
809.708	611.885
809.759	619.44
809.81	634.069
809.861	633.556
809.911	617.478
809.962	618.076
810.013	631.001
810.064	636.012
810.114	621.815
810.133	614
810.183	602
810.234	586.043
810.285	615.99
810.336	591.987
810.387	598
810.438	619.76
810.489	627.774
810.54	600.074
810.591	588.28
810.642	617.859
810.693	595.892
810.743	603.589
810.794	615.28
810.845	597.842
810.896	594.634
810.947	590.894
810.998	567.502
811.049	602.148
811.1	592.107
811.151	589.272
811.202	592.423
811.253	591.46
811.303	595.511
811.354	582.185
811.405	593.939
811.456	595.724
811.507	588.501
811.558	585.156
811.609	608.383
811.66	571.887
811.711	597.674
811.762	573.242
811.813	576.505
811.863	626.287
811.914	572.829
811.965	609.623
812.016	569.33
812.067	591.971
812.118	597.598
812.169	584.903
812.22	575.531
812.271	606.778
812.321	575.404
812.372	582.945
812.423	567.885
812.474	576.811
812.525	553.556
812.576	595.021
812.627	584.571
812.678	607.509
812.729	561.519
812.779	570.186
812.83	561.411
812.881	558.195
812.932	572.231
812.983	572.939
813.034	565.238
813.085	563.409
813.136	546.534
813.187	575.025
813.237	574.932
813.288	534.284
813.339	571.739
813.39	559.294
813.441	574.297
813.492	560.629
813.543	553.85
813.594	538.759
813.644	561.63
813.695	566.768
813.746	569.774
813.797	564.602
813.848	573.197
813.899	556.715
813.95	548.869
814.001	551.099
814.051	566.774
814.102	567.186
814.153	567.935
814.204	519.063
814.255	563.667
814.306	543.854
814.357	534.19
814.408	530.145
814.458	526.061
814.509	531.421
814.56	549.666
814.611	547.082
814.662	550.974
814.713	532.341
814.764	539.961
814.814	535.71
814.865	543.939
814.916	536.814
814.967	533.246
815.018	543.892
815.069	548.927
815.12	535.161
815.17	537.545
815.221	521.526
815.272	524.79
815.323	537.854
815.374	523.221
815.425	499.615
815.476	535.816
815.526	532.963
815.577	531.403
815.628	528.301
815.679	516.737
815.73	518.551
815.781	536.454
815.832	501.871
815.882	525.284
815.933	521.05
815.984	509.837
816.035	519.934
816.086	531.495
816.137	496.84
816.188	518.819
816.238	518.93
816.289	518.129
816.34	531.448
816.391	506.476
816.442	526.501
816.493	538.353
816.543	509.318
816.594	527.233
816.645	530.624
816.696	512.226
816.747	494.65
816.798	503.868
816.848	508.722
816.899	502.867
816.95	498.571
817.001	525.801
817.052	503.008
817.103	512.853
817.153	515.302
817.204	497.665
817.255	492.299
817.306	498.51
817.357	489.067
817.408	489.536
817.458	508.819
817.509	488.213
817.56	505.462
817.611	513.823
817.662	498.062
817.713	514.519
817.763	503.717
817.814	479.905
817.865	495.433
817.916	503.301
817.967	497.048
818.018	495.836
818.068	486.024
818.119	498.31
818.17	482.836
818.221	504.116
818.272	498.609
818.323	487.364
818.373	486.461
818.424	495.24
818.475	488.141
818.526	497.111
818.577	499.531
818.627	480.8
818.678	478.541
818.729	473.698
818.78	461.969
818.831	470.991
818.881	481.469
818.932	482.096
818.983	480.062
819.034	476.124
819.085	472.05
819.135	457.281
819.186	473.158
819.237	484.512
819.288	460.481
819.339	468.184
819.39	470.59
819.44	456.509
819.491	471.178
819.542	476.543
819.593	471.168
819.644	468.394
819.694	475.979
819.745	480.137
819.796	464.517
819.847	472.811
819.898	466.485
819.948	455.751
819.999	455.875
820.05	468.576
820.101	449.38
820.152	468.08
820.202	466.246
820.253	458.908
820.304	460.567
820.355	478.049
820.406	461.079
820.456	451.214
820.507	447.037
820.558	443.841
820.609	451.324
820.66	450.441
820.71	445.578
820.761	456.429
820.812	457.254
820.863	443.23
820.914	457.734
820.964	454.689
821.015	452.952
821.066	440.962
821.117	446.738
821.167	461.412
821.218	435.968
821.269	438.114
821.32	453.29
821.371	437.002
821.421	458.988
821.472	451.189
821.523	445.172
821.574	423.553
821.624	442.187
821.675	445.19
821.726	451.078
821.777	449.868
821.828	450.003
821.878	442.873
821.929	441.381
821.98	426.794
822.031	428.814
822.081	439.921
822.132	441.357
822.183	432.031
822.234	441.132
822.285	434.126
822.335	436.064
822.386	435.86
822.437	423.672
822.488	431.481
822.538	423.941
822.589	438.168
822.64	428.115
822.691	421.29
822.741	444.15
822.792	422.593
822.843	412.47
822.894	426.899
822.945	432.707
822.995	424.599
823.046	406.218
823.097	409.929
823.148	434.386
823.198	416.04
823.249	407.978
823.3	413.642
823.351	431.672
823.401	418.978
823.452	424.692
823.503	415.807
823.554	409.279
823.604	429.825
823.655	401.039
823.706	417.783
823.757	413.204
823.807	431.393
823.858	414.102
823.909	414.843
823.96	418.918
824.01	409.108
824.061	412.105
824.112	409.106
824.163	415.938
824.213	404.411
824.264	407.631
824.315	403.342
824.366	411.213
824.416	402.989
824.467	411.844
824.518	410.98
824.569	411.17
824.619	404.219
824.67	413.947
824.721	389.203
824.772	406.449
824.822	403.642
824.873	401.952
824.924	419.847
824.974	402.957
825.025	395.856
825.076	412.122
825.127	419.702
825.177	406.251
825.228	404.265
825.279	399.447
825.33	398.304
825.38	394.653
825.431	401.685
825.482	402.939
825.533	398.132
825.583	381.502
825.634	384.243
825.685	375.194
825.735	386.513
825.786	403.135
825.837	381.801
825.888	394.829
825.938	403.011
825.989	400.776
826.04	385.728
826.091	392.477
826.141	398.104
826.192	388.03
826.243	393.458
826.293	380.549
826.344	401.249
826.395	397.049
826.446	388.409
826.496	397.457
826.547	385.74
826.598	395.376
826.648	387.172
826.699	378.16
826.75	381.279
826.801	393.253
826.851	393.046
826.902	387.96
826.953	381.121
827.003	386.239
827.054	381.632
827.105	388.239
827.156	385.006
827.206	381.931
827.257	384.821
827.308	382.411
827.358	382.011
827.409	384.609
827.46	389.204
827.511	385.331
827.561	369.839
827.612	368.753
827.663	386.286
827.713	383.225
827.764	378.549
827.815	372.121
827.865	378.537
827.916	372.388
827.967	371.511
828.018	367.423
828.068	371.464
828.119	363.362
828.17	361.833
828.22	370.909
828.271	375.163
828.322	376.831
828.372	368.198
828.423	371.013
828.474	362.868
828.525	371.304
828.575	371.697
828.626	356.871
828.677	365.732
828.727	369.258
828.778	367.456
828.829	372.468
828.879	359.891
828.93	362.135
828.981	365.644
829.031	354.922
829.082	347.416
829.133	360.216
829.183	356.757
829.234	353.399
829.285	355.094
829.336	359.685
829.386	365.509
829.437	353.664
829.488	350.515
829.538	357.26
829.589	357.686
829.64	361.762
829.69	358.812
829.741	356.365
829.792	344.085
829.842	353.723
829.893	362.147
829.944	352.731
829.994	348.898
830.045	349.844
830.096	361.076
830.146	348.438
830.197	349.488
830.248	353.874
830.298	353.667
830.349	353.667
830.4	350.604
830.45	354.13
830.501	358.975
830.552	351.031
830.602	356.816
830.653	355.781
830.704	355.851
830.754	366.974
830.805	353.385
830.856	344.064
830.906	348.767
830.957	338.42
831.008	328.385
831.058	331.394
831.109	351.052
831.16	343.63
831.21	347.255
831.261	341.438
831.312	344.816
831.362	352.452
831.413	346.082
831.464	342.213
831.514	345.481
831.565	346.632
831.616	349.712
831.666	344.232
831.717	342.037
831.767	337.936
831.818	334.207
831.869	344.304
831.919	347.346
831.97	346.547
832.021	350.492
832.071	347.718
832.122	333.532
832.173	334.319
832.223	342.362
832.274	338.24
832.325	329.434
832.375	333.22
832.426	341.975
832.477	327.089
832.527	320.21
832.578	329.462
832.628	331.613
832.679	331.517
832.73	332.678
832.78	326.691
832.831	322.68
832.882	336.272
832.932	333.239
832.983	337.936
833.034	335.024
833.084	328.75
833.135	327.783
833.185	325.413
833.236	323.715
833.287	334.452
833.337	334.002
833.388	333.044
833.439	332.23
833.489	336.743
833.54	328.416
833.59	324.772
833.641	328.838
833.692	323.346
833.742	315.939
833.793	323.864
833.844	332.505
833.894	319.978
833.945	326.929
833.995	312.554
834.046	305.791
834.097	315.724
834.147	309.645
834.198	302.078
834.249	325.535
834.299	320.42
834.35	321.67
834.4	320.748
834.451	323.635
834.502	310.978
834.552	318.105
834.603	307.306
834.653	331.919
834.704	332.47
834.755	318.792
834.805	321.241
834.856	317.956
834.906	318.435
834.957	329.54
835.008	328.412
835.058	327.263
835.109	323.605
835.16	309.216
835.21	311.428
835.261	324.57
835.311	306.868
835.362	314.596
835.413	308.17
835.463	326.991
835.514	309.827
835.564	305.543
835.615	316.626
835.666	318.725
835.716	319.702
835.767	310.085
835.817	301.175
835.868	310.962
835.919	312.441
835.969	324.502
836.02	309.465
836.07	302.09
836.121	308.394
836.161	302
836.212	296
836.263	311.998
836.314	305.973
836.365	284.065
836.415	302.017
836.466	309.879
836.517	284.073
836.568	321.531
836.618	280.225
836.669	298
836.72	303.74
836.771	284.312
836.821	284.334
836.872	290.273
836.923	305.686
836.974	295.887
837.024	299.948
837.075	305.605
837.126	298.168
837.177	303.904
837.227	290.264
837.278	295.876
837.329	299.728
837.38	297.689
837.43	292.118
837.481	307.425
837.532	299.574
837.583	286.676
837.633	286.942
837.684	280.755
837.735	295.654
837.786	293.23
837.836	293.105
837.887	310.714
837.938	299.354
837.989	305.278
838.039	282.102
838.09	285.325
838.141	300.41
838.192	272.645
838.242	292.29
838.293	278.434
838.344	282.319
838.395	285.862
838.445	276.631
838.496	302.624
838.547	295.217
838.598	286
838.648	292.999
838.699	282.523
838.75	311.542
838.801	278.448
838.851	288.718
838.902	291.872
838.953	279.068
839.003	287.276
839.054	275.928
839.105	284.747
839.156	287.769
839.206	286.536
839.257	306.752
839.308	288.889
839.359	293.496
839.409	278.519
839.46	288.922
839.511	282.826
839.562	275.775
839.612	276.355
839.663	285.111
839.714	281.393
839.764	289.824
839.815	284.793
839.866	282.986
839.917	292.284
839.967	291.508
840.018	283.231
840.069	284.672
840.119	289.07
840.17	293.444
840.221	279.789
840.272	287.634
840.322	271.073
840.373	272.092
840.424	283.466
840.474	275.169
840.525	269.404
840.576	288.988
840.627	265.497
840.677	279.419
840.728	272.593
840.779	277.602
840.829	268.784
840.88	275.466
840.931	276.535
840.982	263.634
841.032	265.36
841.083	270.673
841.134	257.925
841.184	262.103
841.235	270.828
841.286	263.563
841.337	270.34
841.387	261.301
841.438	262.914
841.489	272.019
841.539	278.404
841.59	263.088
841.641	265.219
841.691	262.841
841.742	276.591
841.793	276.361
841.844	266.259
841.894	266.042
841.945	262.898
841.996	261.78
842.046	283.266
842.097	272.693
842.148	274.072
842.198	268.085
842.249	263.94
842.3	277.64
842.351	273.242
842.401	267.025
842.452	263.577
842.503	280.591
842.553	270
842.604	251.133
842.655	256.785
842.705	268.727
842.756	265.227
842.807	261.296
842.857	271.436
842.908	267.771
842.959	245.724
843.009	260.139
843.06	281.28
843.111	260.71
843.161	260.076
843.212	262.015
843.263	262.869
843.314	255.77
843.364	266.06
843.415	247.947
843.466	248.427
843.516	257.238
843.567	248.923
843.618	258.869
843.668	259.033
843.719	265.719
843.77	259.316
843.82	255.642
843.871	256.998
843.922	255.437
843.972	246.882
844.023	251.409
844.074	255.134
844.124	251.929
844.175	251.1
844.226	244.792
844.276	246.877
844.327	254.496
844.378	262.254
844.428	254.984
844.479	262.906
844.53	260.987
844.58	244.875
844.631	236.351
844.682	252.432
844.732	254.277
844.783	246.231
844.834	253.572
844.884	251.765
844.935	258.684
844.986	244.755
845.036	251.752
845.087	251.958
845.138	254.031
845.188	239.825
845.239	236.149
845.29	239.781
845.34	250.047
845.391	247.756
845.442	236.543
845.492	238.648
845.543	255.538
845.594	249.143
845.644	250.37
845.695	247.468
845.745	242.063
845.796	249.239
845.847	239.509
845.897	243.842
845.948	246.812
845.999	245.984
846.049	234.915
846.1	243.141
846.151	249.199
846.201	244.631
846.252	236.408
846.303	240.844
846.353	237.575
846.404	248.065
846.455	237.517
846.505	243.892
846.556	242.687
846.606	237.905
846.657	245.028
846.708	239.428
846.758	239.703
846.809	233.847
846.86	235.49
846.91	246.02
846.961	247.339
847.012	248.03
847.062	234.351
847.113	231.477
847.163	239.94
847.214	242.606
847.265	234.297
847.315	231.762
847.366	252.828
847.417	236.548
847.467	227.432
847.518	247.192
847.568	229.859
847.619	226.602
847.67	234.878
847.72	236.403
847.771	247.283
847.822	230.781
847.872	238.415
847.923	242.602
847.973	236.622
848.024	234.179
848.075	210.563
848.125	229.661
848.176	238.736
848.227	241.854
848.277	225.526
848.328	231.917
848.378	236.168
848.429	223.025
848.48	227.199
848.53	230.237
848.581	228.282
848.631	236.177
848.682	226.648
848.733	240.061
848.783	214.869
848.834	228.159
848.885	224.836
848.935	233.965
848.986	226.448
849.036	225.588
849.087	227.788
849.138	227.829
849.188	215.823
849.239	218.44
849.289	228.109
849.34	229.819
849.391	228.271
849.441	228.904
849.492	227.744
849.542	217.088
849.593	217.264
849.644	224.976
849.694	218.953
849.745	222.688
849.795	225.809
849.846	224.166
849.897	226.942
849.947	238.801
849.998	218.803
850.048	215.004
850.099	227.616
850.15	222.009
850.2	216.933
850.251	215.53
850.301	211.237
850.352	222.274
850.403	221.133
850.453	210.308
850.504	227.257
850.554	215.359
850.605	219.614
850.656	214.072
850.706	216.648
850.757	219.953
850.807	218.258
850.858	217.026
850.908	226.377
850.959	209.772
851.01	223.184
851.06	217.246
851.111	218.566
851.161	218.541
851.212	217.386
851.263	217.565
851.313	212.353
851.364	219.144
851.414	210.949
851.465	213.58
851.515	219.334
851.566	215.336
851.617	221.511
851.667	213.808
851.718	215.992
851.768	220.172
851.819	214.071
851.869	214.59
851.92	211.114
851.971	210.641
852.021	208.292
852.072	217.394
852.122	200.336
852.173	214.847
852.223	215.555
852.274	211.869
852.325	217.321
852.375	208.54
852.426	213.679
852.476	200.351
852.527	198.681
852.577	206.799
852.628	211.872
852.678	212.647
852.729	211.766
852.78	214.05
852.83	222.735
852.881	209.65
852.931	205.156
852.982	213.167
853.032	210.023
853.083	203.029
853.133	214.766
853.184	208.239
853.235	210.425
853.285	213.52
853.336	207.261
853.386	207.003
853.437	196.256
853.487	200.468
853.538	211.024
853.588	215.466
853.639	217.582
853.69	201.396
853.74	211.173
853.791	208.96
853.841	201.943
853.892	203.097
853.942	195.051
853.993	201.151
854.043	205.671
854.094	209.061
854.144	206.767
854.195	209.838
854.246	213.499
854.296	205.459
854.347	207.093
854.397	211.58
854.448	195.457
854.498	194.011
854.549	190.091
854.599	193.987
854.65	201.007
854.7	198.269
854.751	193.253
854.801	200.928
854.852	193.519
854.902	195.793
854.953	189.914
855.004	194.419
855.054	198.102
855.105	193.037
855.155	204.065
855.206	203.512
855.256	189.02
855.307	194.383
855.357	199.003
855.408	189.439
855.458	191.314
855.509	195.151
855.559	200.31
855.61	196.75
855.66	195.728
855.711	204.433
855.761	201.205
855.812	201.957
855.862	191.174
855.913	184.106
855.964	189.59
856.014	191.3
856.065	190.594
856.115	191.4
856.166	191.096
856.216	188.453
856.267	189.69
856.317	192.956
856.368	193.711
856.418	185.995
856.469	189.432
856.519	194.068
856.57	191.4
856.62	191.142
856.671	197.387
856.721	194.029
856.772	190.619
856.822	186.531
856.873	182.357
856.923	183.965
856.974	191.69
857.024	185.014
857.075	180.773
857.125	195.348
857.176	192.191
857.226	190.607
857.277	182.803
857.327	184.052
857.378	193.282
857.428	184.909
857.479	177.939
857.529	187.409
857.58	190.877
857.63	183.24
857.681	187.036
857.731	189.311
857.782	178.853
857.832	177.636
857.883	182.923
857.933	186.923
857.984	188.348
858.034	188.895
858.085	181.689
858.135	184.899
858.186	185.598
858.236	180.714
858.287	177.114
858.337	175.703
858.388	179.387
858.438	185.955
858.489	184.077
858.539	189.113
858.589	184.344
858.64	182.247
858.69	179.635
858.741	185.33
858.791	183.218
858.842	183.555
858.892	174.256
858.943	173.957
858.993	176.166
859.044	172.283
859.094	174.336
859.145	180.536
859.195	173.864
859.246	174.598
859.296	181.027
859.347	180.375
859.397	179.064
859.448	180.279
859.498	177.021
859.549	173.731
859.599	183.254
859.649	182.192
859.7	178.306
859.75	176.275
859.801	179.822
859.851	181.995
859.902	181.861
859.952	178.557
860.003	177.105
860.053	182.671
860.104	189.209
860.154	186.131
860.205	180.881
860.255	178.676
860.305	179.206
860.356	181.923
860.406	180.311
860.457	171.873
860.507	174.289
860.558	180.251
860.608	177.543
860.659	177.249
860.709	180.017
860.76	178.589
860.81	180.801
860.861	175.086
860.911	170.69
860.961	178.797
861.012	177.621
861.062	173.287
861.113	182.805
861.163	182.218
861.214	170.254
861.264	165.188
861.315	167.81
861.365	166.826
861.415	169.445
861.466	175.18
861.516	179.216
861.567	179.513
861.617	173.205
861.668	146.964
861.718	172.063
861.769	163.024
861.819	175.573
861.869	164.712
861.92	176.494
861.97	158.585
862.021	168.806
862.071	171.986
862.112	171.998
862.162	172.002
862.213	175.984
862.263	162.068
862.314	174.026
862.365	170.041
862.415	160.08
862.466	160.022
862.516	169.814
862.567	169.913
862.618	167.941
862.668	156.135
862.719	171.962
862.77	170
862.82	169.954
862.871	164.074
862.921	171.553
862.972	169.895
863.023	168.457
863.073	162.439
863.124	165.908
863.174	152.419
863.225	171.762
863.276	164.275
863.326	167.987
863.377	169.409
863.427	171.314
863.478	167.367
863.529	169.259
863.579	164.012
863.63	163.858
863.68	161.687
863.731	158.011
863.782	176.966
863.832	164.361
863.883	169.537
863.933	172.955
863.984	160.215
864.034	159.678
864.085	162.922
864.136	165.475
864.186	189.975
864.237	154.483
864.287	169.164
864.338	158.694
864.389	171.378
864.439	176.913
864.49	169.815
864.54	146.551
864.591	160.876
864.642	158.109
864.692	167.182
864.743	167.696
864.793	152.85
864.844	142.207
864.894	171.145
864.945	158.024
864.996	156.407
865.046	142.219
865.097	161.055
865.147	157.656
865.198	159.719
865.248	154.754
865.299	168.291
865.35	146.667
865.4	157.86
865.451	147.819
865.501	161.346
865.552	164.034
865.603	162.706
865.653	162.583
865.704	170.537
865.754	149.066
865.805	173.943
865.855	151.636
865.906	146.733
865.956	153.018
866.007	162.528
866.058	151.455
866.108	172.281
866.159	147.57
866.209	154.385
866.26	146.702
866.31	159.023
866.361	150.531
866.412	160.077
866.462	166.161
866.513	160.564
866.563	147.536
866.614	160.088
866.664	157.346
866.715	153.061
866.766	155.444
866.816	154.597
866.867	164.998
866.917	144.133
866.968	153.291
867.018	156.38
867.069	165.549
867.119	154.969
867.17	157.225
867.22	156.529
867.271	144.264
867.322	147.99
867.372	146.066
867.423	147.11
867.473	154.664
867.524	148.249
867.574	164.018
867.625	159.038
867.675	151.435
867.726	152.829
867.776	149.734
867.827	152.496
867.878	152.842
867.928	149.59
867.979	156.188
868.029	149.272
868.08	144.279
868.13	154.471
868.181	150.276
868.231	143.893
868.282	149.135
868.332	150.63
868.383	145.19
868.433	145.081
868.484	156.183
868.535	155.274
868.585	146.62
868.636	148.358
868.686	150.821
868.737	144.714
868.787	150.559
868.838	143.269
868.888	159.681
868.939	151.517
868.989	138.167
869.04	141.805
869.09	153.922
869.141	151.328
869.191	149.666
869.242	154.227
869.292	147.414
869.343	145.902
869.394	150
869.444	145.357
869.495	146.515
869.545	149.961
869.596	155.217
869.646	147.696
869.697	143.133
869.747	153.155
869.798	151.572
869.848	142.796
869.899	143.286
869.949	139.886
870	144.476
870.05	143.026
870.101	147.528
870.151	144.953
870.202	141.086
870.252	150.281
870.303	140.189
870.353	135.639
870.404	152.137
870.454	145.497
870.505	138.304
870.555	144.781
870.606	145.001
870.656	137.339
870.707	141.835
870.757	143.523
870.808	138.812
870.858	141.324
870.909	143.884
870.959	140.706
871.01	144.671
871.06	131.107
871.111	148.168
871.161	138.032
871.212	138.307
871.262	144.847
871.313	135.463
871.363	134.981
871.414	139.815
871.464	134.554
871.515	139.744
871.565	139.96
871.616	143.166
871.666	146.687
871.717	137.303
871.767	143.87
871.818	135.376
871.868	129.431
871.919	133.332
871.969	144.151
872.02	142.209
872.07	140.139
872.121	137.734
872.171	132.959
872.222	134.732
872.272	141.467
872.323	138.914
872.373	140.712
872.424	131.973
872.474	144.815
872.525	135.187
872.575	136.759
872.626	135.955
872.676	137.633
872.727	138.002
872.777	141.637
872.828	135.206
872.878	131.188
872.929	128.694
872.979	127.97
873.03	132.129
873.08	135.839
873.13	137.04
873.181	145.144
873.231	133.835
873.282	139.494
873.332	136.76
873.383	141.773
873.433	123.536
873.484	128.42
873.534	130.048
873.585	134.452
873.635	136.383
873.686	137.526
873.736	138.66
873.787	136.708
873.837	132.851
873.888	128.53
873.938	139.138
873.988	134
874.039	127.297
874.089	123.652
874.14	128.131
874.19	134.222
874.241	132.845
874.291	126.378
874.342	133.046
874.392	135.022
874.443	133.072
874.493	124.971
874.544	130.393
874.594	125.977
874.644	136.85
874.695	127.883
874.745	134.604
874.796	135.269
874.846	133.594
874.897	125.546
874.947	130.561
874.998	130.61
875.048	131.246
875.099	131.306
875.149	127.308
875.199	131.513
875.25	129.181
875.3	127.132
875.351	130.433
875.401	119.373
875.452	128.49
875.502	125.162
875.553	133.854
875.603	129.782
875.653	127.963
875.704	118.406
875.754	127.712
875.805	126.632
875.855	129.75
875.906	127.195
875.956	131.666
876.006	133.46
876.057	126.857
876.107	123.425
876.158	124.53
876.208	118.053
876.259	127.224
876.309	129.356
876.36	135.927
876.41	128.532
876.46	124.84
876.511	127.726
876.561	139.174
876.612	123.906
876.662	130.964
876.713	124.222
876.763	121.224
876.813	131.559
876.864	131.832
876.914	127.688
876.965	132.238
877.015	122.438
877.065	126.992
877.116	120.29
877.166	126.985
877.217	130.838
877.267	126.343
877.318	119.758
877.368	127.858
877.418	123.55
877.469	125.172
877.519	123.658
877.57	132.464
877.62	130.712
877.671	128.797
877.721	127.959
877.771	129.594
877.822	126.756
877.872	123.451
877.923	118.787
877.973	125.16
878.023	126.735
878.074	116.151
878.124	119.335
878.175	121.796
878.225	123.955
878.276	118.811
878.326	118.672
878.376	122.743
878.427	122.107
878.477	116.903
878.528	118.308
878.578	125.997
878.628	120.397
878.679	118.419
878.729	120.132
878.78	121.047
878.83	121.807
878.88	113.496
878.931	122.552
878.981	124.446
879.031	120.161
879.082	120.986
879.132	120.943
879.183	119.805
879.233	122.701
879.284	125.639
879.334	121.92
879.384	114.988
879.435	121.776
879.485	122
879.535	129.18
879.586	123.477
879.636	114.39
879.687	116.707
879.737	122.767
879.787	121.494
879.838	121.522
879.888	115.474
879.939	119.007
879.989	122.488
880.039	115.946
880.09	116.765
880.14	126.214
880.19	123.703
880.241	115.617
880.291	105.895
880.342	115.652
880.392	120.926
880.442	122.503
880.493	119.398
880.543	115.576
880.594	116.791
880.644	114.714
880.694	113.322
880.745	114.676
880.795	112.273
880.845	116.081
880.896	112.439
880.946	119.266
880.996	115.728
881.047	114.269
881.097	115.064
881.148	114.53
881.198	116.475
881.248	115.668
881.299	114.443
881.349	118.726
881.399	116.111
881.45	113.521
881.5	110.642
881.551	113.13
881.601	118.457
881.651	117.223
881.702	108.136
881.752	108.9
881.802	119.382
881.853	113.244
881.903	106.79
881.953	117.34
882.004	113.689
882.054	112.305
882.104	116.203
882.155	113.178
882.205	113.895
882.256	111.587
882.306	109.361
882.356	114.528
882.407	116.264
882.457	108.386
882.507	106
882.558	106.825
882.608	117.887
882.658	111.391
882.709	104.413
882.759	106.27
882.809	108.498
882.86	109.047
882.91	106.695
882.96	117.155
883.011	113.628
883.061	115.532
883.111	107.856
883.162	105.736
883.212	100.886
883.262	105.281
883.313	105.649
883.363	113.161
883.413	115.07
883.464	105.174
883.514	104.542
883.565	113.085
883.615	115.72
883.665	106.781
883.716	112.051
883.766	118.369
883.816	118.725
883.867	114.758
883.917	114.394
883.967	111.598
884.017	105.14
884.068	114.088
884.118	107.106
884.168	108.922
884.219	112.934
884.269	117.227
884.319	103.547
884.37	98.4209
884.42	105.124
884.47	103.42
884.521	109.334
884.571	116.012
884.621	107.981
884.672	107.926
884.722	106.159
884.772	96.9562
884.823	107.316
884.873	104.784
884.923	99.1022
884.974	110.011
885.024	111.967
885.074	110.423
885.125	99.1297
885.175	101.357
885.225	111.063
885.276	108.262
885.326	99.7423
885.376	102.857
885.426	106.748
885.477	110.426
885.527	103.905
885.577	105.36
885.628	101.665
885.678	109.048
885.728	99.3684
885.779	107.093
885.829	102.412
885.879	105.431
885.93	105.811
885.98	98.9347
886.03	107.098
886.08	106.782
886.131	94.4088
886.181	113.103
886.231	105.553
886.282	103.904
886.332	96.9418
886.382	101.683
886.432	106.215
886.483	109.298
886.533	104.127
886.583	105.024
886.634	97.495
886.684	99.6757
886.734	95.0514
886.785	98.5729
886.835	108.717
886.885	105.931
886.935	107.111
886.986	100.559
887.036	103.606
887.086	99.788
887.137	105.952
887.187	104.028
887.237	100.36
887.287	101.559
887.338	86.8678
887.388	103.896
887.438	102.09
887.489	103.626
887.539	98.0802
887.589	103.906
887.639	99.9863
887.69	94.4216
887.74	105.62
887.79	102.081
887.841	107.754
887.891	100.234
887.941	107.707
887.943	107.938
887.993	111.927
888.044	105.913
888.094	94.0564
888.144	94.1565
888.195	104.245
888.245	105.927
888.296	101.839
888.346	99.8874
888.397	97.8313
888.447	98.0336
888.498	99.8192
888.548	86.2241
888.599	97.5599
888.649	103.228
888.699	93.8631
888.75	110.838
888.8	100.155
888.851	110.814
888.901	88.7357
888.952	107.108
889.002	94.3734
889.053	105.035
889.103	104.831
889.153	112.125
889.204	95.3225
889.254	90.5258
889.305	88.7329
889.355	100.239
889.406	90.9579
889.456	95.2583
889.507	90.1093
889.557	102.662
889.607	95.6701
889.658	99.2107
889.708	96.6846
889.759	93.104
889.809	96.9585
889.86	94.5247
889.91	85.8409
889.96	101.245
890.011	91.5677
890.061	102.287
890.112	91.2011
890.162	102.962
890.213	101.614
890.263	93.29
890.313	95.5975
890.364	100.65
890.414	91.6051
890.465	94.7178
890.515	101.247
890.566	95.7012
890.616	104.129
890.666	99.7549
890.717	96.7178
890.767	88.4346
890.818	92.6883
890.868	100.544
890.919	88.7058
890.969	97.1836
891.019	103.619
891.07	89.2576
891.12	93.1726
891.171	100.811
891.221	90.2075
891.271	94.1543
891.322	92.3961
891.372	100.982
891.423	100.695
891.473	87.2986
891.523	89.0785
891.574	98.4821
891.624	95.7241
891.675	97.8252
891.725	94.5317
891.776	97.2166
891.826	86.5548
891.876	89.6383
891.927	87.1328
891.977	94.9121
892.028	91.5375
892.078	90.2984
892.128	93.3894
892.179	98.7125
892.229	90.5876
892.28	87.6527
892.33	90.5542
892.38	91.5945
892.431	95.3352
892.481	89.0373
892.532	92.4487
892.582	91.8055
892.632	97.8401
892.683	87.776
892.733	90.7617
892.784	90.7368
892.834	94.5883
892.884	83.448
892.935	94.2576
892.985	90.4456
893.036	93.8606
893.086	80.583
893.136	91.3983
893.187	96.9958
893.237	91.403
893.288	91.0046
893.338	93.6971
893.388	91.4564
893.439	93.6252
893.489	85.9747
893.539	94
893.59	91.8838
893.64	95.893
893.691	90.2348
893.741	86.5842
893.791	95.9756
893.842	94.0545
893.892	87.1015
893.943	88.9831
893.993	93.0531
894.043	92.9565
894.094	88.9855
894.144	95.0242
894.194	98.9879
894.245	87.0242
894.295	86.9758
894.346	94.0169
894.396	88.9275
894.446	89.0435
894.497	87
894.547	85.1522
894.597	88.8551
894.648	85
894.698	83.0604
894.749	81.0978
894.799	92.7826
894.849	86.1594
894.9	85.9565
894.95	97.7705
895	87.0495
895.051	92.948
895.101	85.1111
895.151	92.8816
895.202	95.7536
895.252	87.4565
895.303	83.0688
895.353	86
895.403	85.2246
895.454	93.529
895.504	83.3285
895.554	85.5768
895.605	90.2609
895.655	85.2717
895.706	87
895.756	90.2261
895.806	88.1002
895.857	88.5193
895.907	89.1064
895.957	85.6703
896.008	91.2271
896.058	73.0447
896.108	78.9239
896.159	90
896.209	76.1256
896.259	79.4831
896.31	79.0544
896.36	83.7295
896.41	82.5865
896.461	75.285
896.511	80
896.561	86.5538
896.612	80
896.662	82.1548
896.713	80.9493
896.763	84.9093
896.813	88.314
896.864	78
896.914	81
896.964	81.8259
897.015	84.1775
897.065	78
897.115	83.7391
897.166	82.4377
897.216	86.6203
897.266	74.5797
897.317	86.6058
897.367	85.1981
897.417	86.4063
897.468	74.0339
897.518	80.5797
897.568	85.7872
897.619	85
897.669	79.4396
897.719	80.6675
897.77	91.0605
897.82	82.1473
897.87	81.9335
897.921	87.4716
897.971	89.5652
898.021	91
898.072	83.2273
898.122	77.2491
898.172	81.2428
898.223	82.5127
898.273	82.7412
898.323	83.7872
898.374	79.9408
898.424	86.6534
898.474	79.6324
898.524	76
898.575	83.8875
898.625	78.9722
898.675	75.5683
898.726	85.9855
898.776	84.1232
898.826	86.8851
898.877	82.7013
898.927	84.3011
898.977	79.9141
899.028	80
899.078	76.6892
899.128	79.6288
899.179	84.7739
899.229	86.6022
899.279	74.2684
899.33	79.3785
899.38	88.6747
899.43	82.6675
899.48	83.6747
899.531	83.682
899.581	82.9661
899.631	82
899.682	75.7533
899.732	84.1657
899.782	84.4317
899.833	79.0846
899.883	79
899.933	77.6324
899.984	85.4068
