#Acq. time (s)=	3
#Accumulations=	2
#Range (nm)=	520...900
#Windows=	16
#Auto scanning=	On
#Autofocus=	Off
#AutoExposure=	Off
#Spike filter=	Multiple accum.
#Delay time (s)=	0
#Binning=	1
#Readout mode=	Signal
#DeNoise=	Off
#ICS correction=	Off
#Dark correction=	Off
#Inst. Process=	Off
#Detector temperature (°C)=	-59.98
#Instrument=	LabRAM HR Evol
#Detector=	Syncerity OE
#Objective=	x50_VIS
#Grating=	600 (500nm)
#ND Filter=	10%
#Laser=	514nm_Edge
#Hole=	199.981
#Range=	Auto
#StageXY=	Marzhauser
#StageZ=	Marzhauser
#X (µm)=	-3440.6
#Y (µm)=	-678.3
#Z (µm)=	304.9
#Full time(mm:ss)=	2:39
#Project=	
#Sample=	
#Site=	
#Title=	PL_230124_Amostra_marrom
#Remark=	
#Date=	31.01.2024 11:25
#Acquired=	31.01.2024 11:25:56
520.042	32
520.094	34.914
520.147	33.0908
520.199	29.9069
520.251	33.0977
520.304	34.7439
520.356	37.9476
520.408	41.9464
520.461	29.3988
520.513	29
520.565	31.9406
520.618	32
520.67	37.8079
520.723	28.326
520.775	34.6624
520.827	39.7209
520.88	34.3609
520.932	28.2934
520.984	38.3946
521.037	36.1537
521.089	30.4744
521.141	33.5111
521.194	35.4133
521.246	35.5751
521.298	35
521.351	32.1791
521.403	37
521.455	36
521.508	35.0943
521.56	30.1932
521.612	38.4133
521.665	38.8988
521.717	32.5122
521.769	30.1048
521.822	36.6822
521.874	30.3248
521.926	39.7811
521.979	34.7765
522.031	35.7742
522.083	29.461
522.136	37.7628
522.188	30.2398
522.24	38.5111
522.293	40.2468
522.345	37
522.397	38
522.45	39.1292
522.502	36
522.554	36
522.607	36.5949
522.659	42
522.711	36.2794
522.764	37.7183
522.816	36.2864
522.868	37.8545
522.921	39.56
522.973	37.596
523.025	34.1513
523.078	42.5425
523.13	33.6193
523.182	33.1572
523.234	38.2026
523.287	35.1607
523.339	41.163
523.391	29.6612
523.444	37.9942
523.496	36.6752
523.548	38.3193
523.601	34.5169
523.653	40.4761
523.705	30.7078
523.758	39.4657
523.81	36.3609
523.862	37.6345
523.915	38.1851
523.967	35.5623
524.019	33.6224
524.072	33.8091
524.124	38
524.176	37.7776
524.229	33.0163
524.281	42
524.333	36
524.385	36.4051
524.438	32.2049
524.49	38
524.542	33.2095
524.595	37.789
524.647	29.7881
524.699	35.5716
524.752	39.3504
524.804	37.8754
524.856	35
524.909	42.5553
524.961	38.7753
525.013	36.5891
525.066	35.4009
525.118	37.1525
525.17	40.603
525.222	35.4056
525.275	34.7637
525.327	39.0454
525.379	39.7238
525.432	36.4866
525.484	29.4913
525.536	34.0081
525.589	39.2517
525.641	36.0116
525.693	33.9849
525.745	40.4895
525.798	36.2864
525.85	38.2238
525.902	35.2608
525.955	38
526.007	38
526.059	36
526.112	37.4598
526.164	40.7284
526.216	35.0943
526.268	36.1713
526.321	32.1129
526.373	30.4406
526.425	42.3097
526.478	33.7043
526.53	32.7133
526.582	38.4226
526.635	35.1608
526.687	36.7078
526.739	36.4126
526.791	40.7031
526.844	36.2984
526.896	36.3004
526.948	36.0909
527.001	44
527.053	41.6935
527.105	37.9255
527.157	36
527.21	40.3737
527.262	40
527.314	34.9069
527.367	37.042
527.419	44.0385
527.471	32.2945
527.523	41.0245
527.576	39.3271
527.628	38.6702
527.68	40
527.733	31.007
527.785	33.6573
527.837	40.6496
527.889	38.6807
527.942	39
527.994	36
528.046	37.3462
528.099	44.5553
528.151	40.0524
528.203	40.3531
528.255	41.3551
528.308	36.0699
528.36	37.5641
528.412	37.4435
528.464	41.6364
528.517	40.2704
528.569	36.1014
528.621	38
528.674	39.8846
528.726	39.7483
528.778	35.376
528.83	39.8636
528.883	36.5198
528.935	37.1469
528.987	34.0792
529.039	39
529.092	41.4429
529.144	43.7809
529.196	36.5711
529.249	35.6054
529.301	34.8077
529.353	41.5991
529.405	38
529.458	33.5967
529.51	34.8126
529.562	32
529.614	37.1282
529.667	42.8252
529.719	36.4138
529.771	42.2483
529.823	37.5809
529.876	41.317
529.928	41.8462
529.98	36.8508
530.033	38.5723
530.085	42.8555
530.137	38.1562
530.189	38.1329
530.242	35.8718
530.294	43.3776
530.346	44.2002
530.398	38.4429
530.451	37
530.503	40.1049
530.555	38.2436
530.607	38.1958
530.66	36.4534
530.712	42.7214
530.764	40.8322
530.816	40.6189
530.869	37.4615
530.921	44.5361
530.973	40.8648
531.025	41.5315
531.078	33.9417
531.13	36.4732
531.182	40.0979
531.234	39.9557
531.287	35
531.339	38.4825
531.391	37.0326
531.443	37.4854
531.496	35.4872
531.548	40.5315
531.6	45
531.652	38.4709
531.705	35.5175
531.757	41.4988
531.809	37.4988
531.861	41.4895
531.914	43
531.966	37.0455
532.018	41.9254
532.07	42.535
532.123	42.972
532.175	43.4825
532.227	42.6387
532.279	38.5216
532.332	34.9534
532.384	41.9487
532.436	42.1119
532.488	37.3485
532.541	44.5963
532.593	43.3986
532.645	42.5361
532.697	38.1585
532.75	40.8343
532.802	43.4569
532.854	45.1818
532.906	37.4522
532.958	37.4504
533.011	43.5524
533.063	39
533.115	41.3287
533.167	34.1179
533.22	39.5606
533.272	44
533.324	40
533.376	41.5676
533.429	41.5788
533.481	43.7322
533.533	39.7205
533.585	42.8203
533.638	45.4191
533.69	44.167
533.742	37.9174
533.794	35.3333
533.846	43.196
533.899	43.0677
533.951	42.8708
534.003	37.1409
534.055	42.2183
534.108	42.8409
534.16	39.8025
534.212	40.5962
534.264	49.8346
534.316	46.0048
534.369	41.1059
534.421	44.5053
534.473	40.666
534.525	41.4121
534.578	37.8367
534.63	44.7593
534.682	41.4704
534.734	42.6806
534.786	46.982
534.839	45.5644
534.891	51.782
534.943	44.6137
534.995	38.7985
535.047	46.2992
535.1	51.8861
535.152	52.1358
535.204	48.6713
535.256	47.8366
535.309	47.7694
535.361	47.5053
535.413	44.9039
535.465	44.9028
535.517	48.4577
535.57	42.2053
535.622	45.1182
535.674	50.7769
535.726	51.9639
535.778	49.1066
535.831	41.1239
535.883	43.5522
535.935	50.4262
535.987	44.3594
536.039	46.8401
536.092	47.593
536.144	46.4566
536.196	41.4983
536.248	43.4107
536.301	44.4362
536.353	50.5214
536.405	44.4434
536.457	40.5932
536.509	49.8227
536.562	49.6975
536.614	47.0789
536.666	41.7294
536.718	44.5715
536.77	48.4241
536.823	44.1571
536.875	46.7319
536.927	46.2351
536.979	43.268
537.031	41.6536
537.083	44.6439
537.136	44.2555
537.188	42.1429
537.24	43.1801
537.292	46.8787
537.344	50.3346
537.397	46.179
537.449	44.1835
537.501	46.9808
537.553	49.6145
537.605	51.0417
537.658	48.3221
537.71	48.6848
537.762	48.6139
537.814	49.4367
537.866	44.6172
537.919	47.9046
537.971	51.1072
538.023	48.0824
538.075	40.9507
538.127	44.4903
538.18	53.7099
538.232	58.6557
538.284	44.6353
538.336	41.8328
538.388	57.3067
538.44	46.8982
538.493	45.7331
538.545	44.775
538.597	48.7137
538.649	45.6323
538.701	42.8506
538.754	42.7178
538.806	54.7723
538.858	49.7551
538.91	43.6777
538.962	47.1624
539.014	48.4495
539.067	53.0587
539.119	45.8622
539.171	48.2399
539.223	50.3817
539.275	51.8257
539.327	46.0712
539.38	44.1269
539.432	49.3645
539.484	54.2841
539.536	45.768
539.588	48.2635
539.641	55.5104
539.693	50.5264
539.745	48.8709
539.797	52.6171
539.849	45.1838
539.901	50.1333
539.954	45.9352
540.006	49.0059
540.058	47.501
540.11	48.9902
540.162	48.1937
540.214	51.1652
540.267	52.859
540.319	56
540.371	52.1269
540.423	52.4221
540.475	54.7141
540.527	51.8951
540.58	43.7729
540.632	51.8723
540.684	55.8018
540.736	47.9701
540.788	42.8885
540.84	48.0848
540.892	60.6357
540.945	50.1624
540.997	48.706
541.049	56.4503
541.101	52.9059
541.153	45.9296
541.205	46.9872
541.258	56.0777
541.31	58.9901
541.362	51.4351
541.414	51.3883
541.466	52.0083
541.518	57.1158
541.57	55.3307
541.623	56.4736
541.675	58.4723
541.727	59.6262
541.779	58.4331
541.831	56.8201
541.883	57.4875
541.936	63.6698
541.988	44.1359
542.04	52.2024
542.092	59.2302
542.144	63.7599
542.196	55.549
542.248	52.6381
542.301	64.0386
542.353	52.6536
542.405	52.0783
542.457	57.0276
542.509	60.0944
542.561	63.7193
542.613	57.9526
542.666	54.6958
542.718	62.1618
542.77	57.9403
542.822	48.9227
542.874	61.397
542.926	51.1631
542.978	62.5586
543.031	52.2779
543.083	54.8635
543.135	60.5988
543.187	59.2318
543.239	56.3171
543.291	54.0326
543.343	61.3481
543.396	53.9231
543.448	61.5667
543.5	57.1108
543.552	69.8981
543.604	64.4723
543.656	55.4655
543.708	57.413
543.76	62.0717
543.813	60.5136
543.865	61.2766
543.917	54.3514
543.969	65.2417
544.021	68.7989
544.073	67.3105
544.125	55.7072
544.177	65.5181
544.23	56.9546
544.282	55.636
544.334	55.5502
544.386	59.7838
544.438	56.784
544.49	58.1913
544.542	55.1041
544.594	62.1902
544.647	60.3098
544.699	60.1507
544.751	58.4581
544.803	73.3164
544.855	65.7513
544.907	60.2266
544.959	58.3189
545.011	68.5904
545.064	67.7042
545.116	64.1655
545.168	67.4706
545.22	76.6064
545.272	65.6242
545.324	65.3636
545.376	64.4283
545.428	64.4795
545.48	62.2385
545.533	63.5804
545.585	61.1701
545.637	69.6771
545.689	69.8791
545.741	69.4931
545.793	61.5593
545.845	61.9825
545.897	73.593
545.949	68.9262
546.002	71.466
546.054	73.5546
546.106	65.6202
546.158	70.6729
546.21	73.5348
546.262	65.6748
546.314	62.4466
546.366	60.2836
546.418	70.026
546.471	75.2738
546.523	67.7382
546.575	65.9774
546.627	70.8895
546.679	72.0118
546.689	72.0006
546.741	52.1576
546.793	68.0519
546.845	60.1307
546.898	73.8678
546.95	66.0465
547.002	68.0739
547.054	75.8803
547.106	67.9793
547.159	70.0371
547.211	68.2145
547.263	70.087
547.315	70.0878
547.368	68.2217
547.42	75.9079
547.472	79.5431
547.524	66.0257
547.577	62.2127
547.629	75.7948
547.681	81.7964
547.733	79.846
547.785	76.1907
547.838	78.0128
547.89	77.8969
547.942	83.6181
547.994	74.4123
548.047	76.427
548.099	83.7122
548.151	85.5616
548.203	72.3994
548.255	80.0669
548.308	76.5811
548.36	76.2189
548.412	68.7688
548.464	72.6436
548.517	85.5165
548.569	81.7886
548.621	84
548.673	83.5436
548.725	79.4384
548.778	78.0675
548.83	78.3105
548.882	81.8273
548.934	76.0319
548.987	85.0843
549.039	79.643
549.091	84.118
549.143	85.8035
549.195	78.8313
549.248	78.9148
549.3	90.9591
549.352	81.7605
549.404	90.5959
549.456	80.6852
549.509	91.4442
549.561	83.8563
549.613	84.3393
549.665	86.6203
549.718	100.218
549.77	90.9594
549.822	84.4241
549.874	86.9485
549.926	89.258
549.979	86.8527
550.031	88.4469
550.083	85.24
550.135	93.823
550.187	91.991
550.24	86.4684
550.292	88.4684
550.344	91.4237
550.396	91.1327
550.448	93.4125
550.501	88.5936
550.553	89.4054
550.605	103.489
550.657	95.0359
550.709	91.6589
550.762	86.8778
550.814	104.585
550.866	100.65
550.918	100.865
550.97	107.688
551.023	97.3231
551.075	101.362
551.127	111.417
551.179	106.484
551.231	119.397
551.284	111.322
551.336	108.14
551.388	121.205
551.44	115.589
551.492	119.955
551.545	116.532
551.597	120.758
551.649	128.96
551.701	133.954
551.753	124.55
551.806	143.19
551.858	155.262
551.91	152.897
551.962	165.744
552.014	173.744
552.067	187.618
552.119	204.21
552.171	241.035
552.223	296.198
552.275	349.9
552.327	574.518
552.38	1151.6
552.432	2460.63
552.484	4677.79
552.536	8439.88
552.588	13341.1
552.641	11344.1
552.693	6590.23
552.745	2922.23
552.797	1179.71
552.849	578.476
552.901	391.264
552.954	290.738
553.006	247.585
553.058	214.785
553.11	197.616
553.162	177.651
553.215	169.834
553.267	161.897
553.319	150.92
553.371	151.848
553.423	143.595
553.475	147.893
553.528	144.774
553.58	136.815
553.632	133.548
553.684	127.425
553.736	126.233
553.788	119.521
553.841	125.229
553.893	117.318
553.945	119.98
553.997	126.134
554.049	128.521
554.102	130.694
554.154	120.561
554.206	119.706
554.258	129.273
554.31	117.418
554.362	112.065
554.414	127.642
554.467	125.613
554.519	121.424
554.571	117.097
554.623	120.398
554.675	127.506
554.727	124.038
554.78	119.506
554.832	124.194
554.884	121.925
554.936	118.039
554.988	128.443
555.04	129.717
555.093	123.347
555.145	127.032
555.197	113.512
555.249	122.67
555.301	134.221
555.353	119.603
555.406	127.204
555.458	126.496
555.51	133.401
555.562	130.987
555.614	128.938
555.666	130.411
555.719	140.341
555.771	127.039
555.823	133.995
555.875	126.481
555.927	131.786
555.979	135.72
556.031	122.503
556.084	128.211
556.136	133.207
556.188	127.206
556.24	133.319
556.292	137.691
556.344	133.131
556.396	133.443
556.449	141.129
556.501	133.617
556.553	141.003
556.605	138.478
556.657	132.719
556.709	143.348
556.762	141.293
556.814	141.945
556.866	135.089
556.918	140
556.97	145.083
557.022	136.571
557.074	129.26
557.127	137.48
557.179	148.698
557.231	148.048
557.283	137.568
557.335	152.609
557.387	143.81
557.439	143.739
557.492	148.035
557.544	154.574
557.596	152.342
557.648	144.761
557.7	150.419
557.752	149.056
557.804	145.96
557.856	151.715
557.909	148.997
557.961	150.584
558.013	151.676
558.065	145.46
558.117	151.416
558.169	155.708
558.221	156.602
558.273	158.216
558.326	144.659
558.378	154.004
558.43	157.113
558.482	154.679
558.534	152.215
558.586	154.888
558.638	147.434
558.691	158.366
558.743	158.35
558.795	163.573
558.847	155.269
558.899	159.593
558.951	153.189
559.003	163.869
559.055	163.241
559.108	160.766
559.16	156.398
559.212	169.213
559.264	167.374
559.316	155.149
559.368	166.463
559.42	153.544
559.472	166.915
559.525	156.133
559.577	163.813
559.629	165.95
559.681	158.475
559.733	157.917
559.785	169.527
559.837	175.088
559.889	170.805
559.941	164.205
559.994	168.012
560.046	175.788
560.098	168.289
560.15	164.23
560.202	165.733
560.254	167.114
560.306	170.634
560.358	166.132
560.41	169.037
560.463	181.5
560.515	175.838
560.567	168.854
560.619	177.292
560.671	172.071
560.723	176.421
560.775	170.514
560.827	180.821
560.879	181.976
560.932	180.572
560.984	181.121
561.036	176.849
561.088	189.475
561.14	181.966
561.192	192.755
561.244	186.151
561.296	183.518
561.348	189.29
561.4	182.945
561.453	189.937
561.505	194.815
561.557	194.94
561.609	180.259
561.661	186.609
561.713	193.185
561.765	194.11
561.817	190.279
561.869	203.641
561.921	186.167
561.974	193.382
562.026	181.176
562.078	203.14
562.13	200.334
562.182	195.554
562.234	193.704
562.286	202.491
562.338	197.872
562.39	206.714
562.442	209.788
562.494	207.161
562.547	204.862
562.599	211.428
562.651	204.331
562.703	209.314
562.755	206.295
562.807	194.824
562.859	200.821
562.911	199.052
562.963	209.718
563.015	200.976
563.067	217.719
563.12	222.723
563.172	219.317
563.224	207.031
563.276	205.739
563.328	227.062
563.38	223.8
563.432	217.051
563.484	214.857
563.536	225.218
563.588	223.921
563.64	217.779
563.692	220.147
563.744	227.905
563.797	217.436
563.849	220.276
563.901	223.615
563.953	224.698
564.005	228.452
564.057	222.658
564.109	219.546
564.161	228.899
564.213	234.519
564.265	235.924
564.317	231.436
564.369	228.442
564.421	229.496
564.474	231.412
564.526	236.085
564.578	228.472
564.63	236.115
564.682	241.404
564.734	235.649
564.786	248.038
564.838	239.49
564.89	231.496
564.942	238.824
564.994	240.109
565.046	241.812
565.098	238.648
565.15	231.264
565.202	244.896
565.255	248.727
565.307	241.92
565.359	252.575
565.411	242.697
565.463	242.619
565.515	238.765
565.567	244
565.619	259.769
565.671	243.076
565.723	256.091
565.775	249.402
565.827	264.695
565.879	249.117
565.931	246.643
565.983	254.697
566.035	260.292
566.087	266.099
566.139	250.888
566.192	252.125
566.244	256.759
566.296	257.967
566.348	259.997
566.4	263.547
566.452	260.887
566.504	260.934
566.556	267.349
566.608	269.711
566.66	268.955
566.712	268.432
566.764	266.435
566.816	276.844
566.868	273.843
566.92	271.027
566.972	266.553
567.024	282.614
567.076	281.214
567.128	268.875
567.18	274.787
567.232	279.396
567.285	274.53
567.337	275.064
567.389	268.679
567.441	280.952
567.493	286.215
567.545	280.998
567.597	283.244
567.649	290.489
567.701	294.657
567.753	288.381
567.805	286.242
567.857	289.686
567.909	288.598
567.961	294.788
568.013	294.286
568.065	300.905
568.117	296.404
568.169	303.32
568.221	297.885
568.273	308.916
568.325	303.854
568.377	296.797
568.429	299.972
568.481	297.668
568.533	298.09
568.585	300.279
568.637	306.097
568.69	303.633
568.742	302.767
568.794	305.574
568.846	309.868
568.898	316.562
568.95	307.556
569.002	302.765
569.054	316.818
569.106	329.203
569.158	325.801
569.21	315.89
569.262	321.027
569.314	328.797
569.366	322.367
569.418	316
569.47	318.268
569.522	324.701
569.574	326.942
569.626	333.452
569.678	338.876
569.73	335.873
569.782	327.016
569.834	335.302
569.886	334.004
569.938	326.248
569.99	330.592
570.042	351.776
570.094	356.063
570.146	354.686
570.198	350.571
570.25	353.187
570.302	357.165
570.354	351.798
570.406	340.915
570.458	352.42
570.51	378.822
570.562	378.323
570.614	370.023
570.666	371.319
570.718	374.889
570.77	377.963
570.822	380.796
570.874	377.994
570.926	395.385
570.978	404.357
571.03	386.815
571.082	389.08
571.134	389.477
571.186	397.381
571.238	411.385
571.29	405.37
571.342	398.686
571.394	410.683
571.446	419.862
571.498	418.181
571.55	415.986
571.602	423.985
571.654	429.103
571.706	431.315
571.758	430.909
571.81	423.514
571.862	424.3
571.914	441.469
571.966	459.923
572.018	459.259
572.07	463.193
572.122	468.943
572.174	478.626
572.226	492.515
572.278	489.088
572.33	484.644
572.382	494.261
572.434	499.529
572.486	500.899
572.538	496.573
572.59	497.392
572.642	490.681
572.694	504.492
572.746	531.26
572.798	525.878
572.85	524.236
572.902	532.555
572.954	539.323
573.006	560.569
573.058	578.132
573.11	588
573.162	584.417
573.214	577.271
573.266	588.904
573.302	609.872
573.355	605.801
573.407	613.868
573.459	588.355
573.511	623.961
573.563	635.584
573.615	627.81
573.667	647.91
573.719	644.144
573.772	675.529
573.824	689.663
573.876	709.233
573.928	695.718
573.98	705.97
574.032	737.257
574.084	722.001
574.136	760.946
574.188	771.01
574.241	780.989
574.293	782.147
574.345	798.136
574.397	807.585
574.449	828.702
574.501	844.96
574.553	854.079
574.605	855.052
574.657	887.719
574.71	909.476
574.762	896.203
574.814	913.096
574.866	924.362
574.918	961.315
574.97	942.218
575.022	987.938
575.074	993.915
575.126	1017.37
575.178	1029.1
575.231	1040.47
575.283	1046.82
575.335	1053.06
575.387	1062.87
575.439	1068.4
575.491	1083.58
575.543	1102.01
575.595	1133.72
575.647	1080.38
575.7	1114.87
575.752	1129.44
575.804	1107.78
575.856	1149.64
575.908	1136.75
575.96	1160.88
576.012	1152.54
576.064	1125.25
576.116	1120.91
576.168	1168.09
576.22	1109.97
576.273	1153.59
576.325	1156.48
576.377	1124.35
576.429	1109.9
576.481	1099.22
576.533	1074.26
576.585	1073.96
576.637	1067.06
576.689	1049.74
576.741	1068.34
576.793	1030.51
576.846	1025.11
576.898	1007.9
576.95	967.05
577.002	1018.26
577.054	955.673
577.106	959.234
577.158	940.288
577.21	930.406
577.262	916.809
577.314	907.879
577.366	923.456
577.418	908.561
577.471	874.049
577.523	883.166
577.575	853.923
577.627	876.363
577.679	862.5
577.731	846.111
577.783	837.397
577.835	819.396
577.887	818.432
577.939	822.135
577.991	803.739
578.043	778.417
578.095	786.946
578.148	789.544
578.2	777.569
578.252	762.379
578.304	779.222
578.356	765.041
578.408	761.554
578.46	736.915
578.512	748.325
578.564	763.843
578.616	747.497
578.668	722.792
578.72	723.41
578.772	706.965
578.824	718.612
578.877	727.861
578.929	720.838
578.981	728.96
579.033	716.173
579.085	682.349
579.137	692.337
579.189	710.9
579.241	692.117
579.293	686.142
579.345	703.355
579.397	697.666
579.449	718.221
579.501	701.926
579.553	691.436
579.605	705.105
579.658	684.02
579.71	698.603
579.762	710.894
579.814	694.65
579.866	698.925
579.918	683.334
579.97	674.296
580.022	703.837
580.074	700.695
580.126	695.736
580.178	680.777
580.23	693.354
580.282	692.062
580.334	707.101
580.386	716.818
580.438	704.91
580.49	698.523
580.542	706.111
580.595	717.756
580.647	691.743
580.699	704.793
580.751	707.922
580.803	701.794
580.855	710.55
580.907	698.265
580.959	714.992
581.011	703.526
581.063	710.379
581.115	732.426
581.167	687.784
581.219	713.699
581.271	720.627
581.323	720.005
581.375	700.281
581.427	733.189
581.479	714.896
581.531	708.79
581.583	711.751
581.635	720.359
581.688	711.296
581.74	719.203
581.792	715.638
581.844	725.803
581.896	711.373
581.948	747.251
582	727.877
582.052	748.568
582.104	724.075
582.156	748.33
582.208	730.882
582.26	748.456
582.312	730.5
582.364	737.345
582.416	747.285
582.468	749.504
582.52	739.814
582.572	727.558
582.624	745.524
582.676	765.758
582.728	739.299
582.78	757.008
582.832	746.817
582.884	772.611
582.936	749.25
582.988	768.198
583.04	769.613
583.092	774.479
583.144	775.122
583.196	755.521
583.249	797.013
583.301	771.973
583.353	762.711
583.405	793.509
583.457	798.501
583.509	786.697
583.561	780.746
583.613	786.661
583.665	799.865
583.717	804.003
583.769	795.333
583.821	807.072
583.873	798.762
583.925	814.876
583.977	806.198
584.029	816.421
584.081	814.957
584.133	814.703
584.185	828.594
584.237	817.808
584.289	820.555
584.341	837.723
584.393	841.582
584.445	834.571
584.497	848.478
584.549	837.575
584.601	861.773
584.653	848.073
584.705	865.827
584.757	840.581
584.809	836.535
584.861	868.614
584.913	848.404
584.965	876.363
585.017	862.445
585.069	871.389
585.121	871.496
585.173	875.228
585.225	882.942
585.277	894.596
585.329	891.379
585.381	889.615
585.433	900.985
585.485	909.338
585.537	886.468
585.589	891.385
585.641	903.873
585.693	914.363
585.745	905.292
585.797	901.273
585.849	917.927
585.901	939.506
585.953	929.138
586.005	928.816
586.057	935.762
586.109	928.687
586.161	928.861
586.213	933.239
586.265	932.912
586.317	933.182
586.369	954.724
586.421	898.065
586.473	943.387
586.525	915.157
586.577	933.422
586.629	942.155
586.681	958.437
586.733	960.375
586.785	945.159
586.837	971.124
586.889	930.463
586.941	944.891
586.993	953.178
587.045	963.921
587.097	971.112
587.149	967.99
587.201	944.582
587.253	969.478
587.305	964.291
587.357	976.173
587.409	964.576
587.461	965.801
587.513	974.619
587.565	975.974
587.617	969.316
587.669	976.159
587.721	974.702
587.773	962.736
587.825	985.371
587.877	984.566
587.929	998.89
587.981	983.659
588.033	989.95
588.085	993.426
588.137	988.342
588.189	979.562
588.241	979.229
588.293	982.599
588.345	972.192
588.397	1015.42
588.449	984.476
588.501	977.44
588.552	978.309
588.604	981.217
588.656	980.305
588.708	991.534
588.76	970.882
588.812	999.828
588.864	989.549
588.916	1007.12
588.968	1007.33
589.02	999.234
589.072	1018.52
589.124	1029.78
589.176	1022.54
589.228	1025.23
589.28	1031.44
589.332	1032.19
589.384	1006.87
589.436	1012.12
589.488	1008.78
589.54	1022.04
589.592	1042.08
589.644	1028.52
589.696	1015.64
589.748	1010.7
589.8	1017.2
589.852	1020.81
589.904	1037.04
589.956	1016.84
590.008	1009.42
590.06	1003.9
590.112	1019.7
590.163	1016.47
590.215	997.067
590.267	1017.28
590.319	1018.09
590.371	1023.57
590.423	1024.54
590.475	1023.49
590.527	1024.68
590.579	1006.39
590.631	1000.51
590.683	1011.19
590.735	1013.91
590.787	993.928
590.839	990.393
590.891	1034.86
590.943	1010.29
590.995	1019.96
591.047	999.993
591.099	1014.85
591.151	1017.85
591.203	1003.22
591.254	1006.5
591.306	999.803
591.358	996.827
591.41	996.69
591.462	998.012
591.514	1021.79
591.566	1015.21
591.618	991.205
591.67	982.943
591.722	986.275
591.774	993.973
591.826	971.709
591.878	980.31
591.93	995.346
591.982	1001.03
592.034	997.595
592.086	990.819
592.137	978.868
592.189	992.436
592.241	984.279
592.293	993.458
592.345	988.087
592.397	991.291
592.449	996.103
592.501	993.793
592.553	980.591
592.605	995.384
592.657	992.099
592.709	999.915
592.761	985.567
592.813	973.904
592.865	968.236
592.916	1001.25
592.968	1004.08
593.02	996.954
593.072	982.463
593.124	981.401
593.176	994.116
593.228	995.433
593.28	1010.23
593.332	996.711
593.384	979.356
593.436	993.667
593.488	989.691
593.54	986.824
593.591	983.429
593.643	991.539
593.695	999.708
593.747	999.617
593.799	991.529
593.851	1004.11
593.903	986.131
593.955	985.602
594.007	977.533
594.059	1001.72
594.111	1015.87
594.163	996.161
594.215	976.712
594.266	997.531
594.318	1012.19
594.37	1014.55
594.422	1012.19
594.474	1004.09
594.526	989.982
594.578	999.261
594.63	1011.67
594.682	1016.76
594.734	1020.94
594.786	1010.36
594.837	1027.64
594.889	1017.95
594.941	998.528
594.993	1013.42
595.045	1002.54
595.097	1012.61
595.149	1035.81
595.201	1045.67
595.253	1032.76
595.305	1022.44
595.357	1018.32
595.408	1032.5
595.46	1032.75
595.512	1056.24
595.564	1049.56
595.616	1052.42
595.668	1044.51
595.72	1026.55
595.772	1020.26
595.824	1042.72
595.876	1037.32
595.927	1050.08
595.979	1073.7
596.031	1075.4
596.083	1073.51
596.135	1069.18
596.187	1061.93
596.239	1073.75
596.291	1073.63
596.343	1083.33
596.394	1083.84
596.446	1074.44
596.498	1090.04
596.55	1099.33
596.602	1106.44
596.654	1080.86
596.706	1088.33
596.758	1107.99
596.81	1101.22
596.862	1112.66
596.913	1121.33
596.965	1117.97
597.017	1121.76
597.069	1125.06
597.121	1109.18
597.173	1111.84
597.225	1100.63
597.277	1109.87
597.328	1127.34
597.38	1114.83
597.432	1107.54
597.484	1120.95
597.536	1130.08
597.588	1117.69
597.64	1123.45
597.692	1138.24
597.744	1135.83
597.795	1123.82
597.847	1120.72
597.899	1133.79
597.951	1131.02
598.003	1154.45
598.055	1146.82
598.107	1120.38
598.159	1133.06
598.21	1153.93
598.262	1136.8
598.314	1173.01
598.366	1185.12
598.418	1133.95
598.47	1135.32
598.522	1132.93
598.574	1125.24
598.625	1138
598.677	1157.86
598.729	1148.96
598.781	1148.31
598.833	1149.25
598.885	1132.8
598.937	1160.63
598.988	1165.22
599.04	1146.21
599.092	1167.95
599.144	1171.01
599.196	1153.17
599.248	1149.11
599.3	1167.97
599.352	1161.43
599.403	1146.65
599.455	1163.35
599.507	1165.01
599.559	1148.41
599.611	1147.95
599.663	1161.73
599.715	1183.86
599.766	1184.58
599.803	1185.96
599.855	1145.95
599.907	1148.03
599.959	1156
600.011	1162.08
600.063	1136.22
600.115	1187.35
600.167	1134.11
600.219	1141.97
600.271	1134.15
600.323	1164.01
600.375	1157.74
600.427	1163.71
600.479	1167.55
600.531	1141.81
600.583	1155.22
600.635	1165.89
600.686	1127.48
600.738	1138.68
600.79	1143.65
600.842	1169.75
600.894	1140.32
600.946	1199.31
600.998	1178.95
601.05	1178.04
601.102	1182.77
601.154	1166.75
601.206	1148.1
601.258	1162.14
601.31	1149.84
601.362	1142.31
601.414	1159.04
601.466	1191.74
601.518	1164.4
601.57	1162.9
601.622	1146.05
601.674	1152.13
601.726	1177.36
601.778	1172.44
601.83	1159.55
601.882	1162.06
601.934	1191.34
601.986	1162.16
602.038	1131.2
602.09	1155.39
602.142	1168.13
602.194	1187.09
602.246	1183.81
602.298	1198.11
602.35	1166.89
602.402	1191.07
602.454	1174.17
602.506	1168.85
602.558	1184.39
602.61	1210.4
602.662	1197.02
602.714	1176.67
602.766	1166.26
602.818	1170.55
602.87	1196.59
602.922	1185.77
602.974	1152.58
603.026	1186.95
603.078	1198.3
603.13	1196.51
603.182	1179.3
603.234	1144.08
603.285	1192.18
603.337	1201.85
603.389	1185.41
603.441	1188.83
603.493	1200.62
603.545	1195.05
603.597	1201.54
603.649	1192.57
603.701	1216.6
603.753	1195.87
603.805	1196.42
603.857	1221.01
603.909	1212.94
603.961	1188.22
604.013	1211.82
604.065	1222.28
604.117	1207.88
604.169	1218.27
604.221	1193.34
604.273	1206.89
604.325	1210.13
604.377	1215.02
604.429	1242.82
604.481	1193.75
604.533	1210.56
604.584	1203.34
604.636	1203.23
604.688	1196.05
604.74	1225
604.792	1210.72
604.844	1185.24
604.896	1218.26
604.948	1220.67
605	1192.26
605.052	1252.4
605.104	1228.71
605.156	1235.77
605.208	1220.38
605.26	1234.85
605.312	1195.44
605.364	1234.12
605.416	1213.55
605.468	1226.35
605.52	1211.18
605.572	1211.16
605.623	1231.4
605.675	1228.31
605.727	1223.15
605.779	1206.08
605.831	1225.15
605.883	1199.34
605.935	1228.09
605.987	1193.98
606.039	1188.7
606.091	1203.84
606.143	1205.9
606.195	1214.94
606.247	1213.17
606.299	1232.58
606.351	1221.62
606.403	1210.3
606.455	1215.55
606.506	1216.7
606.558	1213.87
606.61	1192.65
606.662	1229.49
606.714	1205.73
606.766	1222.1
606.818	1231.27
606.87	1234.19
606.922	1175.69
606.974	1206.09
607.026	1219.72
607.078	1240.9
607.13	1242.85
607.182	1217.57
607.234	1210.23
607.285	1229.09
607.337	1245.7
607.389	1249.59
607.441	1238.93
607.493	1220.9
607.545	1216.15
607.597	1220.63
607.649	1233.91
607.701	1227.8
607.753	1224.85
607.805	1259.87
607.857	1247.29
607.909	1229.45
607.96	1243.14
608.012	1233.01
608.064	1248.19
608.116	1239.27
608.168	1241.96
608.22	1266.22
608.272	1250.46
608.324	1239.48
608.376	1236.48
608.428	1248.78
608.48	1256.26
608.532	1242.53
608.583	1260.35
608.635	1243.05
608.687	1261.56
608.739	1280.57
608.791	1284.23
608.843	1275.71
608.895	1262.5
608.947	1249.6
608.999	1258.98
609.051	1270.59
609.103	1259.58
609.155	1266
609.206	1259.27
609.258	1289.93
609.31	1258.94
609.362	1260.96
609.414	1268.9
609.466	1277.64
609.518	1282.29
609.57	1301.33
609.622	1304.5
609.674	1278.98
609.725	1275.52
609.777	1275.48
609.829	1282.37
609.881	1304.31
609.933	1280.08
609.985	1274.9
610.037	1264.85
610.089	1283.85
610.141	1305.9
610.193	1282.71
610.245	1271.44
610.296	1295.66
610.348	1286.55
610.4	1291.89
610.452	1301.58
610.504	1299.21
610.556	1301.52
610.608	1300.83
610.66	1264.32
610.712	1293.93
610.763	1309.29
610.815	1315.46
610.867	1305.65
610.919	1297.57
610.971	1323.21
611.023	1301.19
611.075	1317.11
611.127	1309.88
611.179	1297.42
611.23	1313.23
611.282	1279.97
611.334	1308.94
611.386	1315.98
611.438	1312.32
611.49	1321.55
611.542	1317.35
611.594	1344.96
611.646	1333.49
611.697	1319.87
611.749	1336.5
611.801	1337.41
611.853	1338.74
611.905	1321.58
611.957	1347.8
612.009	1324.14
612.061	1335.56
612.113	1355.69
612.164	1344.3
612.216	1345.26
612.268	1325.16
612.32	1335.26
612.372	1352.99
612.424	1339
612.476	1330.98
612.528	1351.95
612.579	1359.37
612.631	1332.92
612.683	1336.77
612.735	1349.85
612.787	1352.29
612.839	1348.79
612.891	1346.21
612.943	1341.01
612.994	1342.5
613.046	1342.68
613.098	1362.09
613.15	1368.75
613.202	1362.89
613.254	1364.81
613.306	1376.71
613.357	1375.22
613.409	1361.94
613.461	1371.81
613.513	1363.3
613.565	1366.73
613.617	1387.35
613.669	1401.28
613.721	1359.69
613.772	1385.94
613.824	1379.52
613.876	1385.47
613.928	1388.32
613.98	1383.32
614.032	1399.09
614.084	1384.65
614.135	1403.48
614.187	1407.64
614.239	1418
614.291	1401.42
614.343	1392.22
614.395	1392.92
614.447	1428.75
614.498	1433.18
614.55	1425.3
614.602	1411.94
614.654	1434.48
614.706	1439.87
614.758	1411.51
614.81	1426
614.861	1440.44
614.913	1427.94
614.965	1443.51
615.017	1448.4
615.069	1452.8
615.121	1464.32
615.172	1438
615.224	1442.35
615.276	1451.93
615.328	1449.12
615.38	1460.79
615.432	1463.49
615.484	1474.68
615.535	1457.67
615.587	1462.08
615.639	1457.62
615.691	1467.38
615.743	1462.77
615.795	1468.13
615.846	1448.44
615.898	1462.71
615.95	1477.21
616.002	1487.84
616.054	1495.38
616.106	1480.35
616.158	1464.9
616.209	1498.37
616.261	1480.73
616.313	1517.06
616.365	1490.52
616.417	1492.6
616.469	1495.88
616.52	1500.54
616.572	1501.33
616.624	1517.77
616.676	1523.83
616.728	1548.2
616.78	1529.32
616.831	1515.37
616.883	1522.93
616.935	1529.35
616.987	1522.69
617.039	1519.75
617.091	1524.92
617.142	1507.11
617.194	1516.29
617.246	1559.47
617.298	1564.91
617.35	1518.22
617.401	1521.07
617.453	1535.03
617.505	1514.75
617.557	1545.2
617.609	1550.77
617.661	1550.9
617.712	1546.55
617.764	1549.24
617.816	1562.53
617.868	1586.45
617.92	1561.33
617.972	1572.01
618.023	1569.88
618.075	1606.49
618.127	1595.62
618.179	1556.66
618.231	1580.7
618.282	1585.26
618.334	1586.24
618.386	1578.94
618.438	1633.13
618.49	1596.14
618.542	1589.53
618.593	1599.31
618.645	1626.37
618.697	1624.53
618.749	1605.79
618.801	1577.02
618.852	1615.29
618.904	1602.54
618.956	1635.53
619.008	1616.77
619.06	1614.63
619.111	1608.36
619.163	1613.75
619.215	1600.76
619.267	1622.63
619.319	1655.45
619.37	1636.69
619.422	1646.05
619.474	1640.83
619.526	1657.84
619.578	1667.08
619.63	1675.77
619.681	1672.57
619.733	1668.17
619.785	1680.75
619.837	1639.36
619.888	1646.17
619.94	1661.85
619.992	1663.74
620.044	1692
620.096	1659.68
620.147	1663.85
620.199	1673.91
620.251	1661.79
620.303	1665.51
620.355	1666.53
620.406	1679.46
620.458	1697.33
620.51	1687.21
620.562	1692.95
620.614	1697.82
620.665	1679.35
620.717	1707.34
620.769	1694.74
620.821	1684.72
620.873	1674.38
620.924	1694.62
620.976	1705.81
621.028	1711.86
621.08	1689.81
621.132	1692.02
621.183	1705.34
621.235	1701.55
621.287	1687.85
621.339	1701.6
621.39	1662.49
621.442	1721.07
621.494	1750.66
621.546	1714.99
621.598	1691.68
621.649	1711.97
621.701	1678.81
621.753	1740.22
621.805	1667.84
621.856	1712.23
621.908	1714
621.96	1700.93
622.012	1697.82
622.064	1754.45
622.115	1705.52
622.167	1704.68
622.219	1687.15
622.271	1710.61
622.322	1732.36
622.374	1722.86
622.426	1704.69
622.478	1705.61
622.53	1760.74
622.581	1732.85
622.633	1757.92
622.685	1751.28
622.737	1716.24
622.788	1749.48
622.84	1707.05
622.892	1734.09
622.944	1752.58
622.995	1709.45
623.047	1731.62
623.099	1716.21
623.151	1722.53
623.203	1745.09
623.254	1724.13
623.306	1741.57
623.358	1737.25
623.41	1724.74
623.461	1736.64
623.513	1735.92
623.565	1721
623.617	1737.26
623.668	1743.04
623.72	1760.7
623.772	1769.33
623.824	1743.96
623.875	1720.16
623.927	1737.43
623.979	1728.51
624.031	1757.22
624.082	1722.99
624.134	1775.69
624.186	1777.75
624.238	1754.65
624.289	1753.48
624.341	1724.81
624.393	1787.79
624.445	1752.83
624.496	1785.67
624.548	1755.62
624.6	1729.5
624.652	1764.77
624.703	1775.6
624.755	1718.78
624.807	1791.04
624.859	1757.11
624.91	1749.25
624.962	1771.94
625.014	1770.64
625.066	1766.39
625.117	1760.82
625.169	1763.16
625.221	1765.22
625.273	1759.74
625.324	1785.1
625.376	1787.24
625.428	1760.75
625.48	1780.75
625.531	1775.88
625.583	1762.46
625.635	1770.31
625.687	1775.87
625.738	1801.07
625.79	1807.29
625.842	1838.14
625.893	1796.44
625.945	1787.11
625.997	1818.83
626.049	1827.2
626.1	1780.92
626.152	1774.16
626.204	1777.84
626.256	1794.95
626.307	1781.39
626.316	1778.03
626.368	1853.42
626.42	1833.63
626.472	1785.6
626.523	1841.38
626.575	1801.46
626.627	1837.16
626.679	1868.74
626.731	1843.1
626.783	1839.02
626.835	1835.82
626.887	1844.97
626.938	1846.01
626.99	1859.1
627.042	1767.46
627.094	1854.25
627.146	1874.5
627.198	1844.83
627.25	1855.08
627.302	1869.86
627.353	1851.28
627.405	1880.47
627.457	1850.08
627.509	1843.01
627.561	1851.93
627.613	1922.98
627.665	1880.27
627.716	1900.88
627.768	1856.81
627.82	1812.29
627.872	1918.83
627.924	1879.53
627.976	1836.98
628.028	1872.44
628.079	1884.04
628.131	1896.74
628.183	1886.14
628.235	1856.15
628.287	1921.4
628.339	1887.32
628.391	1845.6
628.443	1949.44
628.494	1851.14
628.546	1916.08
628.598	1901.56
628.65	1893.4
628.702	1872.69
628.754	1871.24
628.805	1908.64
628.857	1933.99
628.909	1898.18
628.961	1895.48
629.013	1924.35
629.065	1906.17
629.117	1912.69
629.168	1946.98
629.22	1943.01
629.272	1910.35
629.324	1925.74
629.376	1920.73
629.428	1926.45
629.479	1968.1
629.531	1917.34
629.583	1882.92
629.635	1948.52
629.687	1950.4
629.739	1928.35
629.791	1923.56
629.842	1966.34
629.894	1948.19
629.946	1910.46
629.998	1946.58
630.05	1972.55
630.102	1966.88
630.153	1977.72
630.205	1936.58
630.257	1963.55
630.309	1941.35
630.361	1967.38
630.413	1939.7
630.464	1933.52
630.516	2003.39
630.568	1959.96
630.62	1961.76
630.672	1991.08
630.724	1992.51
630.776	2000.7
630.827	1957.37
630.879	2023.52
630.931	1984.5
630.983	1963.51
631.035	2000.05
631.086	2017.83
631.138	1994.53
631.19	2009.55
631.242	2012.43
631.294	2007.43
631.346	2016.67
631.397	2035.53
631.449	2012.23
631.501	2025.6
631.553	2014.98
631.605	2012.7
631.657	2006.98
631.708	2007.38
631.76	2026.29
631.812	2028.61
631.864	2042.44
631.916	2035.07
631.967	2031.21
632.019	2043.5
632.071	2051.23
632.123	2068.13
632.175	2091.7
632.227	2047.84
632.278	2053.14
632.33	2057.48
632.382	2080.51
632.434	2065.62
632.486	2075.37
632.537	2079.95
632.589	2104.18
632.641	2062.47
632.693	2071.17
632.745	2087.82
632.797	2116.41
632.848	2089.78
632.9	2081.3
632.952	2092.27
633.004	2127.38
633.056	2109.33
633.107	2121.23
633.159	2106.14
633.211	2126.56
633.263	2114.29
633.315	2118.48
633.366	2131.85
633.418	2140.22
633.47	2136.35
633.522	2161.15
633.574	2116.28
633.625	2162.13
633.677	2117.97
633.729	2174.16
633.781	2153.14
633.833	2162.92
633.885	2178.93
633.936	2155.33
633.988	2198.93
634.04	2168.51
634.092	2181.41
634.143	2181.41
634.195	2209.6
634.247	2240.5
634.299	2205.52
634.351	2202.7
634.403	2187.11
634.454	2234.71
634.506	2186.12
634.558	2199.69
634.61	2214.91
634.661	2247.67
634.713	2228.59
634.765	2250.39
634.817	2252.57
634.869	2220.69
634.92	2262.97
634.972	2266.34
635.024	2268.13
635.076	2286.93
635.128	2295.16
635.179	2312.82
635.231	2305.15
635.283	2306.62
635.335	2312.23
635.387	2333.25
635.438	2312.14
635.49	2328.63
635.542	2338.39
635.594	2332.37
635.645	2328.8
635.697	2364.19
635.749	2353.89
635.801	2412.69
635.853	2421.72
635.904	2398.16
635.956	2418.52
636.008	2451.73
636.06	2453.4
636.112	2415.95
636.163	2464.98
636.215	2508.6
636.267	2485.85
636.319	2511.09
636.37	2529.33
636.422	2533.47
636.474	2568.41
636.526	2586.32
636.577	2638.73
636.629	2614.66
636.681	2645.71
636.733	2662.95
636.785	2650.02
636.836	2699.61
636.888	2704.73
636.94	2765.6
636.992	2767.53
637.043	2779.61
637.095	2786
637.147	2850.4
637.199	2891.02
637.25	2901.27
637.302	2952.01
637.354	2988.23
637.406	3025.23
637.458	3013.06
637.509	3079.31
637.561	3116.71
637.613	3155.92
637.665	3174.02
637.716	3191.88
637.768	3245.25
637.82	3278.54
637.872	3287.08
637.923	3311.88
637.975	3317.91
638.027	3339.72
638.079	3396.28
638.13	3402.08
638.182	3399.61
638.234	3436.71
638.286	3437.67
638.337	3435.15
638.389	3415.97
638.441	3422.83
638.493	3479.51
638.544	3422.32
638.596	3415.42
638.648	3441.19
638.7	3406.09
638.752	3409.75
638.803	3398.74
638.855	3372.83
638.907	3354.94
638.958	3350.06
639.01	3330.1
639.062	3302.24
639.114	3245.59
639.165	3262.65
639.217	3238.29
639.269	3245.23
639.321	3205.81
639.372	3156.21
639.424	3132.2
639.476	3161.02
639.528	3126.79
639.579	3113.85
639.631	3104.84
639.683	3067.57
639.735	3028.27
639.786	2991.62
639.838	3052.59
639.89	3005.11
639.942	2979.97
639.993	2982.02
640.045	2994.59
640.097	2957.88
640.149	2957.62
640.2	2926.24
640.252	2927.67
640.304	2911.81
640.356	2893.18
640.407	2887.3
640.459	2873.73
640.511	2891.86
640.562	2857.29
640.614	2876.58
640.666	2863.46
640.718	2843.86
640.769	2828.36
640.821	2868.58
640.873	2836.89
640.925	2826.94
640.976	2844.05
641.028	2850.11
641.08	2825.94
641.131	2819.44
641.183	2816.02
641.235	2784
641.287	2762.09
641.338	2771.21
641.39	2795.84
641.442	2801.8
641.494	2756.68
641.545	2786.86
641.597	2794.9
641.649	2784.49
641.7	2794.9
641.752	2792.19
641.804	2754.41
641.856	2771.32
641.907	2772.09
641.959	2772.16
642.011	2782
642.063	2786.94
642.114	2743.85
642.166	2777.66
642.218	2759.31
642.269	2738.85
642.321	2749.78
642.373	2722.49
642.424	2732.79
642.476	2781.8
642.528	2800.07
642.58	2746.18
642.631	2768.43
642.683	2744.18
642.735	2775.75
642.786	2785.78
642.838	2801.45
642.89	2750.11
642.942	2774.29
642.993	2766.81
643.045	2736.36
643.097	2763.14
643.148	2744.21
643.2	2751.16
643.252	2759.73
643.304	2807.94
643.355	2776.11
643.407	2751.77
643.459	2759.14
643.51	2769.79
643.562	2768.23
643.614	2803.65
643.665	2829.44
643.717	2817.99
643.769	2782.58
643.82	2790.89
643.872	2795.6
643.924	2793.71
643.976	2766.56
644.027	2808.52
644.079	2803.06
644.131	2805.6
644.182	2821.55
644.234	2833.29
644.286	2801.33
644.337	2837.47
644.389	2811.51
644.441	2849.94
644.493	2828.67
644.544	2850.26
644.596	2824.36
644.648	2801.69
644.699	2840.41
644.751	2852.9
644.803	2807.79
644.854	2826.45
644.906	2868.81
644.958	2876.48
645.009	2831.08
645.061	2836.02
645.113	2849.38
645.164	2858.36
645.216	2862.29
645.268	2855.8
645.32	2888.17
645.371	2841.09
645.423	2885.31
645.475	2883.66
645.526	2878.12
645.578	2885.88
645.63	2856.01
645.681	2867.69
645.733	2871.33
645.785	2874.08
645.836	2885.52
645.888	2934.42
645.94	2924.18
645.991	2863.52
646.043	2871.24
646.095	2911.08
646.146	2943.87
646.198	2940.7
646.25	2840.23
646.301	2916.99
646.353	2922.41
646.405	2890.74
646.456	2870.87
646.508	2914.95
646.56	2917.54
646.611	2915.53
646.663	2929.58
646.715	2943.39
646.766	2919.78
646.818	2980.13
646.87	2926.03
646.921	2942.56
646.973	2921.12
647.025	2922.52
647.076	2952.92
647.128	2931.76
647.18	2966.08
647.231	2932.14
647.283	2962.24
647.335	2951.86
647.386	2981.74
647.438	2943.36
647.49	2926.62
647.541	2947.97
647.593	2990.79
647.645	2917.84
647.696	3007.07
647.748	3004.09
647.8	2913.34
647.851	2972.53
647.903	2970.82
647.955	3013.29
648.006	2959.93
648.058	2977.88
648.109	2958.93
648.161	3033.97
648.213	3042.12
648.264	2980.26
648.316	3008.33
648.368	3043.75
648.419	3033.78
648.471	3094.21
648.523	3053.86
648.574	3018
648.626	3013.49
648.678	3018.22
648.729	3042.24
648.781	3091.66
648.833	3090.72
648.884	3051.87
648.936	3058.21
648.987	3022.11
649.039	3075.8
649.091	3091.49
649.142	3063.68
649.194	3067.57
649.246	3058.98
649.297	3130.86
649.349	3085.57
649.401	3062.28
649.452	3091.58
649.504	3059.17
649.555	3068.34
649.607	3098.07
649.659	3141.05
649.71	3128.31
649.762	3140.26
649.814	3123.22
649.865	3142.23
649.917	3127.35
649.969	3120.44
650.02	3142.6
650.072	3129.89
650.123	3135.6
650.175	3196.22
650.227	3162.8
650.278	3142.05
650.33	3221.22
650.382	3186.96
650.433	3132.23
650.485	3152.84
650.536	3164.52
650.588	3175.1
650.64	3196.35
650.691	3183.51
650.743	3140.99
650.795	3175.26
650.846	3209.62
650.898	3206.58
650.949	3198.48
651.001	3210.45
651.053	3234.63
651.104	3247.12
651.156	3231.88
651.208	3260.78
651.259	3225.87
651.311	3217.44
651.362	3226.5
651.414	3246.44
651.466	3231
651.517	3233.94
651.569	3256
651.62	3266.4
651.672	3268.82
651.724	3266.39
651.775	3271.75
651.827	3247.25
651.878	3269.52
651.93	3292.07
651.982	3277.75
652.033	3267.52
652.085	3260.3
652.137	3256.54
652.188	3325.52
652.24	3350.51
652.291	3349.82
652.343	3275.18
652.395	3342.89
652.446	3370.28
652.498	3347.44
652.549	3312.59
652.601	3341.6
652.653	3358.39
652.704	3354.21
652.756	3345.3
652.772	3342.15
652.824	3342.27
652.876	3322.64
652.927	3358.24
652.979	3387.51
653.031	3372.09
653.083	3353.42
653.134	3456.13
653.186	3328.3
653.238	3423.76
653.29	3393.52
653.341	3404.69
653.393	3408.84
653.445	3397.73
653.497	3434.12
653.548	3390.86
653.6	3438.27
653.652	3443.73
653.704	3473.66
653.755	3462.96
653.807	3426.62
653.859	3479.07
653.91	3441.43
653.962	3525.23
654.014	3493.13
654.066	3454.5
654.117	3471
654.169	3471.03
654.221	3527.31
654.273	3508.67
654.324	3469.04
654.376	3562.4
654.428	3510.55
654.48	3522.53
654.531	3564.04
654.583	3554.76
654.635	3510.87
654.686	3555.07
654.738	3594.13
654.79	3576.48
654.842	3625.98
654.893	3635.88
654.945	3532.12
654.997	3582.19
655.049	3591.97
655.1	3675.78
655.152	3635.01
655.204	3648.75
655.255	3641.17
655.307	3631.67
655.359	3670.69
655.411	3656.39
655.462	3651.72
655.514	3655.9
655.566	3682.96
655.618	3668.75
655.669	3712.94
655.721	3652.11
655.773	3699.08
655.824	3732.82
655.876	3749.47
655.928	3727.11
655.98	3752.78
656.031	3767.13
656.083	3715
656.135	3772.05
656.186	3808.17
656.238	3801.88
656.29	3775.3
656.342	3800.04
656.393	3820.5
656.445	3831.32
656.497	3829.77
656.548	3833.85
656.6	3854.39
656.652	3859.95
656.704	3877.26
656.755	3848.72
656.807	3873.23
656.859	3894.18
656.91	3929.98
656.962	3879.94
657.014	3914.01
657.065	3897.33
657.117	3933.24
657.169	3906.93
657.221	3917.88
657.272	3942.39
657.324	3995.9
657.376	3958.84
657.427	3968.04
657.479	3978.56
657.531	3977.28
657.583	4005.39
657.634	4016.83
657.686	3968.87
657.738	4018.41
657.789	3978.74
657.841	4032.64
657.893	4075.13
657.944	4014.39
657.996	4024.95
658.048	4025.58
658.099	4061.49
658.151	4066.65
658.203	4050.51
658.255	4053.69
658.306	4006.75
658.358	4028.92
658.41	4108.79
658.461	4027.27
658.513	4052.23
658.565	4077.5
658.616	4034.85
658.668	4108.28
658.72	4069.15
658.771	4096.06
658.823	4102.75
658.875	4067.27
658.927	4122.96
658.978	4115.81
659.03	4112.67
659.082	4110.02
659.133	4135.27
659.185	4183.67
659.237	4169.07
659.288	4133.16
659.34	4197.57
659.392	4142.43
659.443	4183.53
659.495	4122.63
659.547	4135.09
659.598	4169.32
659.65	4161.8
659.702	4152.58
659.753	4158.2
659.805	4194.71
659.857	4133.19
659.909	4176.15
659.96	4198.46
660.012	4197.52
660.064	4161.66
660.115	4165.04
660.167	4188.14
660.219	4174.75
660.27	4165.6
660.322	4137.59
660.374	4189.61
660.425	4189.33
660.477	4181.95
660.529	4113.5
660.58	4189.3
660.632	4201.31
660.684	4193.02
660.735	4201.05
660.787	4163.37
660.839	4197.47
660.89	4212.02
660.942	4199.75
660.994	4212.63
661.045	4198.72
661.097	4179.59
661.149	4185.78
661.2	4209.6
661.252	4208
661.304	4171.11
661.355	4156.18
661.407	4158.48
661.459	4206.61
661.51	4172.92
661.562	4215.16
661.614	4202.21
661.665	4161.55
661.717	4193.02
661.768	4182.72
661.82	4174.22
661.872	4186.65
661.923	4197.49
661.975	4175.04
662.027	4179.82
662.078	4192.31
662.13	4244.96
662.182	4207.89
662.233	4197.55
662.285	4228.8
662.337	4219.05
662.388	4186.27
662.44	4201.64
662.492	4165.97
662.543	4208.22
662.595	4232.74
662.647	4167.64
662.698	4240.95
662.75	4185.83
662.802	4182.04
662.853	4190.77
662.905	4197.06
662.956	4176.92
663.008	4209.71
663.06	4217.76
663.111	4208.71
663.163	4173.95
663.215	4197.11
663.266	4207.02
663.318	4176.29
663.37	4177.63
663.421	4192.45
663.473	4205.87
663.525	4199.86
663.576	4181.77
663.628	4161.8
663.679	4173.54
663.731	4194.04
663.783	4195.96
663.834	4172.3
663.886	4202.54
663.938	4198
663.989	4189.03
664.041	4222.3
664.093	4196.81
664.144	4156.06
664.196	4220.48
664.247	4228.51
664.299	4202.88
664.351	4217.42
664.402	4220.67
664.454	4199.41
664.506	4210.48
664.557	4183.94
664.609	4195.5
664.66	4210.75
664.712	4178.96
664.764	4212.03
664.815	4196.39
664.867	4202.55
664.919	4176.75
664.97	4204.78
665.022	4220.11
665.073	4212.76
665.125	4225.41
665.177	4223.51
665.228	4196.31
665.28	4184.66
665.332	4191.52
665.383	4210.25
665.435	4211.11
665.486	4172.3
665.538	4189.99
665.59	4198.63
665.641	4190.98
665.693	4163.47
665.745	4175.48
665.796	4163.58
665.848	4175.98
665.899	4176.59
665.951	4168.78
666.003	4166.73
666.054	4170.17
666.106	4199.56
666.157	4178.83
666.209	4204.37
666.261	4182.74
666.312	4179.55
666.364	4162.21
666.415	4134.7
666.467	4175.24
666.519	4110.64
666.57	4135.54
666.622	4148.31
666.673	4176.74
666.725	4182.77
666.777	4146.25
666.828	4191.95
666.88	4180.65
666.931	4150.86
666.983	4180.23
667.035	4151.12
667.086	4183.45
667.138	4156.37
667.189	4150.21
667.241	4180.29
667.293	4197.22
667.344	4199.75
667.396	4164.24
667.447	4182.15
667.499	4164.05
667.551	4168.84
667.602	4200.6
667.654	4136.05
667.705	4187.47
667.757	4214.1
667.809	4192.52
667.86	4166.45
667.912	4136.74
667.963	4121.02
668.015	4106.77
668.067	4129.69
668.118	4121.73
668.17	4149.26
668.221	4139.51
668.273	4171.03
668.325	4198.19
668.376	4101.58
668.428	4157.51
668.479	4169.97
668.531	4135.27
668.582	4116.91
668.634	4118.76
668.686	4135.89
668.737	4140.49
668.789	4158.2
668.84	4155.9
668.892	4122.37
668.944	4155.97
668.995	4088.94
669.047	4157.99
669.098	4165.86
669.15	4132.75
669.201	4168.72
669.253	4144.37
669.305	4127.46
669.356	4117.93
669.408	4153.34
669.459	4144.87
669.511	4118.34
669.562	4145.98
669.614	4162.96
669.666	4110.24
669.717	4171.93
669.769	4173.72
669.82	4147.83
669.872	4129.53
669.923	4153.34
669.975	4087.63
670.027	4158.22
670.078	4143.12
670.13	4174.51
670.181	4161.44
670.233	4185.18
670.284	4171.83
670.336	4160.9
670.388	4155.34
670.439	4104.55
670.491	4099.54
670.542	4154.47
670.594	4110.58
670.645	4188.47
670.697	4154.75
670.748	4172.28
670.8	4150.53
670.852	4189.79
670.903	4123.26
670.955	4169.93
671.006	4155.69
671.058	4157.48
671.109	4150.41
671.161	4146.38
671.212	4130.92
671.264	4156.67
671.316	4127.45
671.367	4120.17
671.419	4147.86
671.47	4151.99
671.522	4172.35
671.573	4143.84
671.625	4138.75
671.676	4109.87
671.728	4131.63
671.78	4177.51
671.831	4184.83
671.883	4151.41
671.934	4132.45
671.986	4166.1
672.037	4179.17
672.089	4192.05
672.14	4178.33
672.192	4191.44
672.243	4194.74
672.295	4169.17
672.347	4201.51
672.398	4157.68
672.45	4199.68
672.501	4180.01
672.553	4195.69
672.604	4211.09
672.656	4220.93
672.707	4216.54
672.759	4226.26
672.81	4228.89
672.862	4227.2
672.913	4201.54
672.965	4218.22
673.017	4230.49
673.068	4207.17
673.12	4212.24
673.171	4210.34
673.223	4226.71
673.274	4245.85
673.326	4242.25
673.377	4241.83
673.429	4278.94
673.48	4267.03
673.532	4261.21
673.583	4233.97
673.635	4244.37
673.686	4277.35
673.738	4291.61
673.789	4270.52
673.841	4261.55
673.893	4293.05
673.944	4286.95
673.996	4289.92
674.047	4309.78
674.099	4239.85
674.15	4260.93
674.202	4294.72
674.253	4309.11
674.305	4351.85
674.356	4319.04
674.408	4287.63
674.459	4308.71
674.511	4353.79
674.562	4355.72
674.614	4343.32
674.665	4337.11
674.717	4365.65
674.768	4337.55
674.82	4343.47
674.871	4369.39
674.923	4371.59
674.974	4313.08
675.026	4358.06
675.077	4382.05
675.129	4388.15
675.18	4416.94
675.232	4393.5
675.284	4370.09
675.335	4357.43
675.387	4432.8
675.438	4428.61
675.49	4375.04
675.541	4368.64
675.593	4362.53
675.644	4387.45
675.696	4419.77
675.747	4420.29
675.799	4429.7
675.85	4417.14
675.902	4410.93
675.953	4384.3
676.005	4392.69
676.056	4392.12
676.108	4394.8
676.159	4419.44
676.211	4442.5
676.262	4431.55
676.314	4459.75
676.365	4478.6
676.417	4386.86
676.468	4375.72
676.52	4412.32
676.571	4456.82
676.623	4441.08
676.674	4446.67
676.726	4447.27
676.777	4408.01
676.828	4406.62
676.88	4447.42
676.932	4468.84
676.983	4431.59
677.034	4449.07
677.086	4473.65
677.137	4451.77
677.189	4435.09
677.24	4448.03
677.292	4431.81
677.343	4439.86
677.395	4476.55
677.446	4447.53
677.498	4460.83
677.549	4476.17
677.601	4448.36
677.652	4463.22
677.704	4477.19
677.755	4468.49
677.807	4483.59
677.858	4464.95
677.91	4451.74
677.961	4469.56
678.013	4478.77
678.064	4463.26
678.116	4436.91
678.167	4429.27
678.219	4447
678.27	4461.76
678.322	4439.35
678.373	4397.27
678.424	4440
678.476	4497.97
678.527	4460.62
678.579	4457.52
678.63	4465.15
678.682	4440.67
678.733	4439.34
678.785	4478.37
678.836	4477.48
678.888	4457.7
678.939	4455.05
678.991	4432.45
679.042	4414.78
679.094	4433.5
679.122	4464.18
679.173	4510.43
679.225	4387.27
679.277	4509.92
679.328	4462.39
679.38	4397.59
679.432	4453.52
679.483	4418.61
679.535	4375.81
679.586	4447.49
679.638	4430.08
679.69	4443.17
679.741	4485.36
679.793	4547.94
679.844	4430.05
679.896	4520.73
679.948	4429.86
679.999	4499.44
680.051	4539
680.103	4526.68
680.154	4508.32
680.206	4511.4
680.257	4548.77
680.309	4501.26
680.361	4495.72
680.412	4510.18
680.464	4493.39
680.515	4463.93
680.567	4463.92
680.619	4518.74
680.67	4499.85
680.722	4509.33
680.773	4535.64
680.825	4584.95
680.877	4540.56
680.928	4552.47
680.98	4494.18
681.031	4505.71
681.083	4532.7
681.135	4525.11
681.186	4512.61
681.238	4494.52
681.289	4541.88
681.341	4573.26
681.393	4637.59
681.444	4567.22
681.496	4583.84
681.547	4568.98
681.599	4551.21
681.651	4521.7
681.702	4519.31
681.754	4624.26
681.805	4578.4
681.857	4633.3
681.909	4600.55
681.96	4629.13
682.012	4550.25
682.063	4589.64
682.115	4634.35
682.166	4643.6
682.218	4644.19
682.27	4610.14
682.321	4616.28
682.373	4599.77
682.424	4626.14
682.476	4599.46
682.528	4616.24
682.579	4602.67
682.631	4647.31
682.682	4613.82
682.734	4604.84
682.785	4592.4
682.837	4682.46
682.889	4552.95
682.94	4584.6
682.992	4663.94
683.043	4624.88
683.095	4628.76
683.146	4673.43
683.198	4620.52
683.25	4612.51
683.301	4653.62
683.353	4636.71
683.404	4590.79
683.456	4591.52
683.508	4674.73
683.559	4622.6
683.611	4622.52
683.662	4664.74
683.714	4652.77
683.765	4613.63
683.817	4607.09
683.869	4629.83
683.92	4648.55
683.972	4628.81
684.023	4703.17
684.075	4617.08
684.126	4625.02
684.178	4609.46
684.229	4636.22
684.281	4587.46
684.333	4547.76
684.384	4593.17
684.436	4602.5
684.487	4590.38
684.539	4571.02
684.59	4610.79
684.642	4614.64
684.694	4573.54
684.745	4610.41
684.797	4582.14
684.848	4639.35
684.9	4583.48
684.951	4591.48
685.003	4570
685.055	4605.5
685.106	4538.48
685.158	4592.69
685.209	4568.02
685.261	4585.12
685.312	4626.78
685.364	4580.63
685.415	4594.83
685.467	4533.22
685.518	4605.14
685.57	4581.41
685.622	4540.75
685.673	4518.56
685.725	4552
685.776	4510.47
685.828	4554.14
685.879	4542.41
685.931	4567
685.982	4525.51
686.034	4533.24
686.086	4583.48
686.137	4532.37
686.189	4543.14
686.24	4558.4
686.292	4494.64
686.343	4517.25
686.395	4518.6
686.446	4552.53
686.498	4514.1
686.549	4521.79
686.601	4531.29
686.652	4512.44
686.704	4537.28
686.756	4481.53
686.807	4503.24
686.859	4484.7
686.91	4548.85
686.962	4533.13
687.013	4526.04
687.065	4510.83
687.116	4542.35
687.168	4530.07
687.219	4490.07
687.271	4494.28
687.322	4524.84
687.374	4511.03
687.426	4532.54
687.477	4514.75
687.529	4493.07
687.58	4449.5
687.632	4513.29
687.683	4546.81
687.735	4517.43
687.786	4540.37
687.838	4534.94
687.889	4488.93
687.941	4528.12
687.992	4520.7
688.044	4505.56
688.095	4497.5
688.147	4485.26
688.198	4499.83
688.25	4485.75
688.302	4518.62
688.353	4522.65
688.405	4555.3
688.456	4513.07
688.508	4515.93
688.559	4493.68
688.611	4501.66
688.662	4492.05
688.714	4499.34
688.765	4498.15
688.817	4481.83
688.868	4476.77
688.92	4549.8
688.971	4502.71
689.023	4465.6
689.074	4502.52
689.126	4506.33
689.177	4499.36
689.229	4478.74
689.28	4477.64
689.332	4499.17
689.383	4510.91
689.435	4481.12
689.486	4431.21
689.538	4445.38
689.589	4460.19
689.641	4466.04
689.692	4471.12
689.744	4424.4
689.795	4444.83
689.847	4484.44
689.898	4506.67
689.95	4498.77
690.001	4485.83
690.053	4463.73
690.104	4489.75
690.156	4500.53
690.207	4473.52
690.259	4460.28
690.31	4440.66
690.362	4481.46
690.413	4458.98
690.465	4460.98
690.516	4447.36
690.568	4444.08
690.619	4453.78
690.671	4428.26
690.722	4419.59
690.774	4420.67
690.825	4425.7
690.877	4464.21
690.928	4411.87
690.98	4421.36
691.031	4446.79
691.083	4402.78
691.134	4404.4
691.186	4427.01
691.237	4403.04
691.289	4400.73
691.34	4354.42
691.392	4452.67
691.443	4379.85
691.495	4360.54
691.546	4396.95
691.598	4394.03
691.649	4413.42
691.701	4403.45
691.752	4380.58
691.804	4375.7
691.855	4362.49
691.907	4345.29
691.958	4393.47
692.01	4377.42
692.061	4380.19
692.113	4311.78
692.164	4402.75
692.216	4367.17
692.267	4366.09
692.319	4361.1
692.37	4359.76
692.421	4367.55
692.473	4370.78
692.524	4351.01
692.576	4331.59
692.627	4315.39
692.679	4338.17
692.73	4348.52
692.782	4306.64
692.833	4308.82
692.885	4304.27
692.936	4340.43
692.988	4309.33
693.039	4328.32
693.091	4311.55
693.142	4320.19
693.194	4306.87
693.245	4313.94
693.297	4344.22
693.348	4291.32
693.399	4333.2
693.451	4305.85
693.502	4285.56
693.554	4274.07
693.605	4276.78
693.657	4308.89
693.708	4264.57
693.76	4339.86
693.811	4338.54
693.863	4242.16
693.914	4308.45
693.966	4276.89
694.017	4281.68
694.068	4272.42
694.12	4269.76
694.171	4281.15
694.223	4299.11
694.274	4297.02
694.326	4262.51
694.377	4203.3
694.429	4247.69
694.48	4273.13
694.532	4279.06
694.583	4265.74
694.634	4222.13
694.686	4265.42
694.737	4249.8
694.789	4268.37
694.84	4240.17
694.892	4258.84
694.943	4242.42
694.995	4201.41
695.046	4213.76
695.097	4264.9
695.149	4237.1
695.2	4249.24
695.252	4265.3
695.303	4212.14
695.355	4254.93
695.406	4264.18
695.458	4250.1
695.509	4245.88
695.56	4238.8
695.612	4213.56
695.663	4252.93
695.715	4233.95
695.766	4188.17
695.818	4243.87
695.869	4247.94
695.921	4210.07
695.972	4241.39
696.023	4255.15
696.075	4206.24
696.126	4228.19
696.178	4224.04
696.229	4192.38
696.281	4159.39
696.332	4152.31
696.383	4155.65
696.435	4203
696.486	4218.9
696.538	4207.54
696.589	4188.75
696.641	4186.4
696.692	4156.41
696.744	4187.13
696.795	4147.7
696.846	4191.82
696.898	4184.33
696.949	4201.41
697.001	4187.23
697.052	4174.04
697.104	4196.62
697.155	4095.2
697.206	4128.45
697.258	4212.37
697.309	4133.08
697.361	4145.32
697.412	4163.23
697.463	4145.21
697.515	4124.7
697.566	4106.27
697.618	4130.14
697.669	4174.45
697.721	4148.96
697.772	4139.93
697.823	4128.63
697.875	4125.81
697.926	4141.33
697.978	4075.18
698.029	4095.49
698.08	4115.2
698.132	4102.33
698.183	4067.99
698.235	4057.36
698.286	4076.37
698.338	4074.1
698.389	4087.38
698.44	4086.78
698.492	4089.93
698.543	4019.55
698.595	4065.5
698.646	4053.79
698.697	4066.19
698.749	4098.87
698.8	4032.04
698.852	4039.29
698.903	4039.71
698.954	4059.68
699.006	4046.98
699.057	4008.39
699.109	4016.45
699.16	4025.22
699.211	4026.25
699.263	3995.61
699.314	3995.06
699.366	4028.58
699.417	4037.93
699.468	4031.66
699.52	4046.64
699.571	4008.21
699.623	3985.26
699.674	3978
699.725	3970.25
699.777	3981.34
699.828	3978.37
699.88	3997.5
699.931	3982.36
699.982	3985.14
700.034	4010.39
700.085	4027.06
700.137	4004.36
700.188	3996.2
700.239	4027.46
700.291	3993.76
700.342	3974.65
700.393	3999.26
700.445	4018.34
700.496	3998.64
700.548	3978.91
700.599	3988.81
700.65	4012.78
700.702	3997.32
700.753	3992.06
700.805	3995.73
700.856	4001.86
700.907	3955.89
700.959	3947.87
701.01	3973.22
701.061	4012.31
701.113	4010.18
701.164	4007.18
701.216	3988.91
701.267	3991.51
701.318	3969.47
701.37	3916.01
701.421	3959.46
701.472	3997.46
701.524	3983.98
701.575	3937.08
701.627	3978.64
701.678	3997.02
701.729	3965.09
701.781	3992.91
701.832	3976.21
701.883	3992.67
701.935	4029.58
701.986	4012.28
702.038	4001.44
702.089	3996.55
702.14	3997.84
702.192	3965.04
702.243	3966.74
702.294	3974.23
702.346	3972.77
702.397	3985.53
702.448	3999.55
702.5	4004.66
702.551	3983.3
702.603	4009.84
702.654	4017.92
702.705	3977.14
702.757	4023.68
702.808	4045.98
702.859	3998.1
702.911	3975.59
702.962	3994.15
703.013	4021.45
703.065	3994.26
703.116	3961.81
703.167	3976.8
703.219	3982.9
703.27	3967.77
703.322	3995.74
703.373	3997.06
703.424	3952.86
703.476	3925.41
703.527	3938.93
703.578	3938.46
703.63	3941.45
703.681	3982.61
703.732	3936.16
703.784	3920.68
703.835	3953.64
703.886	3969.65
703.938	3988.56
703.989	3971.42
704.04	3901.54
704.092	3892.26
704.143	3952.74
704.194	3954.56
704.246	3957.29
704.297	3975.24
704.348	3957.78
704.4	3935
704.451	3943.26
704.503	3934.98
704.554	3926.43
704.605	3911.11
704.656	3924.16
704.708	3916.94
704.759	3886.67
704.81	3878.04
704.862	3912.47
704.913	3944.74
704.964	3926.05
705.016	3903.66
705.067	3897.09
705.119	3896.97
705.17	3894.61
705.221	3910.76
705.273	3901.13
705.324	3895.14
705.375	3878.26
705.408	3882
705.459	3852
705.511	3858.12
705.562	3856.23
705.614	3873.97
705.665	3877.87
705.717	3906.02
705.768	3825.04
705.82	3886.14
705.871	3791.89
705.923	3833.67
705.974	3866.83
706.026	3852.97
706.077	3847.11
706.129	3794.45
706.18	3831.9
706.232	3760.3
706.283	3826.82
706.335	3824.29
706.386	3837.76
706.438	3842.07
706.489	3823.38
706.541	3794.47
706.592	3793.21
706.643	3771.07
706.695	3788.92
706.746	3790.02
706.798	3817.86
706.849	3776.98
706.901	3727.24
706.952	3770.87
707.004	3805.2
707.055	3701.2
707.107	3680.54
707.158	3776.25
707.21	3749.51
707.261	3766.17
707.313	3775.38
707.364	3745.02
707.416	3730.65
707.467	3769.63
707.518	3759.99
707.57	3709.58
707.621	3805.01
707.673	3682.66
707.724	3726.08
707.776	3733.75
707.827	3734.68
707.879	3712.3
707.93	3744.94
707.982	3658.4
708.033	3760.45
708.084	3682.06
708.136	3710.28
708.187	3702.31
708.239	3733.74
708.29	3706.15
708.342	3749.02
708.393	3757.45
708.445	3607.36
708.496	3692.92
708.548	3669.19
708.599	3678.41
708.651	3668.7
708.702	3648.41
708.753	3743.58
708.805	3663.23
708.856	3707.46
708.908	3691.66
708.959	3703.09
709.011	3726.09
709.062	3696.85
709.114	3662.85
709.165	3637.74
709.216	3729.11
709.268	3649.68
709.319	3718.26
709.371	3744.85
709.422	3635.55
709.474	3635.77
709.525	3613.44
709.577	3652.36
709.628	3672.87
709.679	3656.21
709.731	3697.71
709.782	3668.84
709.834	3589.69
709.885	3652.9
709.937	3632.66
709.988	3666.45
710.039	3693.08
710.091	3631.28
710.142	3664.35
710.194	3624.36
710.245	3662.4
710.297	3628.4
710.348	3627.15
710.4	3608.73
710.451	3670.06
710.502	3626.84
710.554	3613.22
710.605	3660.5
710.657	3659.4
710.708	3590.6
710.76	3609.54
710.811	3625.1
710.862	3553.29
710.914	3643.92
710.965	3598.27
711.017	3610.38
711.068	3585.87
711.12	3595.96
711.171	3582.5
711.222	3610.87
711.274	3622.9
711.325	3625
711.377	3556.44
711.428	3574.97
711.479	3483.47
711.531	3574.9
711.582	3551.89
711.634	3553.81
711.685	3537.39
711.737	3541.38
711.788	3598.64
711.839	3525.03
711.891	3527.53
711.942	3592.49
711.994	3547.93
712.045	3551.49
712.096	3568.41
712.148	3509.9
712.199	3558.21
712.251	3532.66
712.302	3502.05
712.354	3567.14
712.405	3534.74
712.456	3420.51
712.508	3486.31
712.559	3460.01
712.611	3508.68
712.662	3481.87
712.713	3525.55
712.765	3493.53
712.816	3468.95
712.868	3467.49
712.919	3497.54
712.97	3501.28
713.022	3496.43
713.073	3465.65
713.125	3505.94
713.176	3425.77
713.227	3442.36
713.279	3454.18
713.33	3440.35
713.382	3462.93
713.433	3430.6
713.484	3411.43
713.536	3478.66
713.587	3408.07
713.639	3444.61
713.69	3450.82
713.741	3453.15
713.793	3440.18
713.844	3407.48
713.896	3392.61
713.947	3412.37
713.998	3373.24
714.05	3381.67
714.101	3391.89
714.153	3361.3
714.204	3374.66
714.255	3383.3
714.307	3374.75
714.358	3370
714.41	3394.24
714.461	3370.34
714.512	3337.42
714.564	3334.44
714.615	3357.86
714.666	3351.83
714.718	3353.22
714.769	3366.41
714.821	3334.3
714.872	3375.43
714.923	3334.25
714.975	3307.85
715.026	3314.55
715.078	3340.7
715.129	3303.56
715.18	3330.64
715.232	3333.66
715.283	3296.5
715.334	3326.97
715.386	3320.12
715.437	3317.27
715.489	3299.71
715.54	3331.06
715.591	3316.23
715.643	3319.29
715.694	3261.15
715.745	3286.55
715.797	3290.79
715.848	3252.35
715.9	3277.99
715.951	3235.41
716.002	3273.43
716.054	3257.44
716.105	3256.81
716.156	3267.94
716.208	3267.15
716.259	3241.91
716.31	3280.38
716.362	3295.29
716.413	3201.83
716.465	3251.68
716.516	3253.67
716.567	3295.98
716.619	3225.53
716.67	3240.41
716.721	3249.19
716.773	3251.96
716.824	3257.56
716.875	3239.93
716.927	3257.91
716.978	3255.27
717.03	3249.98
717.081	3258.83
717.132	3240.81
717.184	3230.55
717.235	3236.24
717.286	3192.28
717.338	3241.11
717.389	3233.96
717.44	3211.91
717.492	3203.6
717.543	3184.7
717.594	3224.83
717.646	3179.58
717.697	3185.25
717.749	3211.27
717.8	3206.92
717.851	3191.5
717.903	3215.42
717.954	3203.34
718.005	3183.8
718.057	3204.1
718.108	3175.99
718.159	3174.25
718.211	3165.65
718.262	3190.52
718.313	3161.89
718.365	3201.82
718.416	3220.54
718.467	3151.7
718.519	3158.34
718.57	3167.67
718.621	3183.02
718.673	3146.97
718.724	3140.54
718.775	3111.08
718.827	3119.52
718.878	3125.42
718.93	3147.42
718.981	3140.63
719.032	3130.19
719.083	3139.34
719.135	3100.28
719.186	3145.02
719.237	3114.77
719.289	3079.17
719.34	3141.01
719.391	3131.07
719.443	3104.3
719.494	3110.46
719.545	3111.6
719.597	3128.56
719.648	3095.03
719.699	3099.02
719.751	3135.12
719.802	3112
719.853	3106.43
719.905	3076.99
719.956	3086.8
720.007	3090.4
720.059	3043.9
720.11	3100.42
720.161	3075.45
720.213	3082.03
720.264	3080.12
720.315	3071.1
720.367	3076.7
720.418	3052.4
720.469	3032.47
720.521	3061.63
720.572	3010.36
720.623	3016.23
720.675	3047.68
720.726	3062.13
720.777	3021
720.829	2987.72
720.88	3021.44
720.931	2986.38
720.982	3009.69
721.034	3027.79
721.085	3027.62
721.136	2998.55
721.188	3002.24
721.239	2976.02
721.29	2978.39
721.342	2980.01
721.393	3002.98
721.444	3020.38
721.496	3012.66
721.547	2971.07
721.598	2976.12
721.65	3005.35
721.701	3000.11
721.752	2962.03
721.803	2949.62
721.855	2965.01
721.906	2966.32
721.957	2964.42
722.009	2916.84
722.06	2938.75
722.111	2962.51
722.163	2914.05
722.214	2944.46
722.265	2945.76
722.316	2935.66
722.368	2928.4
722.419	2954.15
722.47	2911.36
722.522	2930.31
722.573	2908.14
722.624	2908.2
722.676	2920.98
722.727	2923.42
722.778	2935.03
722.829	2915.5
722.881	2922.11
722.932	2912.62
722.983	2937.32
723.035	2926.25
723.086	2884.73
723.137	2911.93
723.188	2917.49
723.24	2903.76
723.291	2894.67
723.342	2895.4
723.394	2880.82
723.445	2871.08
723.496	2871.12
723.547	2826.01
723.599	2869.16
723.65	2881.52
723.701	2874.44
723.753	2864.74
723.804	2867.25
723.855	2846.35
723.906	2873.96
723.958	2866.21
724.009	2860.96
724.06	2877.92
724.112	2865.55
724.163	2875.78
724.214	2865.56
724.265	2858.11
724.317	2851.09
724.368	2844.37
724.419	2841.45
724.47	2811.49
724.522	2824.14
724.573	2843.89
724.624	2827.34
724.676	2807.86
724.727	2819.19
724.778	2806.36
724.829	2818.58
724.881	2811.86
724.932	2797.51
724.983	2836.51
725.034	2851.19
725.086	2828.35
725.137	2826.79
725.188	2819.39
725.24	2839.46
725.291	2821.61
725.342	2827
725.393	2795.51
725.445	2793.87
725.496	2759.07
725.547	2766.17
725.598	2802.43
725.65	2782.91
725.701	2786.1
725.752	2764.64
725.803	2760.8
725.855	2738.96
725.906	2789.15
725.957	2784.88
726.008	2782.36
726.06	2767
726.111	2774.58
726.162	2793.56
726.213	2765.82
726.265	2751.08
726.316	2755.6
726.367	2750.34
726.418	2744.84
726.47	2753.58
726.521	2755.99
726.572	2725.59
726.623	2731.84
726.675	2741.49
726.726	2762.37
726.777	2725.08
726.828	2696.81
726.88	2685.28
726.931	2689.96
726.982	2698.48
727.033	2724.89
727.085	2711.05
727.136	2711.04
727.187	2712.82
727.238	2702.47
727.29	2703.14
727.341	2706.19
727.392	2678.85
727.443	2704.04
727.495	2699.26
727.546	2692.43
727.597	2690.57
727.648	2696.71
727.7	2704.85
727.751	2678.18
727.802	2658.83
727.853	2668.32
727.904	2686.8
727.956	2713.84
728.007	2647.89
728.058	2638.59
728.109	2672.73
728.161	2640.27
728.212	2633.67
728.263	2634.18
728.314	2654.99
728.366	2686.76
728.417	2668.34
728.468	2674.06
728.519	2650.04
728.57	2665.71
728.622	2621.62
728.673	2615.72
728.724	2604.64
728.775	2586.11
728.827	2627.28
728.878	2589.93
728.929	2610.18
728.98	2635.19
729.031	2572.87
729.083	2596.06
729.134	2631.49
729.185	2609.02
729.236	2608.3
729.288	2598.34
729.339	2585.92
729.39	2600.44
729.441	2617.74
729.492	2572.23
729.544	2593.26
729.595	2513.91
729.646	2556.75
729.697	2548.85
729.748	2538.44
729.8	2537.98
729.851	2529.38
729.902	2531.37
729.953	2504.78
730.004	2516.97
730.056	2513.2
730.107	2542.24
730.158	2557.23
730.209	2501.63
730.26	2482.9
730.312	2478.49
730.363	2490.64
730.414	2462.92
730.465	2520.05
730.517	2493.54
730.568	2516.96
730.619	2493.55
730.67	2516.67
730.721	2520.74
730.773	2447.16
730.824	2486.15
730.875	2438.84
730.926	2444.21
730.977	2469.7
731.029	2442.92
731.08	2458.52
731.131	2452.43
731.182	2450.66
731.233	2450.24
731.284	2451.14
731.336	2449.84
731.387	2431.89
731.438	2454.99
731.489	2484.71
731.54	2502.31
731.592	2484.3
731.643	2454.19
731.643	2454
731.694	2456
731.746	2406
731.797	2452.05
731.848	2432.29
731.9	2442.46
731.951	2402.95
732.002	2377.29
732.054	2409.3
732.105	2387.18
732.156	2445.09
732.208	2442.84
732.259	2445.16
732.311	2393.82
732.362	2419.87
732.413	2407.79
732.465	2408.59
732.516	2439.1
732.567	2403.82
732.619	2451.97
732.67	2396.25
732.721	2432.32
732.773	2398.93
732.824	2450.07
732.875	2354.47
732.927	2465.61
732.978	2355.64
733.029	2415.27
733.081	2434.35
733.132	2409.3
733.183	2417.29
733.235	2396.46
733.286	2410.02
733.337	2388.78
733.389	2419.28
733.44	2380.34
733.491	2368.65
733.543	2385.27
733.594	2425.86
733.645	2404.12
733.697	2358.86
733.748	2456.61
733.799	2426.75
733.851	2402.43
733.902	2421.02
733.953	2427.32
734.005	2400.22
734.056	2443.24
734.107	2386.18
734.158	2399.31
734.21	2393.87
734.261	2421.32
734.312	2381.65
734.364	2348.07
734.415	2389.4
734.466	2426.57
734.518	2450.22
734.569	2413.6
734.62	2433.51
734.672	2380.97
734.723	2408.62
734.774	2402.03
734.826	2410.31
734.877	2412.93
734.928	2431.04
734.98	2417.05
735.031	2444.86
735.082	2410.42
735.133	2413.36
735.185	2421.44
735.236	2440.65
735.287	2416.82
735.339	2442.43
735.39	2415.47
735.441	2458.64
735.493	2463.42
735.544	2490.18
735.595	2435.25
735.647	2426
735.698	2444.91
735.749	2437.98
735.8	2437.82
735.852	2449.28
735.903	2437.6
735.954	2478.8
736.006	2469.13
736.057	2478.38
736.108	2441.39
736.16	2474.95
736.211	2486.99
736.262	2501.51
736.313	2505.06
736.365	2490.86
736.416	2508.17
736.467	2488.88
736.519	2499.5
736.57	2508.51
736.621	2540.83
736.673	2468.06
736.724	2497.89
736.775	2502.51
736.826	2526.32
736.878	2523.17
736.929	2511.97
736.98	2552.88
737.032	2550.43
737.083	2560.89
737.134	2535.83
737.185	2600.09
737.237	2579.53
737.288	2589.37
737.339	2598.3
737.391	2574.24
737.442	2631.49
737.493	2562.5
737.544	2627.61
737.596	2580.19
737.647	2631.78
737.698	2637.88
737.75	2609.48
737.801	2623.87
737.852	2597.87
737.903	2645.44
737.955	2662.26
738.006	2583.24
738.057	2647.68
738.109	2643.53
738.16	2663.14
738.211	2652.94
738.262	2626.88
738.314	2621.8
738.365	2621.06
738.416	2631.39
738.468	2658.67
738.519	2647.72
738.57	2654.78
738.621	2649.42
738.673	2648.3
738.724	2578.09
738.775	2601.7
738.826	2579.7
738.878	2629.19
738.929	2602.21
738.98	2544.53
739.031	2546.17
739.083	2590.99
739.134	2564.92
739.185	2555.7
739.237	2567.15
739.288	2554.67
739.339	2519.87
739.39	2527.86
739.442	2540.6
739.493	2541.86
739.544	2487.95
739.595	2498.63
739.647	2483.34
739.698	2493.04
739.749	2451.07
739.8	2483.37
739.852	2476.5
739.903	2480.24
739.954	2451.17
740.005	2471.01
740.057	2459.75
740.108	2432.23
740.159	2416.66
740.211	2387.9
740.262	2415.6
740.313	2399.59
740.364	2423.61
740.416	2407.28
740.467	2386.62
740.518	2385.92
740.569	2369.62
740.621	2361.18
740.672	2367.46
740.723	2361.56
740.774	2322.11
740.826	2348.64
740.877	2358.22
740.928	2318.31
740.979	2309
741.031	2331.49
741.082	2324.87
741.133	2326.79
741.184	2314.31
741.235	2286.29
741.287	2269.6
741.338	2328.28
741.389	2260.36
741.44	2298.4
741.492	2272.14
741.543	2274.41
741.594	2261.72
741.645	2253.95
741.697	2261.8
741.748	2244.27
741.799	2259.44
741.85	2225.02
741.902	2269.89
741.953	2238.83
742.004	2223.16
742.055	2194.14
742.107	2210.01
742.158	2228.65
742.209	2227.42
742.26	2206.85
742.311	2207.03
742.363	2173.68
742.414	2175.71
742.465	2170.2
742.516	2199.17
742.568	2194.25
742.619	2189
742.67	2184.65
742.721	2173.05
742.773	2142.83
742.824	2181.69
742.875	2129.25
742.926	2145.94
742.977	2112.66
743.029	2156.66
743.08	2130.7
743.131	2155.07
743.182	2164.2
743.234	2129.76
743.285	2132.14
743.336	2154.46
743.387	2139.82
743.438	2137.47
743.49	2107.14
743.541	2134.97
743.592	2118.36
743.643	2136.3
743.694	2128.36
743.746	2099.71
743.797	2096.15
743.848	2114.74
743.899	2103.94
743.951	2092.99
744.002	2097.28
744.053	2096.9
744.104	2085.96
744.155	2083.96
744.207	2068.14
744.258	2081.84
744.309	2085.46
744.36	2086.07
744.411	2087.88
744.463	2059.17
744.514	2022
744.565	2060.73
744.616	2028.68
744.667	2052.68
744.719	2057.28
744.77	2029.8
744.821	2037.53
744.872	2042.38
744.923	2038.41
744.975	2040.88
745.026	2015.55
745.077	2039.47
745.128	2045.93
745.179	2028.91
745.231	2037.65
745.282	2037.56
745.333	2040.34
745.384	2029.42
745.435	1981.58
745.487	2011.54
745.538	2035.32
745.589	2024.33
745.64	2022.28
745.691	1988.79
745.743	2001.24
745.794	1997.81
745.845	1993.75
745.896	2024.5
745.947	2009.3
745.998	2018.7
746.05	2009.01
746.101	1995.36
746.152	1985.57
746.203	1979.64
746.254	1983.32
746.306	1994.54
746.357	1978.78
746.408	1973.95
746.459	1963.03
746.51	1995.52
746.562	1956.46
746.613	1972.91
746.664	1992.28
746.715	1988.77
746.766	2010.32
746.817	1965.32
746.869	1944.94
746.92	1937.3
746.971	1954.64
747.022	1964.84
747.073	1962.46
747.125	1950.05
747.176	1947.74
747.227	1955.7
747.278	1941.92
747.329	1936.24
747.38	1910.31
747.432	1919.48
747.483	1930.34
747.534	1944.47
747.585	1911.05
747.636	1921.68
747.687	1936.06
747.739	1922.11
747.79	1912.84
747.841	1938.44
747.892	1978.16
747.943	1945.29
747.994	1922.68
748.046	1933.28
748.097	1943.52
748.148	1924.32
748.199	1899.87
748.25	1900.16
748.301	1913.52
748.352	1909.65
748.404	1878.53
748.455	1911.72
748.506	1901.52
748.557	1900.11
748.608	1890.79
748.659	1900.77
748.711	1906.2
748.762	1902.74
748.813	1898.62
748.864	1892.82
748.915	1883.17
748.966	1882.21
749.018	1888.21
749.069	1898.79
749.12	1901.62
749.171	1893.69
749.222	1900.21
749.273	1856.92
749.324	1872.91
749.376	1870.64
749.427	1880.33
749.478	1861.6
749.529	1858.86
749.58	1862.9
749.631	1864.5
749.682	1879.25
749.734	1880.89
749.785	1863.28
749.836	1850.07
749.887	1863.06
749.938	1869.93
749.989	1851.72
750.04	1879.34
750.092	1848.85
750.143	1852.36
750.194	1874.77
750.245	1845.83
750.296	1886.67
750.347	1853.7
750.398	1829.92
750.45	1875.92
750.501	1840.79
750.552	1821.27
750.603	1856.79
750.654	1830.17
750.705	1834.56
750.756	1794.44
750.807	1826.79
750.859	1827.05
750.91	1832.49
750.961	1814.67
751.012	1798.25
751.063	1804.29
751.114	1794.15
751.165	1804.32
751.216	1809.66
751.268	1820.92
751.319	1826.87
751.37	1797.09
751.421	1797.58
751.472	1773.45
751.523	1827.58
751.574	1819.89
751.625	1794.82
751.677	1787.06
751.728	1817.08
751.779	1778.62
751.83	1801.28
751.881	1806.88
751.932	1761.23
751.983	1773.26
752.034	1782.58
752.086	1773.59
752.137	1766.57
752.188	1778.55
752.239	1765.9
752.29	1751.94
752.341	1776.76
752.392	1746.33
752.443	1743.48
752.494	1752.78
752.546	1769.34
752.597	1729.36
752.648	1739.6
752.699	1776.04
752.75	1768.95
752.801	1734.76
752.852	1765.27
752.903	1733.32
752.954	1740.88
753.005	1756.17
753.057	1773.03
753.108	1766.36
753.159	1765.32
753.21	1733.39
753.261	1750.28
753.312	1749.76
753.363	1729.8
753.414	1730.78
753.465	1715.14
753.516	1698.72
753.568	1704.94
753.619	1746.57
753.67	1707.81
753.721	1684.18
753.772	1691.62
753.823	1721.29
753.874	1687.73
753.925	1710.85
753.976	1692.19
754.027	1694.43
754.079	1679.99
754.13	1701.66
754.181	1694.1
754.232	1712.85
754.283	1678.8
754.334	1696
754.385	1689.1
754.436	1695.24
754.487	1701.48
754.538	1685.28
754.589	1702.67
754.641	1702.15
754.692	1719.69
754.743	1677
754.794	1667.57
754.845	1650
754.896	1656.16
754.947	1677.21
754.998	1696.9
755.049	1677.07
755.1	1645.25
755.151	1656.49
755.202	1685.45
755.253	1653.89
755.305	1687.42
755.356	1676.9
755.407	1657.72
755.458	1615.05
755.509	1687.01
755.56	1639.9
755.611	1640.67
755.662	1608.56
755.713	1617.74
755.764	1620.65
755.815	1633.33
755.866	1635.38
755.917	1612.75
755.968	1637.42
756.02	1595.79
756.071	1583.49
756.122	1608.12
756.173	1599.33
756.224	1616.22
756.275	1609.54
756.326	1591
756.377	1612.4
756.428	1636.08
756.479	1578.87
756.53	1593.84
756.581	1602.85
756.632	1596.46
756.683	1628.8
756.734	1582.05
756.785	1592.03
756.837	1592.29
756.888	1585.24
756.939	1606.74
756.99	1578.75
757.041	1587.38
757.092	1598.92
757.143	1593.04
757.194	1600.52
757.245	1589.77
757.296	1604.9
757.347	1607.77
757.398	1574.43
757.449	1557.7
757.5	1571.52
757.551	1591.45
757.602	1541.81
757.653	1574.55
757.704	1560.14
757.755	1571.1
757.807	1604.09
757.858	1549.94
757.909	1586.23
757.917	1596
757.968	1550
758.02	1556.05
758.071	1586
758.122	1568.01
758.173	1579.79
758.224	1551.78
758.276	1554
758.327	1540.37
758.378	1527.98
758.429	1549.97
758.48	1534.61
758.532	1530.5
758.583	1535
758.634	1534.84
758.685	1555.99
758.736	1555.29
758.788	1557.44
758.839	1526.57
758.89	1537.11
758.941	1540.59
758.992	1515.15
759.044	1499.78
759.095	1548.47
759.146	1548.32
759.197	1542.84
759.248	1509.25
759.3	1515.66
759.351	1495.52
759.402	1502.65
759.453	1518.08
759.504	1496.16
759.556	1489.54
759.607	1521.75
759.658	1474.37
759.709	1508.99
759.76	1488.11
759.811	1516.09
759.863	1469.02
759.914	1466.55
759.965	1478.79
760.016	1438.92
760.067	1477.92
760.119	1471.29
760.17	1486.42
760.221	1472.9
760.272	1462.41
760.323	1434.19
760.375	1480.84
760.426	1462.05
760.477	1470.75
760.528	1488.96
760.579	1474.93
760.63	1455.66
760.682	1472.07
760.733	1473.34
760.784	1456.41
760.835	1461.31
760.886	1437.09
760.937	1466.97
760.989	1442.62
761.04	1446.89
761.091	1420.11
761.142	1432.56
761.193	1433.4
761.245	1376.47
761.296	1415.42
761.347	1452.84
761.398	1472.45
761.449	1412.56
761.5	1434.05
761.552	1446.9
761.603	1432.39
761.654	1447.82
761.705	1453.43
761.756	1413.64
761.807	1454.16
761.859	1407.79
761.91	1382.66
761.961	1402.39
762.012	1394.1
762.063	1424.79
762.114	1407.97
762.165	1402.25
762.217	1371.02
762.268	1422.71
762.319	1419.67
762.37	1416.67
762.421	1400.66
762.472	1385.69
762.524	1422.73
762.575	1443.65
762.626	1432.8
762.677	1388.03
762.728	1370.43
762.779	1385.89
762.831	1396.29
762.882	1396.21
762.933	1395.04
762.984	1404.51
763.035	1406.15
763.086	1370.66
763.137	1362.17
763.189	1401.61
763.24	1399.78
763.291	1354.7
763.342	1376.07
763.393	1353.43
763.444	1384.13
763.495	1389.99
763.547	1385.21
763.598	1355.31
763.649	1356.17
763.7	1373.72
763.751	1354.59
763.802	1317.54
763.853	1362.78
763.905	1373.23
763.956	1353.12
764.007	1376.65
764.058	1367.17
764.109	1356.79
764.16	1325.68
764.211	1349.53
764.263	1352.81
764.314	1346.01
764.365	1328.64
764.416	1337.1
764.467	1349
764.518	1328.3
764.569	1323.75
764.621	1326.22
764.672	1320.09
764.723	1309.6
764.774	1319.58
764.825	1327.58
764.876	1351.71
764.927	1333.65
764.978	1314.15
765.03	1352.89
765.081	1292.76
765.132	1306.57
765.183	1323.22
765.234	1337.64
765.285	1330.86
765.336	1308.49
765.387	1306.47
765.439	1327.72
765.49	1335.94
765.541	1306.18
765.592	1297.63
765.643	1299.47
765.694	1321.47
765.745	1307.09
765.796	1296.59
765.848	1307.15
765.899	1286.73
765.95	1289.89
766.001	1285.08
766.052	1272.89
766.103	1298.37
766.154	1327.58
766.205	1300.87
766.256	1304.8
766.308	1309.38
766.359	1318.94
766.41	1275.64
766.461	1285.9
766.512	1279.93
766.563	1270.88
766.614	1284.73
766.665	1272.82
766.716	1291.46
766.768	1291.22
766.819	1267.33
766.87	1271.85
766.921	1243.05
766.972	1286.54
767.023	1274.81
767.074	1264.82
767.125	1263.58
767.176	1297.24
767.227	1267.86
767.279	1286.28
767.33	1235.01
767.381	1253.15
767.432	1263.64
767.483	1254.53
767.534	1270.73
767.585	1254.45
767.636	1241.45
767.687	1208.07
767.739	1238.24
767.79	1250.93
767.841	1239.82
767.892	1218.6
767.943	1217.31
767.994	1214.41
768.045	1224.36
768.096	1223.21
768.147	1243.32
768.198	1231.05
768.249	1224.57
768.301	1222.56
768.352	1233.88
768.403	1221.45
768.454	1213.03
768.505	1187.58
768.556	1216.1
768.607	1191.58
768.658	1198.6
768.709	1218.11
768.76	1211.79
768.811	1206.76
768.862	1186.97
768.914	1206.32
768.965	1186.42
769.016	1195.09
769.067	1199.69
769.118	1198.68
769.169	1198.69
769.22	1202.42
769.271	1221.14
769.322	1194.84
769.373	1186.94
769.424	1172.89
769.475	1192.12
769.526	1169.26
769.578	1181.6
769.629	1193.15
769.68	1180.22
769.731	1198.11
769.782	1188.46
769.833	1165.39
769.884	1179.49
769.935	1186.18
769.986	1164.35
770.037	1181.85
770.088	1159.46
770.139	1153.56
770.19	1179.18
770.242	1159.19
770.293	1159.34
770.344	1141.06
770.395	1129.03
770.446	1184.8
770.497	1167.54
770.548	1127.43
770.599	1136.03
770.65	1158.85
770.701	1156.22
770.752	1153.78
770.803	1106.42
770.854	1136.74
770.905	1138.64
770.956	1127.95
771.007	1131.55
771.058	1137.82
771.11	1150.35
771.161	1146.05
771.212	1126.73
771.263	1141.63
771.314	1123.41
771.365	1112.38
771.416	1113.87
771.467	1109.79
771.518	1133.09
771.569	1107.51
771.62	1114.56
771.671	1112.61
771.722	1098.47
771.773	1101.17
771.824	1116.44
771.875	1106.64
771.926	1116.08
771.977	1118.31
772.028	1098.71
772.079	1098.56
772.131	1096.25
772.182	1113.73
772.233	1061.17
772.284	1081.2
772.335	1094.97
772.386	1095.43
772.437	1092.12
772.488	1083.16
772.539	1075.14
772.59	1083.06
772.641	1072.19
772.692	1078.91
772.743	1061.73
772.794	1045.81
772.845	1066.69
772.896	1064.57
772.947	1099.16
772.998	1066.3
773.049	1072.62
773.1	1062.92
773.151	1067.29
773.202	1083.78
773.253	1067.22
773.304	1062.12
773.355	1044.09
773.406	1066.76
773.457	1057.63
773.508	1080.65
773.56	1050.48
773.611	1055.39
773.662	1035.5
773.713	1039.99
773.764	1062.93
773.815	1045.88
773.866	1028.86
773.917	1037.74
773.968	1038.6
774.019	1036.46
774.07	1032.72
774.121	1046.02
774.172	1034.76
774.223	1076.97
774.274	1048.94
774.325	1015.16
774.376	1029.14
774.427	1018.77
774.478	1035.66
774.529	1033.26
774.58	1021.61
774.631	1004.21
774.682	998.998
774.733	1013.28
774.784	1026.08
774.835	1018.56
774.886	1001.84
774.937	1021.69
774.988	1014.68
775.039	1018.41
775.09	1011.22
775.141	984.958
775.192	1003.39
775.243	1009.31
775.294	1001.34
775.345	1015.29
775.396	1011.03
775.447	993.794
775.498	1016.38
775.549	1010.49
775.6	998.007
775.651	1003.29
775.702	997.818
775.753	973.781
775.804	1004.13
775.855	979.66
775.906	980.34
775.957	992.498
776.008	966.151
776.059	992.006
776.11	990.427
776.161	978.839
776.212	977.952
776.263	971.276
776.314	994.037
776.365	1000
776.416	977.839
776.467	966.336
776.518	967.159
776.569	982.003
776.62	984.14
776.671	965.484
776.722	957.02
776.773	954.211
776.824	959.249
776.875	959.019
776.926	952.993
776.977	961.757
777.028	973.786
777.079	954.173
777.13	937.688
777.181	945.715
777.232	951.649
777.283	943.043
777.334	939.724
777.385	940.783
777.436	936.971
777.487	935.345
777.538	940.959
777.589	942.143
777.64	947.465
777.691	941.94
777.742	939.402
777.793	929.555
777.844	911.304
777.895	941.42
777.946	937.322
777.997	923.944
778.047	937.377
778.098	927.871
778.149	932.949
778.2	924.726
778.251	944.319
778.302	925.376
778.353	928.432
778.404	927.209
778.455	912.278
778.506	914.338
778.557	924.424
778.608	919.927
778.659	913.189
778.71	912.412
778.761	918.476
778.812	921.198
778.863	925.188
778.914	925.678
778.965	916.013
779.016	902.206
779.067	896.782
779.118	902.776
779.169	912.762
779.22	909.692
779.271	896.377
779.322	895.348
779.373	904.475
779.424	915.025
779.474	909.947
779.525	891.848
779.576	889.341
779.627	899.063
779.678	896.128
779.729	887.155
779.78	877.537
779.831	892.453
779.882	881.976
779.933	862.776
779.984	871.989
780.035	875.527
780.086	861.491
780.137	874.644
780.188	880.13
780.239	875.643
780.29	871.282
780.341	871.549
780.392	873.59
780.442	876.189
780.493	858.966
780.544	849.214
780.595	856.126
780.646	861.473
780.697	862.43
780.748	847.076
780.799	851.699
780.85	866.368
780.901	875.873
780.952	863.044
781.003	851.418
781.054	844.063
781.105	830.164
781.156	835.038
781.207	845.967
781.257	858.673
781.308	854.748
781.359	847.872
781.41	844.187
781.461	857.701
781.512	844.001
781.563	848.867
781.614	840.641
781.665	843.706
781.716	833.419
781.767	838.221
781.818	847.998
781.869	846.767
781.919	842.171
781.97	862.359
782.021	837.983
782.072	828.225
782.123	821.182
782.174	832.681
782.225	848.606
782.276	848.492
782.327	844.868
782.378	847.453
782.429	816.019
782.48	800.586
782.531	816.079
782.581	808.652
782.632	813.217
782.683	821.768
782.734	810.069
782.785	820.135
782.836	822.066
782.887	799.05
782.938	799.253
782.989	806.545
783.04	784.852
783.091	786.392
783.141	794.13
783.192	823.946
783.243	810.366
783.294	815.278
783.345	779.346
783.396	788.774
783.447	808.368
783.498	807.757
783.549	825.03
783.6	791.912
783.651	770.298
783.701	782.28
783.752	778.08
783.803	793.483
783.854	783.9
783.905	791.698
783.956	787.517
784.007	779.168
784.058	786.502
784.1	750
784.151	799.972
784.202	760.052
784.253	777.891
784.304	728.338
784.355	765.921
784.406	797.579
784.458	769.709
784.509	759.98
784.56	765.728
784.611	760.454
784.662	785.615
784.713	776.026
784.764	778.331
784.815	744.882
784.866	768.043
784.917	767.308
784.968	775.346
785.019	719.978
785.07	733.156
785.121	743.08
785.172	728.219
785.223	787.618
785.274	736.847
785.326	757.529
785.377	766.484
785.428	764.043
785.479	753.462
785.53	731.375
785.581	759.491
785.632	749.551
785.683	760.824
785.734	746.895
785.785	736.738
785.836	753.28
785.887	748.997
785.938	721.589
785.989	736.298
786.04	730.287
786.091	734.345
786.142	722.982
786.193	729.347
786.244	751.312
786.295	749.017
786.346	727.081
786.397	727.738
786.448	728.978
786.5	744.226
786.551	748.335
786.602	729.348
786.653	721.681
786.704	751.171
786.755	719.307
786.806	721.133
786.857	708.845
786.908	725.403
786.959	719.03
787.01	722.81
787.061	706.294
787.112	707.299
787.163	703.068
787.214	685.427
787.265	710.299
787.316	725.371
787.367	708.728
787.418	719.236
787.469	740.6
787.52	709.399
787.571	685.326
787.622	700.005
787.673	719.456
787.724	710.9
787.775	695.121
787.826	708.614
787.877	697.699
787.928	691.434
787.979	699.06
788.03	697.365
788.081	715.678
788.132	685.573
788.183	699.754
788.234	689.536
788.285	702.588
788.336	684.751
788.387	699.893
788.438	677.049
788.49	661.302
788.541	672.37
788.591	683.653
788.643	694.715
788.694	694.19
788.745	680.729
788.796	676.798
788.847	660.234
788.898	673.196
788.949	693.701
789	662.297
789.051	673.025
789.102	681.668
789.153	684.915
789.204	663.988
789.255	675.494
789.306	676.66
789.357	676.476
789.408	662.242
789.459	681.896
789.51	670.082
789.561	667.224
789.612	680.34
789.663	670.061
789.714	656.574
789.765	649.581
789.816	657.155
789.867	653.04
789.918	672.727
789.969	646.467
790.02	648.935
790.071	664.193
790.122	648.056
790.173	668.408
790.224	650.221
790.275	651.603
790.326	652.962
790.377	664.644
790.428	656.5
790.479	639.741
790.53	658.686
790.581	661.742
790.632	660.433
790.682	652.493
790.734	641.92
790.784	621.283
790.836	666.982
790.886	636.074
790.937	624.462
790.988	629.428
791.039	630.582
791.09	633.295
791.141	648.059
791.192	663.181
791.243	645.491
791.294	645.515
791.345	642.125
791.396	637.427
791.447	633.474
791.498	615.454
791.549	624.832
791.6	628.155
791.651	647.214
791.702	621.872
791.753	638.506
791.804	619.638
791.855	645.655
791.906	617.112
791.957	627.452
792.008	620.169
792.059	619.718
792.11	600.46
792.161	633.371
792.212	622.942
792.263	614.169
792.314	615.28
792.365	617.013
792.416	617.02
792.467	608.988
792.518	600.616
792.569	616.755
792.62	602.587
792.671	603.935
792.722	611.854
792.773	595.924
792.823	603.144
792.874	587.028
792.925	601.949
792.976	609.124
793.027	612.056
793.078	599.616
793.129	586.353
793.18	610.305
793.231	600.482
793.282	591.921
793.333	591.369
793.384	611.318
793.435	586.495
793.486	599.966
793.537	603.706
793.588	575.18
793.639	589.431
793.69	593.195
793.741	600.02
793.792	591.702
793.843	574.622
793.894	580.677
793.945	593.445
793.995	590.662
794.046	576.762
794.097	578.349
794.148	592.309
794.199	571.411
794.25	574.135
794.301	584.544
794.352	582.687
794.403	571.196
794.454	576.492
794.505	568.143
794.556	560.418
794.607	565.142
794.658	575.439
794.709	566.663
794.76	578.348
794.811	569.51
794.862	568.778
794.912	569.356
794.963	575.091
795.014	562.613
795.065	563.454
795.116	566.831
795.167	564.49
795.218	579.888
795.269	572.318
795.32	559.941
795.371	567.628
795.422	564.865
795.473	557.269
795.524	559.803
795.575	568.879
795.625	571.547
795.676	575.189
795.727	544.254
795.778	545.171
795.829	555.389
795.88	559.58
795.931	549.202
795.982	549.407
796.033	530.343
796.084	555.908
796.135	553.855
796.186	550.857
796.237	550.645
796.287	557.653
796.338	544.535
796.389	552.954
796.44	547.702
796.491	539.722
796.542	543.836
796.593	549.164
796.644	532.461
796.695	549.154
796.746	539.609
796.797	544.798
796.848	532.161
796.898	536.487
796.949	549.256
797	535.094
797.051	535.812
797.102	534.588
797.153	529.538
797.204	533.165
797.255	542.152
797.306	537.875
797.357	516.041
797.408	528.996
797.458	524.606
797.509	529.44
797.56	519.787
797.611	525.525
797.662	522.983
797.713	530.655
797.764	531.543
797.815	526.253
797.866	535.409
797.917	531.765
797.968	523.494
798.018	521.601
798.069	515.388
798.12	524.265
798.171	517.078
798.222	518
798.273	521.137
798.324	513.705
798.375	509.353
798.426	498.164
798.477	508.176
798.527	514.472
798.578	511.053
798.629	499.357
798.68	515.004
798.731	510.419
798.782	518.866
798.833	522.301
798.884	501.177
798.935	518.041
798.985	498.826
799.036	499.668
799.087	505.553
799.138	504.525
799.189	511.721
799.24	496.137
799.291	502.596
799.342	507.951
799.393	519.53
799.443	508.254
799.494	496.703
799.545	504.358
799.596	497.12
799.647	499.298
799.698	503.533
799.749	495.204
799.8	495.032
799.85	498.087
799.901	491.437
799.952	494.656
800.003	485.935
800.054	492.839
800.105	497.778
800.156	491.838
800.207	499.604
800.257	487.065
800.308	488.603
800.359	483.608
800.41	489.905
800.461	490
800.512	496.913
800.563	490.141
800.613	483.291
800.664	473.329
800.715	475.655
800.766	481.759
800.817	488.734
800.868	492.195
800.919	472.353
800.97	491.302
801.02	478.649
801.071	483.897
801.122	491.034
801.173	493.841
801.224	477.131
801.275	473.574
801.326	477.378
801.376	472.247
801.427	465.968
801.478	475.867
801.529	479.405
801.58	475.927
801.631	470.478
801.682	462.207
801.732	461.402
801.783	478.735
801.834	481.592
801.885	465.198
801.936	463.83
801.987	467.389
802.038	443.817
802.088	462.168
802.139	468.065
802.19	477.068
802.241	462.049
802.292	460.406
802.343	456.849
802.393	464.801
802.444	466.792
802.495	440.952
802.546	457.659
802.597	460.356
802.648	451.163
802.698	457.413
802.749	454.99
802.8	448.866
802.851	454.865
802.902	452.408
802.953	445.231
803.004	448.798
803.054	446.787
803.105	436.332
803.156	430.102
803.207	434.284
803.258	433.163
803.309	450.16
803.359	449.745
803.41	433.271
803.461	441.865
803.512	455.924
803.563	448.599
803.614	440.897
803.664	445.286
803.715	451.3
803.766	439.219
803.817	436.217
803.868	440.662
803.919	438.322
803.969	447.939
804.02	422.015
804.071	431.145
804.122	432.653
804.173	429.241
804.223	434.62
804.274	443.426
804.325	425.869
804.376	442.053
804.427	431.866
804.478	424.33
804.528	420.469
804.579	433.639
804.63	423.117
804.681	442.083
804.732	411.639
804.782	443.131
804.833	421.577
804.884	415.715
804.935	422.223
804.986	427.178
805.036	425.173
805.087	416.222
805.138	424.978
805.189	419.743
805.24	419.94
805.291	436.233
805.341	424.276
805.392	420.732
805.443	398.437
805.494	417.864
805.545	411.526
805.595	440.318
805.646	410.525
805.697	418.278
805.748	435.531
805.799	425.604
805.849	412.565
805.9	408.268
805.951	396.983
806.002	415.855
806.053	426.504
806.103	418.369
806.154	399.309
806.205	425.448
806.256	403.853
806.307	409.273
806.357	417.903
806.408	408.95
806.459	410.186
806.51	399.697
806.561	413.345
806.611	413.037
806.662	401.914
806.713	408.514
806.764	413.187
806.815	407.467
806.865	381.283
806.916	411.617
806.967	414.985
807.018	406.025
807.068	394.748
807.119	408.694
807.17	393.268
807.221	397.115
807.272	408.814
807.322	399.4
807.373	393.905
807.424	403.135
807.475	422.577
807.526	405.158
807.576	401.073
807.627	396.394
807.678	397.996
807.729	390.74
807.779	409.967
807.83	388.529
807.881	404.848
807.932	395.741
807.982	397.379
808.033	395.126
808.084	404.028
808.135	384.371
808.186	394.924
808.236	393.966
808.287	402.099
808.338	389.99
808.389	394.919
808.439	381.61
808.49	387.119
808.541	383.539
808.592	388.327
808.643	377.291
808.693	390.244
808.744	391.896
808.795	393.753
808.846	381.179
808.896	386.489
808.947	378.517
808.998	383.648
809.049	377.697
809.099	374.802
809.15	366.67
809.201	377.529
809.252	385.629
809.302	388.314
809.353	373.148
809.404	369.423
809.455	363.458
809.505	365.979
809.556	365.426
809.607	374.841
809.658	378.712
809.708	380.51
809.759	386.066
809.81	385.525
809.861	381.32
809.911	376.268
809.962	390.878
810.013	388.195
810.064	376.788
810.114	367.564
810.133	364
810.183	368
810.234	368.006
810.285	370.012
810.336	387.932
810.387	369.985
810.438	375.994
810.489	369.953
810.54	356.115
810.591	363.849
810.642	342.565
810.693	358.059
810.743	381.83
810.794	356.234
810.845	368.037
810.896	373.789
810.947	362.014
810.998	367.773
811.049	344.612
811.1	342.399
811.151	367.295
811.202	361.578
811.253	369.043
811.303	381.32
811.354	354.178
811.405	363.448
811.456	354.318
811.507	344.283
811.558	356.711
811.609	379.901
811.66	354.675
811.711	360.628
811.762	363.155
811.813	367.396
811.863	348.497
811.914	356.051
811.965	360.983
812.016	352.209
812.067	364.425
812.118	338.272
812.169	359.32
812.22	368.443
812.271	348.484
812.321	366.969
812.372	364.334
812.423	361.205
812.474	363.685
812.525	353.803
812.576	349.679
812.627	342.75
812.678	360.051
812.729	347.914
812.779	327.292
812.83	361.683
812.881	360.093
812.932	337.162
812.983	343.827
813.034	345.818
813.085	355.64
813.136	347.973
813.187	350.394
813.237	330.104
813.288	348.81
813.339	342.127
813.39	337.92
813.441	343.532
813.492	329.46
813.543	328.358
813.594	337.585
813.644	338.948
813.695	340.542
813.746	325.371
813.797	339.109
813.848	339.933
813.899	333.973
813.95	346.294
814.001	336.031
814.051	344.956
814.102	341.677
814.153	336.129
814.204	350.363
814.255	331.242
814.306	339.263
814.357	323.426
814.408	331.532
814.458	332.582
814.509	321.505
814.56	317.976
814.611	328.03
814.662	315.268
814.713	330.88
814.764	330.837
814.814	347.537
814.865	319.834
814.916	311.771
814.967	344.359
815.018	336.135
815.069	331.266
815.12	308.001
815.17	341.119
815.221	310.209
815.272	336.698
815.323	311.584
815.374	327.45
815.425	329.785
815.476	312.022
815.526	338.068
815.577	307.525
815.628	321.38
815.679	315.657
815.73	336.967
815.781	330.293
815.832	333.124
815.882	305.466
815.933	317.56
815.984	310.088
816.035	320.767
816.086	292.572
816.137	299.268
816.188	314.538
816.238	321.891
816.289	312.367
816.34	314.972
816.391	325.66
816.442	314.666
816.493	320.272
816.543	318.305
816.594	311.332
816.645	311.435
816.696	299.651
816.747	300.764
816.798	301.18
816.848	293.706
816.899	309.051
816.95	318.574
817.001	310.057
817.052	304.758
817.103	317.759
817.153	302.528
817.204	301.777
817.255	311.832
817.306	310.707
817.357	299.828
817.408	291.234
817.458	305.115
817.509	304.486
817.56	300.407
817.611	305.358
817.662	306.399
817.713	299.966
817.763	297.103
817.814	309.336
817.865	301.367
817.916	305.108
817.967	310.663
818.018	306.458
818.068	299.813
818.119	296.555
818.17	283.419
818.221	303.442
818.272	298.829
818.323	287.834
818.373	304.884
818.424	289.103
818.475	294.813
818.526	301.208
818.577	289.052
818.627	305.021
818.678	295.725
818.729	278.59
818.78	295.609
818.831	298.273
818.881	287.602
818.932	289.13
818.983	289.108
819.034	298.069
819.085	275.313
819.135	283.684
819.186	286.469
819.237	290.599
819.288	273.082
819.339	285.495
819.39	280.007
819.44	287.204
819.491	285.08
819.542	292.263
819.593	269.332
819.644	296.548
819.694	293.096
819.745	294.915
819.796	284.855
819.847	288.854
819.898	275.184
819.948	284.278
819.999	280.691
820.05	281.536
820.101	275.717
820.152	282.452
820.202	285.862
820.253	284.336
820.304	285.554
820.355	276.818
820.406	272.545
820.456	283.311
820.507	271.972
820.558	277.186
820.609	279.667
820.66	270.96
820.71	270.464
820.761	283.15
820.812	276.517
820.863	278.137
820.914	283.911
820.964	273.909
821.015	272.975
821.066	281.257
821.117	271.803
821.167	262.137
821.218	281.593
821.269	273.455
821.32	267.475
821.371	266.327
821.421	268.052
821.472	276.293
821.523	258.642
821.574	267.104
821.624	278.201
821.675	275.714
821.726	274.339
821.777	268.101
821.828	258.178
821.878	272.491
821.929	276.585
821.98	271.443
822.031	261.951
822.081	282.94
822.132	267.234
822.183	252.563
822.234	262.471
822.285	258.727
822.335	261.522
822.386	262.376
822.437	268.214
822.488	265.468
822.538	267.848
822.589	259.571
822.64	257.769
822.691	278.934
822.741	262.263
822.792	266.843
822.843	270.963
822.894	254.33
822.945	253.909
822.995	274.59
823.046	265.926
823.097	255.006
823.148	256.679
823.198	248.356
823.249	259.613
823.3	237.335
823.351	262.007
823.401	255.926
823.452	255
823.503	258.977
823.554	263.757
823.604	257.735
823.655	256.733
823.706	254.122
823.757	264.036
823.807	251.911
823.858	254.949
823.909	253.788
823.96	255.758
824.01	246.63
824.061	243.157
824.112	242.528
824.163	246.169
824.213	249.315
824.264	253.714
824.315	243.007
824.366	257.647
824.416	231.439
824.467	249.444
824.518	258.626
824.569	247.985
824.619	246.061
824.67	248.379
824.721	256.581
824.772	242.974
824.822	237.451
824.873	244.751
824.924	252.905
824.974	241.676
825.025	242.442
825.076	248.916
825.127	249.322
825.177	243.744
825.228	241.982
825.279	246.345
825.33	250.722
825.38	238.178
825.431	249.638
825.482	245.186
825.533	232.127
825.583	238.225
825.634	236.365
825.685	242.553
825.735	238.996
825.786	230.689
825.837	247.052
825.888	247.848
825.938	237.207
825.989	242.483
826.04	236.762
826.091	254.362
826.141	241.504
826.192	245.434
826.243	234.705
826.293	242.69
826.344	245.941
826.395	239.249
826.446	234.852
826.496	242.29
826.547	249.39
826.598	243.787
826.648	239.508
826.699	244.718
826.75	239.475
826.801	229.667
826.851	238.704
826.902	237.59
826.953	239.566
827.003	237.324
827.054	224.404
827.105	236.479
827.156	236.964
827.206	238.076
827.257	232.687
827.308	229.255
827.358	235.518
827.409	240.051
827.46	230.149
827.511	232.167
827.561	229.535
827.612	232.057
827.663	231.133
827.713	224.703
827.764	234.07
827.815	231.507
827.865	238.914
827.916	233.609
827.967	228.252
828.018	232.897
828.068	226.232
828.119	224.51
828.17	231.49
828.22	228.762
828.271	217.716
828.322	226.047
828.372	223.193
828.423	225.576
828.474	225.256
828.525	218.862
828.575	226.39
828.626	227.846
828.677	233.694
828.727	225.325
828.778	223.571
828.829	226.451
828.879	226.141
828.93	221.482
828.981	228.34
829.031	220.121
829.082	223.756
829.133	226.603
829.183	228.969
829.234	223.256
829.285	227.061
829.336	215.669
829.386	225.11
829.437	222.706
829.488	225.94
829.538	222.114
829.589	221.335
829.64	222.878
829.69	226.418
829.741	222.571
829.792	204.951
829.842	210.019
829.893	215.296
829.944	216.058
829.994	208.744
830.045	212.887
830.096	226.979
830.146	217.021
830.197	210.142
830.248	208.786
830.298	206.743
830.349	211.374
830.4	216.708
830.45	217.094
830.501	216
830.552	214.703
830.602	215.653
830.653	227.066
830.704	218.041
830.754	214.138
830.805	219.601
830.856	215.484
830.906	222.098
830.957	220.512
831.008	214.397
831.058	216.373
831.109	212.794
831.16	210.882
831.21	209.71
831.261	212.828
831.312	218.24
831.362	216.89
831.413	215.577
831.464	211.354
831.514	205.877
831.565	211.621
831.616	212.699
831.666	217.051
831.717	209.848
831.767	207.024
831.818	204.669
831.869	208.094
831.919	208.693
831.97	210
832.021	215.449
832.071	208.691
832.122	199.591
832.173	200.108
832.223	199.395
832.274	207.46
832.325	206.808
832.375	199.906
832.426	199.268
832.477	199.065
832.527	205.949
832.578	207.359
832.628	196.598
832.679	207.07
832.73	215.646
832.78	205.264
832.831	199.918
832.882	210.665
832.932	210.898
832.983	207.397
833.034	199.739
833.084	195.471
833.135	208.836
833.185	208.375
833.236	205.917
833.287	202.415
833.337	199.44
833.388	199.958
833.439	209.22
833.489	211.449
833.54	213.05
833.59	211.068
833.641	206.064
833.692	201.233
833.742	202.372
833.793	206.053
833.844	208.61
833.894	191.116
833.945	191.801
833.995	202.363
834.046	198.601
834.097	196.655
834.147	201.072
834.198	200.161
834.249	198.091
834.299	196.705
834.35	199.744
834.4	195.971
834.451	200.366
834.502	195.852
834.552	189.398
834.603	186.099
834.653	198.401
834.704	190.604
834.755	186.649
834.805	197.963
834.856	193.708
834.906	188.288
834.957	189.993
835.008	197.042
835.058	202.502
835.109	188.073
835.16	199.103
835.21	200.548
835.261	202.757
835.311	189.881
835.362	198.487
835.413	202.688
835.463	181.269
835.514	196.417
835.564	203.155
835.615	201.682
835.666	202.694
835.716	192.112
835.767	210.101
835.817	201.576
835.868	195.298
835.919	197.815
835.969	191.708
836.02	192.565
836.07	175.771
836.121	189.994
836.161	190
836.212	192
836.263	182.012
836.314	187.998
836.365	199.883
836.415	191.989
836.466	189.935
836.517	191.923
836.568	215.66
836.618	184.159
836.669	191.906
836.72	183.97
836.771	203.548
836.821	191.739
836.872	183.825
836.923	203.678
836.974	191.622
837.024	191.692
837.075	174.474
837.126	176.053
837.177	195.541
837.227	184.194
837.278	184.179
837.329	194.005
837.38	185.364
837.43	187.386
837.481	187.448
837.532	191.503
837.583	191.351
837.633	191.811
837.684	176.809
837.735	191.37
837.786	183.465
837.836	180.63
837.887	183.734
837.938	187.562
837.989	185.372
838.039	172.846
838.09	184.079
838.141	192.948
838.192	186.922
838.242	185.803
838.293	186.419
838.344	194.229
838.395	174.381
838.445	187.149
838.496	182.018
838.547	175.513
838.598	190.79
838.648	177.957
838.699	174.198
838.75	176.446
838.801	177.093
838.851	178.951
838.902	177.563
838.953	168.78
839.003	178.357
839.054	180.508
839.105	174.885
839.156	180
839.206	177.366
839.257	191.54
839.308	169.821
839.359	197.677
839.409	186.07
839.46	191.41
839.511	168.847
839.562	182.39
839.612	176.793
839.663	179.588
839.714	175.072
839.764	173.018
839.815	171.62
839.866	178.632
839.917	174.703
839.967	179.047
840.018	178.25
840.069	173.474
840.119	165.198
840.17	183.327
840.221	172.557
840.272	171.681
840.322	175.691
840.373	169.979
840.424	179.061
840.474	185.961
840.525	177.033
840.576	182.404
840.627	172.854
840.677	176.95
840.728	171.507
840.779	171.903
840.829	182.17
840.88	172.496
840.931	173.597
840.982	189.038
841.032	171.505
841.083	180.543
841.134	164.022
841.184	185.191
841.235	170.738
841.286	169.409
841.337	173.309
841.387	165.815
841.438	171.863
841.489	157.075
841.539	173.745
841.59	183.224
841.641	175.962
841.691	176.724
841.742	172.278
841.793	163.396
841.844	164.304
841.894	166.849
841.945	167.979
841.996	160.226
842.046	172.185
842.097	173.503
842.148	163.591
842.198	178.595
842.249	167.885
842.3	166.301
842.351	170.985
842.401	162.999
842.452	170.731
842.503	175.938
842.553	153.533
842.604	162.871
842.655	170.722
842.705	174.361
842.756	160.422
842.807	172.229
842.857	174.574
842.908	166.342
842.959	153.159
843.009	163.174
843.06	166.65
843.111	162.072
843.161	172.413
843.212	165.312
843.263	157.542
843.314	168.056
843.364	163.993
843.415	157.161
843.466	166.785
843.516	166.229
843.567	166.627
843.618	154.739
843.668	167.427
843.719	168.765
843.77	165.8
843.82	162.7
843.871	167.829
843.922	154.251
843.972	155.875
844.023	169.411
844.074	159.471
844.124	164.137
844.175	162.194
844.226	155.787
844.276	165.496
844.327	164.879
844.378	157.106
844.428	161.59
844.479	155.501
844.53	157.395
844.58	156.822
844.631	157.823
844.682	160.378
844.732	159.78
844.783	155.072
844.834	160.008
844.884	150.856
844.935	165.581
844.986	167.356
845.036	158.607
845.087	156.938
845.138	155.113
845.188	158.302
845.239	157.649
845.29	154.613
845.34	154.364
845.391	147.324
845.442	152.622
845.492	151.824
845.543	160.153
845.594	157.424
845.644	149.738
845.695	153.912
845.745	159.199
845.796	162.079
845.847	162.861
845.897	149.373
845.948	148.998
845.999	157.546
846.049	146.752
846.1	163.239
846.151	154.684
846.201	148.958
846.252	155.204
846.303	156.702
846.353	150.034
846.404	149.612
846.455	148.298
846.505	158.18
846.556	152.423
846.606	155.331
846.657	160.454
846.708	165.151
846.758	150.357
846.809	156.404
846.86	161.84
846.91	142.804
846.961	152.509
847.012	155.533
847.062	150.256
847.113	146.76
847.163	151.058
847.214	150.765
847.265	148.614
847.315	153.949
847.366	144.392
847.417	146.843
847.467	155.829
847.518	142.639
847.568	154.53
847.619	151.475
847.67	153.729
847.72	140.113
847.771	151.336
847.822	152.797
847.872	142.789
847.923	152.222
847.973	152.962
848.024	147.447
848.075	140.036
848.125	147.237
848.176	143.065
848.227	148.702
848.277	146.179
848.328	145.519
848.378	147.585
848.429	148.872
848.48	146.649
848.53	145.916
848.581	149.892
848.631	145.583
848.682	142.292
848.733	146.585
848.783	150.347
848.834	148.11
848.885	147.452
848.935	144.452
848.986	143.634
849.036	158.276
849.087	145.286
849.138	143.478
849.188	144.354
849.239	149.811
849.289	141.875
849.34	138.13
849.391	140.777
849.441	147.024
849.492	141.117
849.542	142.852
849.593	134.359
849.644	151.009
849.694	143.984
849.745	135.219
849.795	146.914
849.846	137.801
849.897	148.128
849.947	140.916
849.998	143.481
850.048	137.658
850.099	144.415
850.15	140.301
850.2	135.863
850.251	145.192
850.301	141.279
850.352	142.18
850.403	142.926
850.453	133.917
850.504	141.336
850.554	134.924
850.605	142.052
850.656	135.64
850.706	136.773
850.757	141.141
850.807	132.629
850.858	135.993
850.908	139.12
850.959	136.181
851.01	141.373
851.06	150.929
851.111	144.237
851.161	131.762
851.212	131.065
851.263	129.749
851.313	138.964
851.364	133.096
851.414	139.528
851.465	133.699
851.515	140.253
851.566	145.827
851.617	136.701
851.667	139.146
851.718	134.341
851.768	136.126
851.819	131.739
851.869	148.138
851.92	134.382
851.971	138.718
852.021	144.342
852.072	136.374
852.122	136.959
852.173	141.193
852.223	132.825
852.274	140.843
852.325	139.417
852.375	138.534
852.426	134.883
852.476	136.425
852.527	129.643
852.577	137.621
852.628	133.618
852.678	142.861
852.729	127.805
852.78	133.661
852.83	134.155
852.881	144.382
852.931	129.833
852.982	136.461
853.032	129.096
853.083	138.471
853.133	132.886
853.184	136.257
853.235	133.898
853.285	134.311
853.336	131.616
853.386	127.734
853.437	134.402
853.487	133.335
853.538	137.024
853.588	129.555
853.639	133.201
853.69	137.857
853.74	132.207
853.791	133.782
853.841	131.594
853.892	131.982
853.942	133.512
853.993	129.016
854.043	128.886
854.094	139.043
854.144	138.659
854.195	131.354
854.246	123.673
854.296	134.919
854.347	125.485
854.397	132.809
854.448	134.007
854.498	135.013
854.549	123.654
854.599	130.532
854.65	130.993
854.7	131.87
854.751	127.999
854.801	130.002
854.852	135.117
854.902	132.575
854.953	123.471
855.004	120.767
855.054	130.914
855.105	130.495
855.155	132.926
855.206	132.912
855.256	125.96
855.307	119.486
855.357	129.013
855.408	124.604
855.458	123.603
855.509	119.543
855.559	126.283
855.61	123.787
855.66	125.683
855.711	123.243
855.761	122.546
855.812	124.801
855.862	124.754
855.913	129.041
855.964	126.215
856.014	124.943
856.065	128.819
856.115	128.408
856.166	123.37
856.216	123.069
856.267	128
856.317	130.267
856.368	131.49
856.418	128.357
856.469	125.127
856.519	120.181
856.57	118.752
856.62	115.39
856.671	121.615
856.721	128.422
856.772	124.555
856.822	120.653
856.873	124.938
856.923	125.64
856.974	121.834
857.024	119.904
857.075	121.215
857.125	120.209
857.176	121.385
857.226	122.269
857.277	125.329
857.327	123.819
857.378	119.142
857.428	118.825
857.479	119.814
857.529	121.827
857.58	113.999
857.63	116.004
857.681	126.901
857.731	129.128
857.782	123.514
857.832	120.167
857.883	122.756
857.933	124.753
857.984	122.376
858.034	117.57
858.085	118.779
858.135	119.542
858.186	117.407
858.236	118.748
858.287	121.36
858.337	117.912
858.388	118.23
858.438	114.999
858.489	114.278
858.539	120.769
858.589	127.856
858.64	120.426
858.69	117.585
858.741	120.255
858.791	123.492
858.842	119.739
858.892	122.49
858.943	118.129
858.993	113.752
859.044	115.863
859.094	124.654
859.145	124.096
859.195	116.351
859.246	115.15
859.296	115.515
859.347	115.61
859.397	114.736
859.448	116.746
859.498	122.013
859.549	112.814
859.599	112.46
859.649	114.487
859.7	119.549
859.75	122.477
859.801	119.714
859.851	116.59
859.902	120.574
859.952	115.834
860.003	113.773
860.053	110.479
860.104	112.044
860.154	120.633
860.205	118.18
860.255	108.466
860.305	112.778
860.356	119.069
860.406	115.186
860.457	120.483
860.507	122.478
860.558	114.946
860.608	112.63
860.659	111.606
860.709	116.448
860.76	108.846
860.81	102.295
860.861	109.168
860.911	110.428
860.961	114.846
861.012	109.369
861.062	108.133
861.113	120.805
861.163	112.764
861.214	112.251
861.264	118.876
861.315	113.725
861.365	112.336
861.415	119.508
861.466	108.57
861.516	115.531
861.567	113.578
861.617	112.149
861.668	111.165
861.718	108.147
861.769	108.978
861.819	112
861.869	113.736
861.92	119.904
861.97	116.628
862.021	106.506
862.071	116.81
862.112	119.99
862.162	113.996
862.213	117.968
862.263	125.908
862.314	109.991
862.365	106.013
862.415	117.811
862.466	115.838
862.516	119.72
862.567	98.2406
862.618	104.212
862.668	113.901
862.719	100.224
862.77	114.115
862.82	112.238
862.871	112.11
862.921	108.041
862.972	113.927
863.023	98.4385
863.073	109.936
863.124	109.908
863.174	115.967
863.225	110.275
863.276	113.804
863.326	115.943
863.377	115.751
863.427	106.07
863.478	112.012
863.529	117.47
863.579	111.54
863.63	106.077
863.68	107.989
863.731	117.309
863.782	111.245
863.832	115.243
863.883	111.843
863.933	114.759
863.984	105.672
864.034	110.315
864.085	120.807
864.136	109.551
864.186	104.814
864.237	109.986
864.287	115.069
864.338	118.874
864.389	105.909
864.439	109.548
864.49	110
864.54	110.189
864.591	102.775
864.642	111.703
864.692	113.501
864.743	113.684
864.793	107.824
864.844	101.88
864.894	109.248
864.945	110.586
864.996	105.616
865.046	100.395
865.097	106.501
865.147	101.273
865.198	121.431
865.248	119.41
865.299	101.321
865.35	112.717
865.4	106.455
865.451	108.319
865.501	103.107
865.552	102.763
865.603	100.695
865.653	102.867
865.704	105.564
865.754	104.534
865.805	86.4279
865.855	99.7351
865.906	103.756
865.956	115.93
866.007	108.302
866.058	103.349
866.108	102.422
866.159	112.674
866.209	100.63
866.26	106.184
866.31	111.774
866.361	102.42
866.412	95.1781
866.462	108.056
866.513	108.388
866.563	109.655
866.614	97.3101
866.664	116.028
866.715	103.287
866.766	99.737
866.816	102.937
866.867	104.159
866.917	110.699
866.968	100.043
867.018	99.5026
867.069	108.199
867.119	104.848
867.17	106.275
867.22	101.97
867.271	107.068
867.322	108.257
867.372	103.014
867.423	105.635
867.473	100.607
867.524	108.685
867.574	104.46
867.625	100.159
867.675	104.955
867.726	99.4319
867.776	105.368
867.827	97.2913
867.878	106.115
867.928	96.8347
867.979	99.9362
868.029	97.3114
868.08	107.275
868.13	104.675
868.181	102.382
868.231	99.518
868.282	105.695
868.332	104.463
868.383	100.971
868.433	94.4199
868.484	95.8717
868.535	97.9019
868.585	100.123
868.636	97.3876
868.686	91.9125
868.737	94.9654
868.787	90.9581
868.838	95.3721
868.888	105.41
868.939	106.559
868.989	93.4298
869.04	96.0228
869.09	105.478
869.141	98.4883
869.191	98.6659
869.242	92.3549
869.292	106.198
869.343	90.9747
869.394	92.7488
869.444	98.2982
869.495	93.6577
869.545	100.41
869.596	102.6
869.646	98.5019
869.697	104.568
869.747	98.2163
869.798	97.2464
869.848	91.2336
869.899	102.498
869.949	96.2175
870	97.3869
870.05	92.05
870.101	94.2189
870.151	92.4289
870.202	93.9027
870.252	98.8519
870.303	98.8324
870.353	98.0079
870.404	94.0334
870.454	96.7997
870.505	98.7901
870.555	95.4807
870.606	92.6839
870.656	99.7293
870.707	101.347
870.757	87.97
870.808	95.2664
870.858	99.9708
870.909	92.8328
870.959	90.5625
871.01	95.9201
871.06	96.0709
871.111	98
871.161	102.167
871.212	100.75
871.262	102.392
871.313	90.0111
871.363	95.4358
871.414	96.1579
871.464	99.7212
871.515	97.6374
871.565	97.9205
871.616	93.1442
871.666	101.858
871.717	99.4981
871.767	89.0136
871.818	86.6238
871.868	85.1348
871.919	103.194
871.969	85.9853
872.02	96.6692
872.07	100.699
872.121	95.4079
872.171	88.0253
872.222	93.7228
872.272	94.7023
872.323	96.5642
872.373	80.9935
872.424	91.3374
872.474	100.727
872.525	90.4287
872.575	94.4171
872.626	95.1793
872.676	93.5458
872.727	97.3393
872.777	88.9195
872.828	93.7783
872.878	95.5531
872.929	91.858
872.979	94.7641
873.03	99.1376
873.08	89.0759
873.13	91.1852
873.181	88.5502
873.231	99.1482
873.282	88.479
873.332	91.4342
873.383	90.8951
873.433	91.621
873.484	102.531
873.534	100.931
873.585	91.6986
873.635	92.9445
873.686	94.2677
873.736	91.948
873.787	90.1343
873.837	89.6087
873.888	86.2495
873.938	93.039
873.988	84.9523
874.039	89.2555
874.089	96.7956
874.14	85.0674
874.19	94.9322
874.241	92.4027
874.291	86.6188
874.342	86.3453
874.392	92.868
874.443	82.2918
874.493	87.7893
874.544	87.0292
874.594	84.6127
874.644	89.3891
874.695	85.2913
874.745	91.4202
874.796	89.4311
874.846	86.5727
874.897	94.8032
874.947	90.2815
874.998	82.8885
875.048	90.0953
875.099	89.6904
875.149	87.4507
875.199	88.108
875.25	88.9299
875.3	87.2633
875.351	92.4286
875.401	86.0546
875.452	89.5799
875.502	86.6283
875.553	84.1559
875.603	89.6958
875.653	92.7413
875.704	93.0506
875.754	86.2005
875.805	83.9528
875.855	90.7022
875.906	87.9091
875.956	87.1858
876.006	88.3719
876.057	91.7739
876.107	86.9919
876.158	82.2423
876.208	84.6645
876.259	84.9064
876.309	86.8287
876.36	81.7409
876.41	91.5214
876.46	94.0506
876.511	91.9522
876.561	84.6357
876.612	84.8697
876.662	91.1371
876.713	90.4343
876.763	82.7693
876.813	83.6823
876.864	89.6933
876.914	91.8053
876.965	78.6552
877.015	87.7156
877.065	87.2907
877.116	85.511
877.166	81.9679
877.217	90.0167
877.267	86.4791
877.318	84.704
877.368	82.0104
877.418	85.9162
877.469	90.0077
877.519	91.1612
877.57	90.9037
877.62	93.9479
877.671	89.6444
877.721	85.4835
877.771	78.5029
877.822	91.2698
877.872	88.4233
877.923	85.5254
877.973	83.5799
878.023	87.1855
878.074	86.2073
878.124	80.8934
878.175	79.4822
878.225	84.9375
878.276	79.715
878.326	82.3088
878.376	84.2447
878.427	86.1462
878.477	83.2095
878.528	82.731
878.578	85.0284
878.628	81.2963
878.679	80.0078
878.729	80.5036
878.78	84.1622
878.83	85.9287
878.88	76.7037
878.931	79.5718
878.981	81.6293
879.031	82.7677
879.082	80.0925
879.132	78.3984
879.183	80.2022
879.233	77.6928
879.284	82.3959
879.334	80.3121
879.384	81.7597
879.435	81.8544
879.485	82
879.535	83.6807
879.586	81.0099
879.636	87.9357
879.687	83.9782
879.737	76.3993
879.787	77.6734
879.838	81.3805
879.888	78.8797
879.939	81.9201
879.989	83.081
880.039	80.6634
880.09	81.4226
880.14	79.1795
880.19	74.5194
880.241	79.8292
880.291	80.9591
880.342	77.5439
880.392	80.6588
880.442	84.272
880.493	81.3375
880.543	81.7824
880.594	83.5654
880.644	81.9802
880.694	76.4431
880.745	78.7172
880.795	78.9195
880.845	84.4872
880.896	85.6545
880.946	78
880.996	81.192
881.047	84.8027
881.097	83.0612
881.148	81.9191
881.198	82.4745
881.248	83.1283
881.299	80.3672
881.349	75.0704
881.399	82.6048
881.45	80.6278
881.5	78.6815
881.551	77.1804
881.601	78.5104
881.651	83.5889
881.702	81.5361
881.752	78.6022
881.802	78.7124
881.853	78.1508
881.903	79.7858
881.953	75.4176
882.004	84.6524
882.054	82.3737
882.104	78.0734
882.155	73.825
882.205	75.0743
882.256	70.4025
882.306	78.3355
882.356	76.8876
882.407	85.4709
882.457	79.3938
882.507	75.0108
882.558	78.8328
882.608	85.4929
882.658	78.4139
882.709	75.9478
882.759	72.5597
882.809	74.547
882.86	80.3062
882.91	83.6301
882.96	74.5984
883.011	72.5294
883.061	72.1853
883.111	73.7347
883.162	74.768
883.212	77.2641
883.262	77.2451
883.313	80.2581
883.363	77.8109
883.413	76.6171
883.464	73.0326
883.514	76.1223
883.565	73.6342
883.615	77.8905
883.665	79.7073
883.716	79.3782
883.766	73.7021
883.816	81.1079
883.867	74.8154
883.917	75.6024
883.967	77.6039
884.017	78.023
884.068	77.5646
884.118	79.2726
884.168	81.3023
884.219	79.7018
884.269	80.5048
884.319	75.6234
884.37	75.6147
884.42	77.2732
884.47	75.2821
884.521	72.5464
884.571	76.7854
884.621	81.5615
884.672	75.6184
884.722	70.6765
884.772	72.0261
884.823	70.6015
884.873	77.3554
884.923	75.4857
884.974	69.4919
885.024	75.0493
885.074	74.1034
885.125	69.1375
885.175	77.7855
885.225	80.2038
885.276	75.9962
885.326	70.9241
885.376	83.0991
885.426	79.0536
885.477	67.1236
885.527	68.385
885.577	76.7526
885.628	79.5381
885.678	74.9996
885.728	70.3769
885.779	71.9475
885.829	74.3171
885.879	71.9454
885.93	74
885.98	74.1139
886.03	71.352
886.08	79.3172
886.131	61.9637
886.181	79.0868
886.231	78.5137
886.282	70.0963
886.332	73.9381
886.382	75.9175
886.432	72.2027
886.483	71.6697
886.533	70.1885
886.583	75.3311
886.634	68.3618
886.684	67.6495
886.734	69.2891
886.785	79.5909
886.835	69.5914
886.885	83.5711
886.935	64.527
886.986	73.5803
887.036	78.148
887.086	69.5616
887.137	68.7477
887.187	74.3154
887.237	77.4223
887.287	70.2321
887.338	71.6939
887.388	70.0809
887.438	79.514
887.489	62.3831
887.539	75.7027
887.589	68.2234
887.639	60.2295
887.69	75.6791
887.74	72.0665
887.79	70.2389
887.841	77.6861
887.891	62.4922
887.941	71.6964
887.943	72.003
887.993	85.8655
888.044	74.0036
888.094	66.0512
888.144	64.0358
888.195	67.888
888.245	75.9604
888.296	70.059
888.346	65.893
888.397	69.7133
888.447	73.7191
888.498	70.1037
888.548	62.4438
888.599	68.0446
888.649	73.7378
888.699	62.0918
888.75	73.4674
888.8	75.4366
888.851	70
888.901	71.7195
888.952	75.1651
889.002	67.8216
889.053	74.8808
889.103	68.0763
889.153	73.0879
889.204	76.7301
889.254	73.7718
889.305	64.804
889.355	69.6093
889.406	70.9875
889.456	72.541
889.507	66.7656
889.557	77.2179
889.607	73.5083
889.658	74.9161
889.708	65.5933
889.759	71.9148
889.809	68.4922
889.86	72.3278
889.91	66.9904
889.96	72.352
890.011	66.8624
890.061	69.0942
890.112	60.4625
890.162	67.8105
890.213	67.3597
890.263	75.623
890.313	65.1287
890.364	66.5724
890.414	63.037
890.465	68.8163
890.515	59.446
890.566	71.2906
890.616	69.4479
890.666	70.5176
890.717	65.2274
890.767	75.1563
890.818	67.616
890.868	70.8087
890.919	63.6944
890.969	67.9597
891.019	69.9815
891.07	70.1136
891.12	58.5353
891.171	68.8403
891.221	65.4055
891.271	70.1543
891.322	68.7006
891.372	73.1206
891.423	74.7906
891.473	68.7859
891.523	57.8093
891.574	69.3758
891.624	71.4284
891.675	65.8653
891.725	62.6867
891.776	72.6871
891.826	68.239
891.876	67.7132
891.927	59.241
891.977	66.9001
892.028	72.2068
892.078	63.5019
892.128	64.8457
892.179	63.5724
892.229	59.8545
892.28	70.5525
892.33	66.5626
892.38	64.92
892.431	62.6621
892.481	64.6769
892.532	67.6174
892.582	68.5139
892.632	67.8873
892.683	65.0538
892.733	65.0213
892.784	64.7825
892.834	69.858
892.884	65.9322
892.935	67.6309
892.985	63.4995
893.036	70.788
893.086	72.0415
893.136	66.7039
893.187	68.8443
893.237	66.1399
893.288	69.845
893.338	68.4962
893.388	71.2278
893.439	71.4149
893.489	64.8013
893.539	64.2656
893.59	63.2494
893.64	63.9311
893.691	59.9353
893.741	60.2729
893.791	68.0003
893.842	62.0903
893.892	61.7228
893.943	58.2029
893.993	72.907
894.043	62.0652
894.094	62.942
894.144	58.0386
894.194	68.9928
894.245	66.0145
894.295	66.9903
894.346	61.0254
894.396	62.9879
894.446	61.942
894.497	62.9638
894.547	64.1739
894.597	64.9034
894.648	59.0798
894.698	58.9094
894.749	67
894.799	64.9275
894.849	58.2391
894.9	65.7826
894.95	53.2754
895	64.5544
895.051	66.312
895.101	58.9444
895.151	61
895.202	63.7536
895.252	70.0652
895.303	60.2065
895.353	66
895.403	64
895.454	65.157
895.504	57.9179
895.554	64.7461
895.605	63.913
895.655	57.6341
895.706	61.529
895.756	62.3869
895.806	61.6993
895.857	64.7923
895.907	62
895.957	64.2198
896.008	68.4324
896.058	63.2322
896.108	56.1957
896.159	60.3894
896.209	61.4976
896.259	57.3877
896.31	60.8682
896.36	63.8647
896.41	68.5865
896.461	63.285
896.511	63.2923
896.561	60.5949
896.612	61.6304
896.662	60.9287
896.713	57.6836
896.763	59.6433
896.813	59.343
896.864	65.4958
896.914	59.686
896.964	63.4776
897.015	59.5326
897.065	60.6397
897.115	63
897.166	65.3748
897.216	59.5695
897.266	61.6473
897.317	55.1826
897.367	61.599
897.417	56.4063
897.468	64.3797
897.518	60.0507
897.568	66.0846
897.619	66.6493
897.669	62.2198
897.719	55.3349
897.77	67.0605
897.82	63.6063
897.87	61.7666
897.921	59.9432
897.971	66.087
898.021	64.4583
898.072	65.5091
898.122	53.7437
898.172	62.2331
898.223	65
898.273	52.5526
898.323	56.7376
898.374	66.1463
898.424	62.808
898.474	55.2721
898.524	55.9299
898.575	55.0532
898.625	58.8452
898.675	60.4317
898.726	58
898.776	58.1691
898.826	56.8198
898.877	57.7013
898.927	61.5054
898.977	60.867
899.028	62.5417
899.078	59.4462
899.128	61.2576
899.179	60.046
899.229	64.0774
899.279	61.9166
899.33	60.6723
899.38	57.6687
899.43	57.0012
899.48	55.9879
899.531	58
899.581	62
899.631	66.3059
899.682	63
899.732	61.3543
899.782	60.3579
899.833	61.6385
899.883	56.8198
899.933	62.2648
899.984	56.6295
