#Acq. time (s)=	3
#Accumulations=	2
#Range (nm)=	520...900
#Windows=	16
#Auto scanning=	On
#Autofocus=	Off
#AutoExposure=	Off
#Spike filter=	Multiple accum.
#Delay time (s)=	0
#Binning=	1
#Readout mode=	Signal
#DeNoise=	Off
#ICS correction=	Off
#Dark correction=	Off
#Inst. Process=	Off
#Detector temperature (°C)=	-59.98
#Instrument=	LabRAM HR Evol
#Detector=	Syncerity OE
#Objective=	x50_VIS
#Grating=	600 (500nm)
#ND Filter=	10%
#Laser=	514nm_Edge
#Hole=	199.981
#Range=	Auto
#StageXY=	Marzhauser
#StageZ=	Marzhauser
#X (µm)=	-3464.9
#Y (µm)=	-1556.1
#Z (µm)=	307.6
#Full time(mm:ss)=	2:39
#Project=	
#Sample=	
#Site=	
#Title=	PL_230124_Amostra_branca_sem_semente_HPHT_sem_polir
#Remark=	
#Date=	31.01.2024 11:35
#Acquired=	31.01.2024 11:35:10
520.042	43
520.094	42
520.147	42.0908
520.199	38
520.251	36.1465
520.304	38.8463
520.356	38.3667
520.408	32.8393
520.461	37.886
520.513	39
520.565	40.8813
520.618	42.8116
520.67	42.8719
520.723	35.5215
520.775	42.9325
520.827	38.7907
520.88	37.0722
520.932	31.44
520.984	38.6217
521.037	37.7695
521.089	38.0791
521.141	35.4889
521.194	41.6694
521.246	42.83
521.298	39.9139
521.351	37.5372
521.403	41.8184
521.455	40.6275
521.508	40.2829
521.56	40.7101
521.612	36.4889
521.665	37.6965
521.717	42.6927
521.769	42.3143
521.822	44.8941
521.874	38.7835
521.926	42.4377
521.979	43
522.031	40.1129
522.083	39.7695
522.136	36.2372
522.188	37.2398
522.24	36.3888
522.293	41.8766
522.345	43.6228
522.397	45.6403
522.45	39
522.502	42.8685
522.554	43.1339
522.607	40.135
522.659	40.7253
522.711	43.7206
522.764	43.2817
522.816	43
522.868	42
522.921	39.8533
522.973	38.702
523.025	40.454
523.078	42.695
523.13	43.3097
523.182	42
523.234	41
523.287	44.6787
523.339	36.8149
523.391	43.8428
523.444	41.8382
523.496	43.6624
523.548	41.8298
523.601	41.5169
523.653	47.6508
523.705	43.4692
523.758	41.5343
523.81	44.6391
523.862	44.5483
523.915	44.4447
523.967	42.5623
524.019	43.1888
524.072	44.1909
524.124	48.4633
524.176	41.3609
524.229	42.4098
524.281	39.7963
524.333	46.5967
524.385	46
524.438	44.6147
524.49	46
524.542	48.1618
524.595	48.211
524.647	43.2712
524.699	48.3574
524.752	48
524.804	42.3434
524.856	41.542
524.909	46.8882
524.961	47.7753
525.013	39.681
525.066	37.9138
525.118	43.3085
525.17	48.0687
525.222	42.7028
525.275	38.4179
525.327	44.8522
525.379	46
525.432	43.9732
525.484	40
525.536	44
525.589	40
525.641	44.7427
525.693	46.5076
525.745	43.5105
525.798	44.7427
525.85	44
525.902	42.3038
525.955	44.4715
526.007	42.9371
526.059	47.2678
526.112	39.8906
526.164	49.3706
526.216	43.1793
526.268	43.8287
526.321	38.8347
526.373	46.1608
526.425	49.7183
526.478	46.716
526.53	45.2867
526.582	42.8661
526.635	44.1294
526.687	40.4156
526.739	48.1748
526.791	48.5157
526.844	46.8951
526.896	46.6996
526.948	39.7273
527.001	42.475
527.053	45.7739
527.105	45
527.157	43.2448
527.21	45.7474
527.262	44
527.314	46
527.367	45.2774
527.419	44.0385
527.471	43.3527
527.523	42.6259
527.576	42.6729
527.628	45.3403
527.68	39.6636
527.733	41.3345
527.785	43.6643
527.837	46.9872
527.889	45.3193
527.942	48.6585
527.994	45.7567
528.046	40.6154
528.099	46
528.151	39.4033
528.203	39.3531
528.255	40
528.308	45.1469
528.36	50.7179
528.412	46.4435
528.464	41.9091
528.517	44.9056
528.569	42.8357
528.621	42.7381
528.674	49.3974
528.726	48.1224
528.778	41.6321
528.83	44
528.883	44.5804
528.935	43.7646
528.987	43.3842
529.039	45.1608
529.092	42.2214
529.144	46.2191
529.196	40.7855
529.249	43.3946
529.301	44
529.353	39.8007
529.405	42.8019
529.458	39.8065
529.51	46.5937
529.562	39.7762
529.614	45.1795
529.667	46.4126
529.719	48.345
529.771	43.0804
529.823	42.2573
529.876	46.7378
529.928	44.1538
529.98	47.1492
530.033	45.2832
530.085	44.7156
530.137	46.4126
530.189	44.1678
530.242	40.6154
530.294	38.0664
530.346	47
530.398	45
530.451	44.8904
530.503	51.1049
530.555	44.4487
530.607	44.451
530.66	43.6399
530.712	47.4557
530.764	44.2902
530.816	44.6981
530.869	45.3846
530.921	49.6807
530.973	48.4662
531.025	44.3427
531.078	46.1166
531.13	47
531.182	43.4266
531.234	48.5221
531.287	44.9604
531.339	44.6224
531.391	43.9347
531.443	44.4562
531.496	41.5128
531.548	49.0629
531.6	49.4755
531.652	53.0117
531.705	49
531.757	49.4988
531.809	47.4965
531.861	53.5245
531.914	43.4709
531.966	50.4924
532.018	48.528
532.07	45.0466
532.123	43.972
532.175	47.4476
532.227	46.4009
532.279	49.6079
532.332	50.4301
532.384	50.0513
532.436	49.5839
532.488	46.5909
532.541	43
532.593	44.8648
532.645	49.3916
532.697	47.1585
532.75	49.4586
532.802	49.3706
532.854	46.2727
532.906	46.8089
532.958	48.4504
533.011	49.4476
533.063	47
533.115	48.7855
533.167	46.3232
533.22	51.4394
533.272	47.1282
533.324	49.5659
533.376	45.5676
533.429	47.8439
533.481	45.3069
533.533	46.7558
533.585	47.1093
533.638	49.171
533.69	49.5248
533.742	46.9726
533.794	48.7918
533.846	54.8239
533.899	48.5039
533.951	47.8527
534.003	41.0238
534.055	45.6052
534.108	42.1149
534.16	43.9012
534.212	48.9374
534.264	52.154
534.316	52.696
534.369	47.8773
534.421	42.5198
534.473	45.5005
534.525	48.2547
534.578	46.9916
534.63	49.9968
534.682	50.9022
534.734	51.7965
534.786	50.4845
534.839	54.5699
534.891	55.7015
534.943	52.7735
534.995	52.2427
535.047	51.6395
535.1	48.9284
535.152	53.9219
535.204	54.5274
535.256	61.4376
535.309	58.8785
535.361	52.5389
535.413	55.5373
535.465	55.0148
535.517	60.6216
535.57	56.7078
535.622	56
535.674	58.5342
535.726	57.9671
535.778	56.7293
535.831	50.7433
535.883	56.0803
535.935	48.4262
535.987	50.3174
536.039	52.7984
536.092	60.2761
536.144	60.8684
536.196	56.6856
536.248	53.7282
536.301	58
536.353	58.8145
536.405	57.054
536.457	58.0394
536.509	55.5303
536.562	54.8325
536.614	48.6687
536.666	48.4072
536.718	56
536.77	53.4075
536.823	52.5506
536.875	52.8819
536.927	60.9019
536.979	58.732
537.031	54.638
537.083	54.2995
537.136	56.8388
537.188	56.9783
537.24	52.3718
537.292	53.499
537.344	52.9629
537.397	52.5981
537.449	59.2404
537.501	55.1271
537.553	54.3345
537.605	60.2609
537.658	56.9244
537.71	59.68
537.762	57.3288
537.814	56.6654
537.866	58.0364
537.919	54.0369
537.971	50.8878
538.023	56.4777
538.075	56.288
538.127	52.7288
538.18	49.9281
538.232	58
538.284	56.1484
538.336	56.7585
538.388	60.3817
538.44	52.0917
538.493	55.2501
538.545	56.3799
538.597	54.7186
538.649	59.6835
538.701	57.5525
538.754	57.6749
538.806	57.9519
538.858	57.4666
538.91	55.1107
538.962	57.7965
539.014	56.2407
539.067	58.6341
539.119	57.1011
539.171	59.581
539.223	62.1835
539.275	65.9084
539.327	58.4097
539.38	58.0541
539.432	61.1815
539.484	55.0841
539.536	55.4661
539.588	59.1013
539.641	59.4697
539.693	58.6691
539.745	50.7476
539.797	55.7718
539.849	54.8458
539.901	52.0431
539.954	53.2484
540.006	54.0117
540.058	54.7056
540.11	62.5128
540.162	55.1761
540.214	56.7625
540.267	64
540.319	61.8235
540.371	58.1962
540.423	56.6007
540.475	63.3438
540.527	68.0126
540.58	58.122
540.632	56.7723
540.684	59.3498
540.736	53.6631
540.788	59.4186
540.84	59.8654
540.892	62.2683
540.945	72.6818
540.997	65.7176
541.049	62.5625
541.101	63.4613
541.153	56.4168
541.205	58.1628
541.258	64.5317
541.31	66.6892
541.362	63.8304
541.414	66.8042
541.466	57.23
541.518	67.8421
541.57	65.7162
541.623	66.6702
541.675	70.7714
541.727	62.9261
541.779	65.2801
541.831	60.5616
541.883	60.0101
541.936	70.2683
541.988	64.5002
542.04	67.3124
542.092	62.1286
542.144	66.9726
542.196	67.2105
542.248	65.3891
542.301	67.751
542.353	69.1744
542.405	61.1487
542.457	68.4259
542.509	59.3394
542.561	67.5606
542.613	58.0237
542.666	60.7137
542.718	71.6867
542.77	68.4748
542.822	63.4759
542.874	68.2897
542.926	69.1447
542.978	65.1725
543.031	62.8479
543.083	68.2236
543.135	61.4214
543.187	71.3256
543.239	71.7397
543.291	64.3867
543.343	59.6249
543.396	65.8283
543.448	70.3908
543.5	65.8822
543.552	78.1349
543.604	75.1882
543.656	69.9635
543.708	75.1196
543.76	66.5948
543.813	76.0046
543.865	64.7977
543.917	63.3442
543.969	72.6253
544.021	78.9038
544.073	67.1028
544.125	65.6554
544.177	71.3624
544.23	69.7447
544.282	68.667
544.334	73.9794
544.386	70.6086
544.438	77.4534
544.49	75.3097
544.542	68.9088
544.594	70.1664
544.647	70.1546
544.699	83.6662
544.751	73.7389
544.803	71.4569
544.855	72.2407
544.907	71.1898
544.959	72.6556
545.011	77.5496
545.064	71.2824
545.116	73.8345
545.168	79.1482
545.22	77.6541
545.272	86.271
545.324	77.2255
545.376	72.6569
545.428	73.6705
545.48	67.5059
545.533	74.9588
545.585	69.7511
545.637	73.2397
545.689	87.304
545.741	76.4878
545.793	85.7621
545.845	85.8238
545.897	79.3148
545.949	73.0352
546.002	78.6677
546.054	81.6036
546.106	83.4239
546.158	85.5655
546.21	81.0609
546.262	81.6783
546.314	90.1191
546.366	73.8319
546.418	73.5573
546.471	82.2198
546.523	85.7044
546.575	77.8594
546.627	71.1391
546.679	76.5386
546.689	78.0326
546.741	78.0792
546.793	78.045
546.845	83.9361
546.898	87.8833
546.95	91.8016
547.002	83.8743
547.054	78.0513
547.106	91.8692
547.159	85.9738
547.211	78.186
547.263	85.9694
547.315	89.9618
547.368	82.2338
547.42	91.8264
547.472	82.1189
547.524	87.8401
547.577	87.9202
547.629	82.0931
547.681	97.2223
547.733	93.5092
547.785	85.9407
547.838	99.1677
547.89	86.2955
547.942	101.664
547.994	94.2218
548.047	90.4591
548.099	78.9851
548.151	93.7029
548.203	95.5474
548.255	93.9031
548.308	88.2005
548.36	91.5621
548.412	86.2007
548.464	93.828
548.517	90.5447
548.569	85.3833
548.621	99.7109
548.673	93.7111
548.725	88.695
548.778	103.459
548.83	95.5521
548.882	93.7115
548.934	99.6772
548.987	92.4016
549.039	104.774
549.091	99.0127
549.143	92.529
549.195	106.273
549.248	88.8748
549.3	100.101
549.352	99.1767
549.404	99.0545
549.456	94.8232
549.509	111.188
549.561	102.12
549.613	99.8533
549.665	92.684
549.718	93.9134
549.77	106.581
549.822	104.266
549.874	114.8
549.926	103.581
549.979	94.9438
550.031	105.488
550.083	107.548
550.135	105.272
550.187	101.829
550.24	109.444
550.292	115.068
550.344	113.512
550.396	109.135
550.448	115.51
550.501	110.299
550.553	113.195
550.605	116.678
550.657	114.763
550.709	112.147
550.762	108.355
550.814	122.54
550.866	114.462
550.918	124.009
550.97	117.896
551.023	117.663
551.075	121.293
551.127	123.34
551.179	118.076
551.231	124.107
551.284	132.254
551.336	126.99
551.388	125.375
551.44	152.95
551.492	132.571
551.545	141.432
551.597	129.627
551.649	130.574
551.701	144.832
551.753	149.157
551.806	149.056
551.858	163.711
551.91	170.721
551.962	176.597
552.014	179.55
552.067	218.908
552.119	237.692
552.171	267.236
552.223	300.329
552.275	411.581
552.327	616.802
552.38	1330
552.432	2646.44
552.484	4917.9
552.536	8273.25
552.588	12529.5
552.641	10818.1
552.693	6156.53
552.745	2651.59
552.797	1074.12
552.849	553.996
552.901	368.229
552.954	279.924
553.006	253.013
553.058	221.32
553.11	203.3
553.162	189.369
553.215	176.5
553.267	176.282
553.319	169.413
553.371	152.924
553.423	161.211
553.475	142.88
553.528	155.079
553.58	142.089
553.632	152.405
553.684	143.588
553.736	142.772
553.788	145.022
553.841	143.19
553.893	146.445
553.945	146.21
553.997	145.284
554.049	141.887
554.102	138.763
554.154	135.745
554.206	131.236
554.258	147.481
554.31	127.762
554.362	134.03
554.414	139.768
554.467	147.916
554.519	145.62
554.571	143.507
554.623	139.273
554.675	143.366
554.727	144.102
554.78	139.331
554.832	136.715
554.884	146.202
554.936	146.628
554.988	145.781
555.04	133.382
555.093	141.558
555.145	143.22
555.197	152.613
555.249	142.607
555.301	139.934
555.353	143.713
555.406	142.816
555.458	139.761
555.51	148.058
555.562	147.046
555.614	141.367
555.666	140.552
555.719	137.475
555.771	146.547
555.823	148.226
555.875	148.464
555.927	145.145
555.979	148.294
556.031	158.861
556.084	148.425
556.136	144.075
556.188	166.556
556.24	157.142
556.292	151.816
556.344	156.661
556.396	153.197
556.449	149.131
556.501	164.128
556.553	146.557
556.605	168.669
556.657	151.843
556.709	169.51
556.762	154.876
556.814	159.474
556.866	165.136
556.918	156.447
556.97	166.065
557.022	170.238
557.074	153.158
557.127	162.947
557.179	159.085
557.231	174.447
557.283	157.025
557.335	161.697
557.387	165.113
557.439	162.481
557.492	163.497
557.544	162.809
557.596	167.303
557.648	159.745
557.7	171.141
557.752	165.432
557.804	161.497
557.856	171.787
557.909	166.844
557.961	176.977
558.013	168.807
558.065	156.063
558.117	169.174
558.169	175.119
558.221	177.623
558.273	175.663
558.326	185.077
558.378	166.885
558.43	170.232
558.482	178
558.534	172.631
558.586	174.303
558.638	165.169
558.691	173.389
558.743	179.75
558.795	173.871
558.847	176.175
558.899	178.534
558.951	182.673
559.003	166.997
559.055	183.198
559.108	173.796
559.16	188.168
559.212	186.885
559.264	172.136
559.316	183.827
559.368	186.319
559.42	183.338
559.472	191.234
559.525	175.707
559.577	191.436
559.629	183.696
559.681	185.42
559.733	187.18
559.785	194.859
559.837	186.107
559.889	203.44
559.941	194.628
559.994	202.458
560.046	178.747
560.098	179.311
560.15	172.947
560.202	206.492
560.254	185.929
560.306	194.725
560.358	194.257
560.41	189.243
560.463	188.868
560.515	193.743
560.567	200.178
560.619	196.664
560.671	184.042
560.723	204.244
560.775	189.47
560.827	198
560.879	194.288
560.932	200.772
560.984	205.481
561.036	207.754
561.088	211.748
561.14	199.756
561.192	210.946
561.244	211.099
561.296	209.865
561.348	211.969
561.4	196.954
561.453	203.606
561.505	211.625
561.557	210.139
561.609	208.5
561.661	213.378
561.713	211.569
561.765	208.589
561.817	210.869
561.869	218.423
561.921	223.564
561.974	211.784
562.026	226.153
562.078	216.195
562.13	218.363
562.182	225.667
562.234	215.327
562.286	219.139
562.338	223.486
562.39	222.446
562.442	218.016
562.494	218.544
562.547	214.404
562.599	228.721
562.651	221.331
562.703	227.959
562.755	232.577
562.807	224.392
562.859	227.441
562.911	241.315
562.963	235.005
563.015	240.964
563.067	231.958
563.12	234.981
563.172	236.449
563.224	242.783
563.276	245.672
563.328	233.957
563.38	238.77
563.432	239.126
563.484	236.162
563.536	230.116
563.588	252.096
563.64	251.58
563.692	245.507
563.744	242.486
563.797	244.764
563.849	243.566
563.901	245.586
563.953	245.397
564.005	249.431
564.057	239.58
564.109	242.699
564.161	244.402
564.213	246.41
564.265	246.353
564.317	256.577
564.369	250.394
564.421	258.518
564.474	263.979
564.526	253.212
564.578	260.603
564.63	257.226
564.682	256.546
564.734	260.055
564.786	268
564.838	256.993
564.89	264.995
564.942	273.544
564.994	271.572
565.046	255.659
565.098	261.938
565.15	263.1
565.202	261.563
565.255	263.177
565.307	265.808
565.359	265.009
565.411	273.039
565.463	265.343
565.515	263.28
565.567	268.965
565.619	278.441
565.671	271.66
565.723	279.282
565.775	290.308
565.827	282.01
565.879	275.679
565.931	280.356
565.983	287.64
566.035	294.71
566.087	291.086
566.139	282.924
566.192	287.648
566.244	286.325
566.296	284.204
566.348	282.507
566.4	274.416
566.452	291.201
566.504	296.985
566.556	298.39
566.608	304
566.66	298.997
566.712	299.291
566.764	305.613
566.816	292.232
566.868	292.868
566.92	310.54
566.972	311.989
567.024	302.93
567.076	306.357
567.128	308.755
567.18	310.624
567.232	308
567.285	304.794
567.337	314.993
567.389	309.266
567.441	314.508
567.493	322.374
567.545	311.867
567.597	315.139
567.649	317.4
567.701	320.165
567.753	313.799
567.805	316.011
567.857	324.597
567.909	317.488
567.961	327.416
568.013	329.607
568.065	320.32
568.117	325.54
568.169	314.085
568.221	322.538
568.273	333.403
568.325	334.182
568.377	327.431
568.429	320.828
568.481	340.574
568.533	339.448
568.585	334.918
568.637	334.387
568.69	355.764
568.742	354.11
568.794	340.197
568.846	348.658
568.898	344.644
568.95	344.16
569.002	347.106
569.054	343.875
569.106	342.747
569.158	343.148
569.21	339.511
569.262	338.901
569.314	348.714
569.366	364.514
569.418	367.187
569.47	360.708
569.522	356.984
569.574	352.271
569.626	357.532
569.678	359.997
569.73	359.966
569.782	362.866
569.834	355.925
569.886	366.856
569.938	372.308
569.99	368.734
570.042	374.269
570.094	380.928
570.146	386.457
570.198	378.401
570.25	383.41
570.302	385.428
570.354	384.614
570.406	374.978
570.458	382.968
570.51	403.149
570.562	405.053
570.614	399.44
570.666	403.251
570.718	404.33
570.77	409.129
570.822	416.533
570.874	398.481
570.926	402.523
570.978	424.763
571.03	428.645
571.082	427.466
571.134	427.792
571.186	424.416
571.238	436.152
571.29	440.917
571.342	446.083
571.394	442.11
571.446	459.888
571.498	474.436
571.55	461.487
571.602	457.591
571.654	476.174
571.706	482.593
571.758	477.779
571.81	488.214
571.862	504.194
571.914	485.511
571.966	489.634
572.018	495.863
572.07	496.966
572.122	502.325
572.174	506.443
572.226	517.132
572.278	536.47
572.33	537.286
572.382	523.094
572.434	528.498
572.486	548.627
572.538	549.337
572.59	555.295
572.642	552.14
572.694	553.818
572.746	588.53
572.798	590.566
572.85	578.747
572.902	587.215
572.954	606.28
573.006	626.77
573.058	623.792
573.11	637.601
573.162	632.41
573.214	645.605
573.266	650.982
573.302	644.043
573.355	671.966
573.407	654.013
573.459	664.031
573.511	709.786
573.563	676.232
573.615	713.689
573.667	713.701
573.719	739.308
573.772	737.732
573.824	732.518
573.876	748.526
573.928	783.434
573.98	808.154
574.032	798.961
574.084	833.245
574.136	834.852
574.188	861.629
574.241	851.342
574.293	824.936
574.345	896.041
574.397	916.066
574.449	875.869
574.501	899.544
574.553	960.314
574.605	939.649
574.657	972.321
574.71	976.073
574.762	1009.09
574.814	1034.47
574.866	1024.41
574.918	1065.86
574.97	1077.39
575.022	1072.2
575.074	1092.26
575.126	1079.33
575.178	1128.87
575.231	1123.6
575.283	1157.18
575.335	1155.66
575.387	1170.17
575.439	1185.6
575.491	1186.16
575.543	1227.15
575.595	1219.43
575.647	1221.08
575.7	1216.62
575.752	1227.2
575.804	1223.21
575.856	1204.91
575.908	1249.32
575.96	1249.2
576.012	1277.23
576.064	1214.12
576.116	1266.06
576.168	1190.95
576.22	1235.36
576.273	1235.48
576.325	1211.81
576.377	1241.27
576.429	1215.69
576.481	1194.42
576.533	1162.54
576.585	1141.37
576.637	1119.41
576.689	1148.41
576.741	1136.67
576.793	1068.7
576.846	1093.83
576.898	1051.32
576.95	1079.8
577.002	1067.84
577.054	1062.44
577.106	1070.4
577.158	1039.13
577.21	1021.35
577.262	1002
577.314	990.395
577.366	986.718
577.418	950.343
577.471	965.563
577.523	950.681
577.575	940.7
577.627	955.709
577.679	928.809
577.731	905.426
577.783	907.466
577.835	890.291
577.887	872.459
577.939	867.658
577.991	879.76
578.043	876.122
578.095	862.786
578.148	844.983
578.2	869.626
578.252	843.477
578.304	845.631
578.356	837.558
578.408	832.253
578.46	811.788
578.512	807.991
578.564	837.191
578.616	800.393
578.668	788.28
578.72	811.818
578.772	797.674
578.824	796.351
578.877	815.783
578.929	797.891
578.981	764.813
579.033	794.633
579.085	790.772
579.137	778.106
579.189	754.066
579.241	767.066
579.293	758.188
579.345	773.282
579.397	735.651
579.449	750.708
579.501	759.86
579.553	746.36
579.605	752.152
579.658	766.302
579.71	761.212
579.762	761.541
579.814	772.9
579.866	753.638
579.918	757.759
579.97	739.561
580.022	749.819
580.074	765.602
580.126	775.113
580.178	754.525
580.23	751.588
580.282	760.972
580.334	748.617
580.386	768.017
580.438	738.014
580.49	772.992
580.542	750.776
580.595	763.399
580.647	780.799
580.699	765.08
580.751	753.041
580.803	770.667
580.855	780.073
580.907	772.493
580.959	763.171
581.011	753.632
581.063	778.075
581.115	769.483
581.167	759.883
581.219	796.259
581.271	775.057
581.323	768.101
581.375	786.899
581.427	790.292
581.479	792.043
581.531	783.727
581.583	794.61
581.635	798.42
581.688	782.882
581.74	792.715
581.792	791.923
581.844	796.46
581.896	785.954
581.948	789.073
582	806.014
582.052	792.372
582.104	786.696
582.156	800.009
582.208	817.756
582.26	834.352
582.312	824.132
582.364	812.114
582.416	823.413
582.468	820.017
582.52	821.096
582.572	809.027
582.624	805.979
582.676	810.139
582.728	829.304
582.78	819.676
582.832	811.649
582.884	814.107
582.936	833.082
582.988	838.789
583.04	862.366
583.092	844.192
583.144	842.132
583.196	839.164
583.249	839.411
583.301	826.674
583.353	835.077
583.405	840.334
583.457	849.682
583.509	844.875
583.561	845.445
583.613	870.128
583.665	859.013
583.717	874.048
583.769	870.041
583.821	878.348
583.873	882.472
583.925	871.267
583.977	868.992
584.029	899.231
584.081	890.691
584.133	888.31
584.185	903.656
584.237	883.836
584.289	909.775
584.341	901.669
584.393	911.993
584.445	897.518
584.497	903.497
584.549	902.857
584.601	905.117
584.653	908.487
584.705	923.926
584.757	941.686
584.809	920.306
584.861	927.711
584.913	938.319
584.965	923.339
585.017	955.394
585.069	954.862
585.121	949.26
585.173	967.841
585.225	949.665
585.277	955.928
585.329	955.779
585.381	936.786
585.433	942.824
585.485	966.756
585.537	976.871
585.589	962.484
585.641	985.755
585.693	1012.61
585.745	984.482
585.797	976.943
585.849	1010.62
585.901	1005.61
585.953	1002.03
586.005	984.443
586.057	983.88
586.109	1015.04
586.161	1007.79
586.213	1015.42
586.265	1009
586.317	1026.56
586.369	1038.46
586.421	1039.49
586.473	1021.54
586.525	1043.33
586.577	1018.4
586.629	1023.8
586.681	1023.97
586.733	1055.41
586.785	1034.52
586.837	1036.85
586.889	1012.92
586.941	1031.96
586.993	1036.63
587.045	1027.68
587.097	1037.61
587.149	1024.34
587.201	1056.41
587.253	1019.09
587.305	1063.07
587.357	1040.98
587.409	1045.52
587.461	1045.27
587.513	1040.17
587.565	1044.94
587.617	1039.69
587.669	1050.1
587.721	1034.6
587.773	1060.14
587.825	1063.98
587.877	1056.16
587.929	1065.77
587.981	1036.26
588.033	1069.18
588.085	1080.14
588.137	1075.01
588.189	1061.17
588.241	1059.67
588.293	1070.71
588.345	1065.2
588.397	1089.28
588.449	1070.76
588.501	1067.41
588.552	1083.15
588.604	1077.53
588.656	1080.16
588.708	1091.52
588.76	1082.04
588.812	1094.41
588.864	1080.26
588.916	1068.19
588.968	1089.92
589.02	1087.31
589.072	1087.55
589.124	1095.96
589.176	1084.08
589.228	1104.98
589.28	1102.43
589.332	1109.45
589.384	1122.04
589.436	1088.49
589.488	1086.41
589.54	1092.58
589.592	1114.03
589.644	1099.21
589.696	1082.33
589.748	1082.8
589.8	1096.22
589.852	1103.54
589.904	1080.32
589.956	1069.97
590.008	1080.24
590.06	1090.03
590.112	1104.86
590.163	1109.3
590.215	1088.19
590.267	1115.37
590.319	1110.23
590.371	1106.03
590.423	1110.44
590.475	1104.03
590.527	1103.25
590.579	1109.41
590.631	1115.16
590.683	1087.62
590.735	1110.72
590.787	1093.08
590.839	1104.47
590.891	1108.42
590.943	1101.68
590.995	1083.96
591.047	1085.55
591.099	1079.34
591.151	1081.71
591.203	1088.87
591.254	1085.57
591.306	1071.14
591.358	1085.54
591.41	1057.93
591.462	1078.13
591.514	1078.76
591.566	1077.18
591.618	1039.18
591.67	1063.8
591.722	1068.65
591.774	1071.22
591.826	1082.34
591.878	1072.7
591.93	1091.71
591.982	1082.6
592.034	1073.81
592.086	1069.54
592.137	1094.01
592.189	1061.54
592.241	1069.57
592.293	1087.77
592.345	1085.23
592.397	1075.66
592.449	1079.18
592.501	1089.22
592.553	1076.88
592.605	1092.57
592.657	1079.43
592.709	1092.79
592.761	1076.21
592.813	1065.4
592.865	1067.18
592.916	1077.09
592.968	1076.47
593.02	1077.55
593.072	1079.06
593.124	1058.36
593.176	1047.32
593.228	1054.4
593.28	1081.72
593.332	1073.17
593.384	1091.57
593.436	1068.92
593.488	1066.98
593.54	1058.59
593.591	1052.81
593.643	1073.84
593.695	1077.78
593.747	1083.08
593.799	1067.27
593.851	1057.99
593.903	1057.77
593.955	1050.88
594.007	1076.02
594.059	1091.1
594.111	1086.2
594.163	1071.33
594.215	1078.14
594.266	1089.16
594.318	1077.2
594.37	1074.1
594.422	1090.28
594.474	1106.67
594.526	1109.73
594.578	1090.17
594.63	1097.32
594.682	1112.1
594.734	1090.98
594.786	1087.98
594.837	1115.64
594.889	1093.38
594.941	1095.03
594.993	1108.3
595.045	1118.33
595.097	1109.7
595.149	1092.44
595.201	1120.06
595.253	1116.25
595.305	1111.8
595.357	1113.8
595.408	1128.55
595.46	1147.67
595.512	1134.63
595.564	1129.35
595.616	1146.81
595.668	1138.75
595.72	1123.49
595.772	1112.17
595.824	1121.11
595.876	1131.92
595.927	1124.99
595.979	1150.35
596.031	1163.74
596.083	1160.65
596.135	1164.62
596.187	1174.28
596.239	1150.36
596.291	1150.23
596.343	1168.04
596.394	1167.14
596.446	1166.23
596.498	1165.47
596.55	1167.13
596.602	1166.87
596.654	1144.71
596.706	1164.74
596.758	1184.34
596.81	1165.29
596.862	1164.9
596.913	1161.92
596.965	1157.28
597.017	1185.53
597.069	1189.45
597.121	1176.04
597.173	1152.79
597.225	1163.47
597.277	1185.91
597.328	1186.29
597.38	1183.1
597.432	1170.18
597.484	1176.48
597.536	1197.11
597.588	1202.71
597.64	1203.95
597.692	1208.47
597.744	1191.42
597.795	1200.53
597.847	1182.29
597.899	1173.87
597.951	1199.07
598.003	1198.83
598.055	1204.15
598.107	1238.87
598.159	1241.33
598.21	1218.35
598.262	1222.68
598.314	1200.21
598.366	1183.5
598.418	1193.53
598.47	1210.26
598.522	1202.44
598.574	1225.08
598.625	1218.26
598.677	1218.92
598.729	1239.01
598.781	1212.24
598.833	1227.21
598.885	1223.19
598.937	1209.64
598.988	1198.65
599.04	1222.28
599.092	1218.87
599.144	1215.56
599.196	1216.62
599.248	1222.9
599.3	1249.23
599.352	1262.95
599.403	1264.57
599.455	1248.3
599.507	1247.19
599.559	1237.22
599.611	1219.53
599.663	1243.13
599.715	1248.03
599.766	1250.05
599.803	1263.98
599.855	1259.94
599.907	1245.93
599.959	1233.92
600.011	1260.02
600.063	1271.77
600.115	1234.23
600.167	1220.22
600.219	1225.9
600.271	1237.73
600.323	1253.72
600.375	1246.45
600.427	1281.04
600.479	1270.81
600.531	1244.48
600.583	1243.39
600.635	1272.3
600.686	1285.4
600.738	1305.69
600.79	1261.33
600.842	1261.52
600.894	1257.74
600.946	1255.52
600.998	1237.61
601.05	1265.78
601.102	1251.86
601.154	1275.85
601.206	1295.36
601.258	1272.91
601.31	1258.51
601.362	1287.05
601.414	1312.19
601.466	1242.76
601.518	1276.42
601.57	1261.19
601.622	1279.54
601.674	1257.29
601.726	1277.8
601.778	1292.76
601.83	1272.48
601.882	1270.49
601.934	1286.95
601.986	1289.67
602.038	1260.81
602.09	1276.61
602.142	1272.71
602.194	1280.36
602.246	1284.3
602.298	1283.41
602.35	1274.58
602.402	1274.16
602.454	1259.24
602.506	1265.87
602.558	1260.02
602.61	1281.73
602.662	1283.01
602.714	1286.5
602.766	1296.89
602.818	1277.5
602.87	1309.69
602.922	1282.08
602.974	1232.87
603.026	1290.65
603.078	1300.23
603.13	1281.91
603.182	1302.57
603.234	1293.74
603.285	1300.47
603.337	1305.99
603.389	1322.06
603.441	1308.51
603.493	1314.87
603.545	1289.18
603.597	1317.28
603.649	1338.67
603.701	1298.72
603.753	1286.94
603.805	1274.72
603.857	1271.79
603.909	1296.42
603.961	1281.88
604.013	1322.31
604.065	1310.22
604.117	1305.51
604.169	1305.2
604.221	1328.06
604.273	1329.08
604.325	1308.08
604.377	1282.89
604.429	1281.51
604.481	1353.55
604.533	1323.5
604.584	1300.72
604.636	1301.87
604.688	1292.18
604.74	1325.86
604.792	1304.78
604.844	1280.74
604.896	1346.69
604.948	1316.05
605	1311.15
605.052	1334.5
605.104	1308.05
605.156	1327.47
605.208	1293.55
605.26	1292.28
605.312	1322.83
605.364	1280.46
605.416	1321.21
605.468	1295.61
605.52	1318.03
605.572	1332.26
605.623	1332.57
605.675	1340.12
605.727	1291.97
605.779	1308.06
605.831	1300.02
605.883	1322.75
605.935	1347.54
605.987	1333.64
606.039	1324.51
606.091	1307.95
606.143	1300.94
606.195	1311.75
606.247	1328.49
606.299	1334.43
606.351	1298.74
606.403	1296.57
606.455	1286.62
606.506	1309.25
606.558	1314.9
606.61	1327.13
606.662	1318.65
606.714	1322.62
606.766	1313.66
606.818	1351.98
606.87	1326.24
606.922	1313.77
606.974	1339.29
607.026	1314.65
607.078	1337.3
607.13	1317.49
607.182	1337.21
607.234	1335.22
607.285	1302.33
607.337	1333.52
607.389	1334.11
607.441	1300.15
607.493	1291.25
607.545	1310.4
607.597	1337.4
607.649	1335.73
607.701	1351.93
607.753	1351.34
607.805	1348.69
607.857	1345.27
607.909	1356.8
607.96	1329.85
608.012	1338.78
608.064	1349.65
608.116	1323.58
608.168	1329.3
608.22	1354.49
608.272	1356.89
608.324	1351.18
608.376	1348.83
608.428	1321.15
608.48	1338.19
608.532	1377.18
608.583	1385.36
608.635	1347.8
608.687	1368.14
608.739	1353.84
608.791	1367.82
608.843	1364.39
608.895	1358.24
608.947	1368.95
608.999	1378.71
609.051	1347.95
609.103	1357.83
609.155	1372.22
609.206	1376.19
609.258	1383.32
609.31	1383.71
609.362	1390.49
609.414	1419.84
609.466	1368.93
609.518	1384.12
609.57	1382.91
609.622	1370.18
609.674	1395.84
609.725	1372.77
609.777	1417.67
609.829	1416.14
609.881	1368.08
609.933	1382.73
609.985	1377.31
610.037	1405.16
610.089	1418.62
610.141	1398.11
610.193	1390.93
610.245	1385.84
610.296	1385.17
610.348	1417.31
610.4	1421.56
610.452	1409.16
610.504	1411.41
610.556	1400.09
610.608	1391.01
610.66	1392.67
610.712	1385.37
610.763	1425.05
610.815	1424.93
610.867	1414.87
610.919	1418.03
610.971	1412.13
611.023	1403.17
611.075	1410.69
611.127	1427.89
611.179	1407.27
611.23	1423.58
611.282	1427.04
611.334	1424.03
611.386	1440.52
611.438	1413.49
611.49	1438.17
611.542	1411.43
611.594	1448.54
611.646	1435.83
611.697	1445.53
611.749	1428.49
611.801	1426.76
611.853	1464.3
611.905	1457.17
611.957	1453.24
612.009	1457.29
612.061	1423.09
612.113	1459.29
612.164	1464.46
612.216	1434.84
612.268	1439.66
612.32	1439.66
612.372	1441.72
612.424	1462.97
612.476	1434.24
612.528	1464.03
612.579	1464.38
612.631	1466.62
612.683	1473.9
612.735	1460.67
612.787	1482.9
612.839	1477.2
612.891	1474.88
612.943	1473.25
612.994	1493.36
613.046	1497.02
613.098	1486.03
613.15	1494.88
613.202	1490.83
613.254	1493.7
613.306	1503.53
613.357	1480.35
613.409	1489.29
613.461	1493.14
613.513	1491.32
613.565	1513.32
613.617	1515.28
613.669	1509.6
613.721	1512.73
613.772	1521.32
613.824	1528.98
613.876	1537.23
613.928	1556.46
613.98	1522.2
614.032	1543.45
614.084	1536.89
614.135	1520.49
614.187	1538.47
614.239	1550.7
614.291	1536.13
614.343	1542.76
614.395	1537.74
614.447	1560.28
614.498	1571.01
614.55	1566.94
614.602	1534.26
614.654	1564.61
614.706	1581.19
614.758	1575.8
614.81	1577.89
614.861	1571.06
614.913	1593.27
614.965	1575.01
615.017	1575.5
615.069	1577.77
615.121	1585.32
615.172	1569.61
615.224	1593.03
615.276	1592.86
615.328	1600.91
615.38	1585.2
615.432	1607.8
615.484	1613.39
615.535	1600.29
615.587	1613.28
615.639	1610.95
615.691	1632.16
615.743	1614.84
615.795	1620.96
615.846	1639.54
615.898	1633.03
615.95	1631.41
616.002	1623.2
616.054	1608.35
616.106	1625.52
616.158	1663.51
616.209	1643.8
616.261	1631.49
616.313	1655.75
616.365	1643.91
616.417	1639.62
616.469	1660.44
616.52	1652.62
616.572	1651.39
616.624	1654.94
616.676	1644.38
616.728	1693.73
616.78	1650.67
616.831	1645.84
616.883	1664.87
616.935	1673.44
616.987	1671.18
617.039	1697.24
617.091	1687.04
617.142	1688.19
617.194	1677.77
617.246	1701.79
617.298	1719.54
617.35	1713.37
617.401	1735.81
617.453	1705.01
617.505	1697.57
617.557	1709.45
617.609	1706.19
617.661	1717.06
617.712	1706.5
617.764	1730.4
617.816	1728.79
617.868	1745.83
617.92	1740.34
617.972	1743.56
618.023	1734.33
618.075	1734.2
618.127	1738.73
618.179	1754.82
618.231	1765.62
618.282	1748.52
618.334	1760.28
618.386	1769.69
618.438	1779.49
618.49	1756.74
618.542	1772.75
618.593	1803.15
618.645	1776.84
618.697	1770
618.749	1777.53
618.801	1767.12
618.852	1804.42
618.904	1793.92
618.956	1792.45
619.008	1786.3
619.06	1795.03
619.111	1818.18
619.163	1823.3
619.215	1818.44
619.267	1807.8
619.319	1817.5
619.37	1833.3
619.422	1811.75
619.474	1816.97
619.526	1793.02
619.578	1836.54
619.63	1823.44
619.681	1839.68
619.733	1836.66
619.785	1865.49
619.837	1842.28
619.888	1838.94
619.94	1866.62
619.992	1868.01
620.044	1838.41
620.096	1866.75
620.147	1865.77
620.199	1878.43
620.251	1894.25
620.303	1856.23
620.355	1873.05
620.406	1880.38
620.458	1869.76
620.51	1880.44
620.562	1873.89
620.614	1878.09
620.665	1867.37
620.717	1908.11
620.769	1885.67
620.821	1868.5
620.873	1904.11
620.924	1900.76
620.976	1883.3
621.028	1930.87
621.08	1905.14
621.132	1906.44
621.183	1884.19
621.235	1899.08
621.287	1904.03
621.339	1891.89
621.39	1901.55
621.442	1887.29
621.494	1910.15
621.546	1910.19
621.598	1914.71
621.649	1944.23
621.701	1902.48
621.753	1927.26
621.805	1887.21
621.856	1910.87
621.908	1900.33
621.96	1864.1
622.012	1902.12
622.064	1937.49
622.115	1908.1
622.167	1916.21
622.219	1927.86
622.271	1946.54
622.322	1931.24
622.374	1948.63
622.426	1947.72
622.478	1952.95
622.53	1926.15
622.581	1951.23
622.633	1938.8
622.685	1926.08
622.737	1920.32
622.788	1925.84
622.84	1941.97
622.892	1921.53
622.944	1971.98
622.995	1966.45
623.047	1933.89
623.099	1966.06
623.151	1931.24
623.203	1912.04
623.254	1907.41
623.306	1897.38
623.358	1940.81
623.41	1928.75
623.461	1948.25
623.513	1919.39
623.565	1927.23
623.617	1942.63
623.668	1954.2
623.72	1967.96
623.772	1922.8
623.824	1960.16
623.875	1978.45
623.927	1938.35
623.979	1944.02
624.031	1957.6
624.082	1966.41
624.134	1983.5
624.186	1977.37
624.238	1956.76
624.289	1951.37
624.341	1982.68
624.393	1963.65
624.445	1997.43
624.496	1985.16
624.548	1971.92
624.6	1983.1
624.652	1979.99
624.703	1963.29
624.755	1951.81
624.807	2006.97
624.859	1991.98
624.91	1973.58
624.962	1994.8
625.014	1998.32
625.066	2001.25
625.117	2028.71
625.169	1996.9
625.221	2044.07
625.273	1988.58
625.324	2017.32
625.376	2028.41
625.428	2023.51
625.48	1996.95
625.531	1996.18
625.583	1985.18
625.635	2016.86
625.687	2018.85
625.738	2049.69
625.79	1995.41
625.842	2032.87
625.893	2032.41
625.945	2001.06
625.997	2037.54
626.049	2064.2
626.1	2039.53
626.152	2044.27
626.204	2059.48
626.256	2018.72
626.307	2035.06
626.316	2039.98
626.368	2029.99
626.42	2026.1
626.472	2018.55
626.523	2077.08
626.575	2061.72
626.627	2051.84
626.679	2080.94
626.731	2104.32
626.783	2069.49
626.835	2086.84
626.887	2074.07
626.938	2073.68
626.99	2114.16
627.042	2081.2
627.094	2129.15
627.146	2117.61
627.198	2092.7
627.25	2057.82
627.302	2089.8
627.353	2119.93
627.405	2064.37
627.457	2063.81
627.509	2099.82
627.561	2099.05
627.613	2096.88
627.665	2092.09
627.716	2129.43
627.768	2090.28
627.82	2098.65
627.872	2090.62
627.924	2141.09
627.976	2124.82
628.028	2131.37
628.079	2115.16
628.131	2127.07
628.183	2110.71
628.235	2115.99
628.287	2153.34
628.339	2159.45
628.391	2172.02
628.443	2119.35
628.494	2129.15
628.546	2165.59
628.598	2172.5
628.65	2164.78
628.702	2157.36
628.754	2162.86
628.805	2112.67
628.857	2185.59
628.909	2182.87
628.961	2121.55
629.013	2196.44
629.065	2178.53
629.117	2197.99
629.168	2171.77
629.22	2194.33
629.272	2190.3
629.324	2222.49
629.376	2221.18
629.428	2207.94
629.479	2199.33
629.531	2187.68
629.583	2246.46
629.635	2222.68
629.687	2191.8
629.739	2248.63
629.791	2221.86
629.842	2207.55
629.894	2251.05
629.946	2276.65
629.998	2239.29
630.05	2261.07
630.102	2249.54
630.153	2208.06
630.205	2284.98
630.257	2247.59
630.309	2225.66
630.361	2235.96
630.413	2242.02
630.464	2252.54
630.516	2235.52
630.568	2248.1
630.62	2281.53
630.672	2245.06
630.724	2288.06
630.776	2287.19
630.827	2325.71
630.879	2284.95
630.931	2290.8
630.983	2299.81
631.035	2280.22
631.086	2290.94
631.138	2298.16
631.19	2332.95
631.242	2299.05
631.294	2341.04
631.346	2310.19
631.397	2337.91
631.449	2355.25
631.501	2322.22
631.553	2351.62
631.605	2315.37
631.657	2284.93
631.708	2352.12
631.76	2346
631.812	2352.39
631.864	2350.93
631.916	2356.84
631.967	2324.17
632.019	2355.8
632.071	2383.06
632.123	2364.14
632.175	2344.88
632.227	2366.28
632.278	2362.21
632.33	2369.85
632.382	2420.67
632.434	2408.61
632.486	2405.31
632.537	2404.46
632.589	2415.63
632.641	2391.28
632.693	2423.15
632.745	2416.91
632.797	2431.54
632.848	2423.92
632.9	2461.02
632.952	2462.93
633.004	2460.92
633.056	2432.14
633.107	2459.95
633.159	2476
633.211	2449.98
633.263	2481.71
633.315	2471.49
633.366	2485.3
633.418	2496
633.47	2488.34
633.522	2467.91
633.574	2503.63
633.625	2505.66
633.677	2495.68
633.729	2472.88
633.781	2481.76
633.833	2533.03
633.885	2541.37
633.936	2550.15
633.988	2548.97
634.04	2564.55
634.092	2535.53
634.143	2532.86
634.195	2581.45
634.247	2547.68
634.299	2573.6
634.351	2581.76
634.403	2588.73
634.454	2595.63
634.506	2557.44
634.558	2614.59
634.61	2597.93
634.661	2636.08
634.713	2622.97
634.765	2665.5
634.817	2660.76
634.869	2667.6
634.92	2656.78
634.972	2661.9
635.024	2664.18
635.076	2664.23
635.128	2701.35
635.179	2703.22
635.231	2698.17
635.283	2735.88
635.335	2732.3
635.387	2706.59
635.438	2731.33
635.49	2719.55
635.542	2737.75
635.594	2769.76
635.645	2809.01
635.697	2814.45
635.749	2817.16
635.801	2807.54
635.853	2830.37
635.904	2859.7
635.956	2883.4
636.008	2895.73
636.06	2918.89
636.112	2924.48
636.163	2955.89
636.215	2949.98
636.267	2956.43
636.319	2972.36
636.37	3036.91
636.422	3075.03
636.474	3060.01
636.526	3109.61
636.577	3149.3
636.629	3145.69
636.681	3181.55
636.733	3220.44
636.785	3224.28
636.836	3234.51
636.888	3276.93
636.94	3365.56
636.992	3365.91
637.043	3401.61
637.095	3430.61
637.147	3459.41
637.199	3507.37
637.25	3543.5
637.302	3592.89
637.354	3656.6
637.406	3712.25
637.458	3724.21
637.509	3769.4
637.561	3801.93
637.613	3856.6
637.665	3901.46
637.716	3932.61
637.768	3983.15
637.82	3988.85
637.872	4000.98
637.923	4055.68
637.975	4091.03
638.027	4092.62
638.079	4122.72
638.13	4185.69
638.182	4178.29
638.234	4177.46
638.286	4198.27
638.337	4178.28
638.389	4168.28
638.441	4160.31
638.493	4132.2
638.544	4112.94
638.596	4123.02
638.648	4120.12
638.7	4078.83
638.752	4061.29
638.803	4038.27
638.855	4049.98
638.907	4010.26
638.958	4031.53
639.01	4012.67
639.062	3940.23
639.114	3913.39
639.165	3876.81
639.217	3862.94
639.269	3828.38
639.321	3812.14
639.372	3797.47
639.424	3778.88
639.476	3772.47
639.528	3709.04
639.579	3729.7
639.631	3609.04
639.683	3655.01
639.735	3642.4
639.786	3615.56
639.838	3618.92
639.89	3604.82
639.942	3573.84
639.993	3572.49
640.045	3557.38
640.097	3530.86
640.149	3547.33
640.2	3508.31
640.252	3482.05
640.304	3485.6
640.356	3471.88
640.407	3471.25
640.459	3449.03
640.511	3460.67
640.562	3452.23
640.614	3412.07
640.666	3404.26
640.718	3400.16
640.769	3403.2
640.821	3386.08
640.873	3398.58
640.925	3383.11
640.976	3373.49
641.028	3349.31
641.08	3354.91
641.131	3329.5
641.183	3346.85
641.235	3373.51
641.287	3366.2
641.338	3386.41
641.39	3356.32
641.442	3344.8
641.494	3352.27
641.545	3346.89
641.597	3325.38
641.649	3371.95
641.7	3317.84
641.752	3339.48
641.804	3324.69
641.856	3348.74
641.907	3301.12
641.959	3297.69
642.011	3323.87
642.063	3346.25
642.114	3326.2
642.166	3314.66
642.218	3323.54
642.269	3355.56
642.321	3333.78
642.373	3328.66
642.424	3323.87
642.476	3282.22
642.528	3339.59
642.58	3355.08
642.631	3319.56
642.683	3338.27
642.735	3337.44
642.786	3311.35
642.838	3345.46
642.89	3344.53
642.942	3324.93
642.993	3307.47
643.045	3337.49
643.097	3329.78
643.148	3315.24
643.2	3334.89
643.252	3327.25
643.304	3352.57
643.355	3327.63
643.407	3380.75
643.459	3340.33
643.51	3331.69
643.562	3344.02
643.614	3337.13
643.665	3347.79
643.717	3361.07
643.769	3348.06
643.82	3372.92
643.872	3352.49
643.924	3372.38
643.976	3365.02
644.027	3367.3
644.079	3366.76
644.131	3359.34
644.182	3344.62
644.234	3370.82
644.286	3355.86
644.337	3421.92
644.389	3419.11
644.441	3403.35
644.493	3389.35
644.544	3405.38
644.596	3393.42
644.648	3396.15
644.699	3414.78
644.751	3438.92
644.803	3411.79
644.854	3382.61
644.906	3405.03
644.958	3461.01
645.009	3463.48
645.061	3441.22
645.113	3438.93
645.164	3425.45
645.216	3414.41
645.268	3475.09
645.32	3430.94
645.371	3455.38
645.423	3463.89
645.475	3447.49
645.526	3435.98
645.578	3501.09
645.63	3468.81
645.681	3508.84
645.733	3484.48
645.785	3475.25
645.836	3470.29
645.888	3512.53
645.94	3536.93
645.991	3518.56
646.043	3479.18
646.095	3503.81
646.146	3481.46
646.198	3561.69
646.25	3530.31
646.301	3505.5
646.353	3557.04
646.405	3502.02
646.456	3522.47
646.508	3547.81
646.56	3558.13
646.611	3531.67
646.663	3489.01
646.715	3529.56
646.766	3570.82
646.818	3588.99
646.87	3564.99
646.921	3579.27
646.973	3574.04
647.025	3558.62
647.076	3540.42
647.128	3587.45
647.18	3618.37
647.231	3585.38
647.283	3569.8
647.335	3603.21
647.386	3591.2
647.438	3612.18
647.49	3580.97
647.541	3559.83
647.593	3621.11
647.645	3607.8
647.696	3613.64
647.748	3584.56
647.8	3635.83
647.851	3628.9
647.903	3668.73
647.955	3656.76
648.006	3644.32
648.058	3667.58
648.109	3689.72
648.161	3626.59
648.213	3644.7
648.264	3696.95
648.316	3615.39
648.368	3707.06
648.419	3680.27
648.471	3729.64
648.523	3645.2
648.574	3731.28
648.626	3621.95
648.678	3686.05
648.729	3708.3
648.781	3702.02
648.833	3755.26
648.884	3731.23
648.936	3776.13
648.987	3750.47
649.039	3754.38
649.091	3787.41
649.142	3724.44
649.194	3804.04
649.246	3767.6
649.297	3744.54
649.349	3718.6
649.401	3802.65
649.452	3796.7
649.504	3742.5
649.555	3783.33
649.607	3775.47
649.659	3835.8
649.71	3815.76
649.762	3804.75
649.814	3845.06
649.865	3806.64
649.917	3834.34
649.969	3838.13
650.02	3883.94
650.072	3846.59
650.123	3861.64
650.175	3850.88
650.227	3828.44
650.278	3865.92
650.33	3896.35
650.382	3869.06
650.433	3904.68
650.485	3928.28
650.536	3906.29
650.588	3937.47
650.64	3931.2
650.691	3870.67
650.743	3930
650.795	3941.18
650.846	3919.79
650.898	3981.7
650.949	3961.95
651.001	3929.2
651.053	3929.3
651.104	3985.22
651.156	3965.97
651.208	3991.35
651.259	3992.34
651.311	3957.69
651.362	3965.78
651.414	3979.04
651.466	4007.02
651.517	4006.35
651.569	4042.15
651.62	4049.59
651.672	4003.72
651.724	4020.3
651.775	4002.03
651.827	3989.85
651.878	4050.46
651.93	4064.17
651.982	4071.97
652.033	4037.04
652.085	4073.55
652.137	4092.49
652.188	4100.18
652.24	4100.48
652.291	4137.37
652.343	4111.39
652.395	4114.11
652.446	4140.34
652.498	4143.17
652.549	4125.26
652.601	4137.18
652.653	4170.25
652.704	4150.54
652.756	4190.67
652.772	4216.01
652.824	4189.75
652.876	4138.47
652.927	4108.9
652.979	4104.61
653.031	4247.75
653.083	4169
653.134	4225.26
653.186	4210.98
653.238	4205.6
653.29	4264.05
653.341	4220.28
653.393	4211.33
653.445	4258.36
653.497	4261.24
653.548	4296.12
653.6	4266.41
653.652	4245.67
653.704	4252.64
653.755	4333.76
653.807	4310.19
653.859	4308.9
653.91	4316.53
653.962	4258.28
654.014	4305.31
654.066	4388.15
654.117	4288.21
654.169	4333.94
654.221	4370.64
654.273	4408.87
654.324	4384.63
654.376	4441.34
654.428	4392.13
654.48	4435.48
654.531	4394.59
654.583	4369.55
654.635	4402.24
654.686	4395.55
654.738	4397.33
654.79	4431.56
654.842	4430.11
654.893	4489.54
654.945	4535.17
654.997	4538.34
655.049	4453.62
655.1	4507.6
655.152	4527.21
655.204	4490.06
655.255	4539.98
655.307	4537.45
655.359	4547.16
655.411	4574.18
655.462	4565.34
655.514	4564.65
655.566	4532.99
655.618	4606.36
655.669	4655.5
655.721	4609.74
655.773	4663.81
655.824	4689.53
655.876	4687.95
655.928	4658.87
655.98	4686.56
656.031	4687.22
656.083	4754.89
656.135	4686.73
656.186	4744.29
656.238	4787.4
656.29	4765.41
656.342	4766.99
656.393	4822.16
656.445	4762.09
656.497	4815.3
656.548	4810.87
656.6	4838.99
656.652	4831.81
656.704	4828.15
656.755	4856.24
656.807	4842.89
656.859	4834.12
656.91	4892.75
656.962	4961.94
657.014	4946.46
657.065	4918.99
657.117	4954.06
657.169	4971.19
657.221	5022.65
657.272	4955.76
657.324	5011.02
657.376	4978.34
657.427	4985.79
657.479	4999.16
657.531	5056.91
657.583	5003.91
657.634	5011.42
657.686	5038.64
657.738	5009.3
657.789	5042.61
657.841	5076.22
657.893	5046.05
657.944	5092.92
657.996	5105.28
658.048	5074.95
658.099	5095.05
658.151	5110.64
658.203	5075.87
658.255	5054.88
658.306	5107.76
658.358	5116.15
658.41	5139.54
658.461	5142.23
658.513	5160.39
658.565	5135.4
658.616	5149
658.668	5159.58
658.72	5139.79
658.771	5208.2
658.823	5269.27
658.875	5198.68
658.927	5196.64
658.978	5228.35
659.03	5166.65
659.082	5176.24
659.133	5244.34
659.185	5224.73
659.237	5214.93
659.288	5204.06
659.34	5228.29
659.392	5224.76
659.443	5246.5
659.495	5282.52
659.547	5253.45
659.598	5198.42
659.65	5207.78
659.702	5243.31
659.753	5311.62
659.805	5293.85
659.857	5237.32
659.909	5221
659.96	5264.58
660.012	5273.66
660.064	5223.42
660.115	5283.96
660.167	5271.47
660.219	5275.05
660.27	5327.81
660.322	5253.78
660.374	5285.43
660.425	5288.7
660.477	5247.25
660.529	5251.96
660.58	5252.36
660.632	5241.97
660.684	5261.07
660.735	5289.35
660.787	5217.83
660.839	5273.99
660.89	5308.22
660.942	5277.46
660.994	5294.74
661.045	5250.09
661.097	5297.65
661.149	5303.37
661.2	5328.83
661.252	5286.11
661.304	5272.25
661.355	5307.66
661.407	5331.58
661.459	5299.43
661.51	5300.22
661.562	5278.64
661.614	5275.42
661.665	5249.19
661.717	5266.47
661.768	5296.75
661.82	5314.44
661.872	5298.65
661.923	5250.23
661.975	5267.35
662.027	5314.44
662.078	5268.71
662.13	5303.73
662.182	5289.72
662.233	5295.02
662.285	5298.46
662.337	5295.15
662.388	5246.47
662.44	5252.93
662.492	5271.16
662.543	5310.48
662.595	5298.02
662.647	5313.88
662.698	5274.46
662.75	5329.72
662.802	5322.46
662.853	5341.7
662.905	5299.32
662.956	5314.68
663.008	5318.68
663.06	5255.3
663.111	5271.44
663.163	5333.47
663.215	5291.03
663.266	5321.43
663.318	5305.96
663.37	5289.09
663.421	5297.12
663.473	5296.09
663.525	5330.99
663.576	5320.52
663.628	5288.84
663.679	5318.56
663.731	5330.4
663.783	5311.51
663.834	5320.83
663.886	5338.53
663.938	5311.06
663.989	5308.29
664.041	5283.49
664.093	5289.88
664.144	5351.51
664.196	5318.65
664.247	5296.3
664.299	5278.11
664.351	5330.38
664.402	5309.42
664.454	5325.69
664.506	5307.25
664.557	5247.65
664.609	5330.05
664.66	5337.24
664.712	5321.12
664.764	5314.94
664.815	5257.46
664.867	5233.59
664.919	5316.34
664.97	5284.17
665.022	5318.67
665.073	5313.69
665.125	5287.02
665.177	5263.67
665.228	5280.97
665.28	5315.5
665.332	5296.46
665.383	5253.38
665.435	5288.45
665.486	5325.73
665.538	5309.95
665.59	5292.47
665.641	5282.75
665.693	5321.2
665.745	5341.39
665.796	5207.19
665.848	5286.88
665.899	5277.2
665.951	5328.91
666.003	5270.19
666.054	5299.66
666.106	5270.53
666.157	5287.99
666.209	5276.97
666.261	5225.65
666.312	5266.7
666.364	5304.12
666.415	5258.82
666.467	5245.57
666.519	5294.72
666.57	5257.74
666.622	5251.06
666.673	5235.95
666.725	5234.81
666.777	5238.95
666.828	5218.86
666.88	5257.6
666.931	5286.79
666.983	5278.33
667.035	5234.96
667.086	5280.23
667.138	5303.95
667.189	5248.97
667.241	5238.28
667.293	5257.04
667.344	5254.78
667.396	5239.12
667.447	5271.8
667.499	5270.46
667.551	5267.79
667.602	5245.92
667.654	5296.34
667.705	5297.22
667.757	5257.76
667.809	5281.79
667.86	5305.25
667.912	5255.72
667.963	5258.21
668.015	5299.29
668.067	5278.28
668.118	5222.95
668.17	5300.72
668.221	5327.06
668.273	5230.29
668.325	5259.11
668.376	5240.99
668.428	5228.23
668.479	5294
668.531	5241.65
668.582	5278.83
668.634	5274.07
668.686	5263.25
668.737	5306.69
668.789	5272.13
668.84	5248.25
668.892	5312.94
668.944	5326.86
668.995	5271.14
669.047	5263.83
669.098	5292.63
669.15	5273.59
669.201	5329.22
669.253	5290.68
669.305	5282.36
669.356	5231.79
669.408	5259.84
669.459	5258.14
669.511	5274.95
669.562	5277.66
669.614	5257.99
669.666	5283.08
669.717	5303.53
669.769	5240.64
669.82	5309.07
669.872	5271.79
669.923	5245.34
669.975	5286.67
670.027	5309.05
670.078	5286.72
670.13	5264.69
670.181	5276.28
670.233	5244.25
670.284	5292.35
670.336	5225.04
670.388	5256.64
670.439	5289.91
670.491	5292.5
670.542	5297.48
670.594	5259.15
670.645	5277.97
670.697	5345.93
670.748	5276.77
670.8	5311.97
670.852	5300.71
670.903	5294.97
670.955	5311.58
671.006	5276.54
671.058	5310.33
671.109	5256.3
671.161	5270.51
671.212	5214.63
671.264	5317.83
671.316	5305.24
671.367	5316.45
671.419	5251.33
671.47	5306.81
671.522	5304.84
671.573	5252.26
671.625	5314.53
671.676	5318.44
671.728	5303.83
671.78	5278.68
671.831	5302.14
671.883	5305.19
671.934	5310.1
671.986	5316.84
672.037	5287.36
672.089	5312.51
672.14	5311.16
672.192	5327.43
672.243	5295.17
672.295	5357.02
672.347	5366.07
672.398	5336.12
672.45	5360.19
672.501	5370.44
672.553	5327.25
672.604	5359.31
672.656	5335.23
672.707	5333.77
672.759	5335.85
672.81	5370.65
672.862	5339
672.913	5365.51
672.965	5395.75
673.017	5344.47
673.068	5391.31
673.12	5444.35
673.171	5420
673.223	5407.68
673.274	5408.07
673.326	5409.23
673.377	5396.24
673.429	5381.77
673.48	5395.88
673.532	5417.79
673.583	5420.5
673.635	5424.05
673.686	5443.89
673.738	5415.15
673.789	5481.33
673.841	5542.69
673.893	5457.36
673.944	5484.37
673.996	5458.32
674.047	5436.77
674.099	5504.48
674.15	5533.79
674.202	5498.42
674.253	5518.78
674.305	5536.36
674.356	5489.21
674.408	5484.66
674.459	5462.23
674.511	5504.51
674.562	5475.58
674.614	5533.15
674.665	5548.69
674.717	5515.34
674.768	5524.07
674.82	5565.49
674.871	5586.98
674.923	5491.55
674.974	5541.31
675.026	5574.83
675.077	5597.43
675.129	5624.51
675.18	5607.17
675.232	5664.78
675.284	5665.31
675.335	5622.32
675.387	5588.96
675.438	5571.57
675.49	5592.34
675.541	5640.6
675.593	5621.11
675.644	5623.86
675.696	5655.09
675.747	5659.09
675.799	5637.51
675.85	5669.22
675.902	5647.25
675.953	5629.95
676.005	5603.76
676.056	5624.74
676.108	5629.21
676.159	5680.53
676.211	5710.63
676.262	5702.72
676.314	5700.85
676.365	5682.47
676.417	5705.43
676.468	5668.86
676.52	5656.82
676.571	5695.01
676.623	5692.16
676.674	5709.83
676.726	5711.1
676.777	5709.64
676.828	5695.99
676.88	5679.6
676.932	5699.53
676.983	5692.01
677.034	5734.42
677.086	5717.19
677.137	5688.75
677.189	5684.04
677.24	5710.5
677.292	5752.07
677.343	5670.91
677.395	5625.15
677.446	5699.51
677.498	5731.27
677.549	5707.77
677.601	5727.72
677.652	5724.51
677.704	5712.99
677.755	5718.02
677.807	5734.35
677.858	5679.97
677.91	5623.93
677.961	5693.98
678.013	5761.9
678.064	5758.59
678.116	5717.83
678.167	5720.15
678.219	5736.83
678.27	5704.49
678.322	5676.01
678.373	5691.06
678.424	5707.57
678.476	5700.76
678.527	5708.18
678.579	5746.17
678.63	5736.82
678.682	5685.95
678.733	5714.84
678.785	5732.71
678.836	5727.55
678.888	5737.75
678.939	5746.76
678.991	5758.6
679.042	5758.31
679.094	5759.94
679.122	5750.11
679.173	5710.38
679.225	5738.62
679.277	5706.85
679.328	5706.88
679.38	5652.53
679.432	5747.48
679.483	5698.65
679.535	5700.83
679.586	5853.3
679.638	5756.23
679.69	5732.72
679.741	5760.39
679.793	5690.76
679.844	5735.03
679.896	5760.44
679.948	5706.38
679.999	5790.71
680.051	5806.15
680.103	5805.88
680.154	5853.26
680.206	5755.61
680.257	5807.61
680.309	5742.59
680.361	5816.7
680.412	5778.73
680.464	5772.4
680.515	5790.45
680.567	5856.97
680.619	5783.84
680.67	5846.96
680.722	5845.85
680.773	5807.45
680.825	5881.52
680.877	5763.07
680.928	5820.87
680.98	5840.94
681.031	5844.98
681.083	5847.33
681.135	5847.37
681.186	5834.28
681.238	5846.5
681.289	5808.29
681.341	5944.19
681.393	5847.47
681.444	5866.95
681.496	5855.05
681.547	5886.97
681.599	5862.91
681.651	5851.37
681.702	5854.96
681.754	5885.99
681.805	5886.14
681.857	5871.69
681.909	5951.27
681.96	5919.72
682.012	5948.72
682.063	5930.21
682.115	5949.18
682.166	5984.1
682.218	5932.93
682.27	5941.19
682.321	5965.34
682.373	5948.22
682.424	5938.16
682.476	5979.85
682.528	5916.87
682.579	5955.66
682.631	5950.95
682.682	5908.88
682.734	5927.1
682.785	6000.46
682.837	5984.14
682.889	5952.94
682.94	5973.77
682.992	6062.63
683.043	5955.45
683.095	6000.63
683.146	5926.28
683.198	5987.32
683.25	5981.3
683.301	5970.07
683.353	5913.63
683.404	5979.79
683.456	5969.93
683.508	5981.18
683.559	5915.62
683.611	5900.44
683.662	6010.43
683.714	5974.28
683.765	5983.37
683.817	5951.94
683.869	5969.91
683.92	5928.99
683.972	5897.51
684.023	5931.67
684.075	6029.48
684.126	5986.33
684.178	6011.64
684.229	5992.15
684.281	5949.49
684.333	5941.4
684.384	5935.16
684.436	5930
684.487	5908.78
684.539	5946.9
684.59	5952.56
684.642	5963.58
684.694	5960.72
684.745	5949.81
684.797	5994.45
684.848	5935.91
684.9	5870.74
684.951	5861.19
685.003	5897.68
685.055	5901.47
685.106	5886.01
685.158	5843.1
685.209	5893.06
685.261	5971.21
685.312	5917.79
685.364	5935.63
685.415	5866.99
685.467	5876.41
685.518	5903.1
685.57	5862.4
685.622	5791.51
685.673	5883.1
685.725	5868.26
685.776	5884.83
685.828	5888.21
685.879	5877.66
685.931	5853.44
685.982	5906.11
686.034	5907.03
686.086	5878.3
686.137	5875.1
686.189	5879.07
686.24	5777.51
686.292	5888.89
686.343	5858.56
686.395	5823.27
686.446	5900.44
686.498	5866.99
686.549	5837.68
686.601	5847.12
686.652	5865.62
686.704	5870.3
686.756	5867.85
686.807	5875.12
686.859	5795.64
686.91	5834.08
686.962	5838.15
687.013	5784.49
687.065	5847.45
687.116	5876.03
687.168	5783.45
687.219	5834.36
687.271	5836.68
687.322	5878.16
687.374	5813.55
687.426	5846.95
687.477	5808.42
687.529	5792.59
687.58	5892.07
687.632	5829.17
687.683	5755.72
687.735	5833.29
687.786	5761.82
687.838	5784.73
687.889	5896.95
687.941	5834.38
687.992	5815.08
688.044	5809.41
688.095	5893.98
688.147	5772.06
688.198	5809.49
688.25	5870.73
688.302	5837.79
688.353	5838.9
688.405	5841.19
688.456	5847.16
688.508	5842.09
688.559	5810.17
688.611	5800.87
688.662	5824.1
688.714	5804.02
688.765	5828.69
688.817	5853.32
688.868	5806.39
688.92	5826.89
688.971	5817.24
689.023	5805.09
689.074	5815.38
689.126	5774.89
689.177	5816.06
689.229	5822.79
689.28	5755.23
689.332	5813.9
689.383	5848.13
689.435	5749.53
689.486	5814.72
689.538	5746.72
689.589	5740.89
689.641	5814.41
689.692	5817.82
689.744	5847.92
689.795	5775.83
689.847	5814.63
689.898	5796.23
689.95	5752.87
690.001	5857.98
690.053	5769.46
690.104	5724.47
690.156	5812.67
690.207	5777.66
690.259	5743.62
690.31	5815.82
690.362	5763.22
690.413	5755.31
690.465	5793.89
690.516	5801.77
690.568	5753.59
690.619	5756.61
690.671	5692.83
690.722	5734.53
690.774	5758.32
690.825	5793.5
690.877	5757.09
690.928	5721.35
690.98	5696.04
691.031	5712.7
691.083	5718.13
691.134	5707.54
691.186	5697.8
691.237	5695
691.289	5673.84
691.34	5768.58
691.392	5664.7
691.443	5686.69
691.495	5730.47
691.546	5654.13
691.598	5715.34
691.649	5722.56
691.701	5717.47
691.752	5691.09
691.804	5720.77
691.855	5710.18
691.907	5689.77
691.958	5642.1
692.01	5610.19
692.061	5711.38
692.113	5612.16
692.164	5634.85
692.216	5666.98
692.267	5654.06
692.319	5636.02
692.37	5640.59
692.421	5611.78
692.473	5614.24
692.524	5598.87
692.576	5642.75
692.627	5635.03
692.679	5607.73
692.73	5624.54
692.782	5603.75
692.833	5623.2
692.885	5634.8
692.936	5609.03
692.988	5615.6
693.039	5557.41
693.091	5590.26
693.142	5601.59
693.194	5592.11
693.245	5576.93
693.297	5582.12
693.348	5585.25
693.399	5584.2
693.451	5576.38
693.502	5594.85
693.554	5552.92
693.605	5615.58
693.657	5587.11
693.708	5569.01
693.76	5547.3
693.811	5562.21
693.863	5592.43
693.914	5520.12
693.966	5589.34
694.017	5515.94
694.068	5618.74
694.12	5555.2
694.171	5579.16
694.223	5580.21
694.274	5554.8
694.326	5566.53
694.377	5516.87
694.429	5567.94
694.48	5506.98
694.532	5523.85
694.583	5439.39
694.634	5523.7
694.686	5571.53
694.737	5499.81
694.789	5530.54
694.84	5576.26
694.892	5550.58
694.943	5502.75
694.995	5522.27
695.046	5533.28
695.097	5511.89
695.149	5506.23
695.2	5502.33
695.252	5574.87
695.303	5521.76
695.355	5500.09
695.406	5550.13
695.458	5485.49
695.509	5510.69
695.56	5506.92
695.612	5468.21
695.663	5496.9
695.715	5504.13
695.766	5514.34
695.818	5507.42
695.869	5509.8
695.921	5513.5
695.972	5445.7
696.023	5484.31
696.075	5510.86
696.126	5475.77
696.178	5440.16
696.229	5411.48
696.281	5468.89
696.332	5465.21
696.383	5431.7
696.435	5444.48
696.486	5464.3
696.538	5470.25
696.589	5444.08
696.641	5428.4
696.692	5432.1
696.744	5460.43
696.795	5443.67
696.846	5401.39
696.898	5373.91
696.949	5402.6
697.001	5438.03
697.052	5407.42
697.104	5413.5
697.155	5406.42
697.206	5411.08
697.258	5403.39
697.309	5426.19
697.361	5392.3
697.412	5393.17
697.463	5373.83
697.515	5374.04
697.566	5347.28
697.618	5426.15
697.669	5316.71
697.721	5370.22
697.772	5391.32
697.823	5362.9
697.875	5392.57
697.926	5350.55
697.978	5365.51
698.029	5335.53
698.08	5353.01
698.132	5358.49
698.183	5333.44
698.235	5339.97
698.286	5321.42
698.338	5298.4
698.389	5274.71
698.44	5265.3
698.492	5280.22
698.543	5318.13
698.595	5267.27
698.646	5315.3
698.697	5324.4
698.749	5336.03
698.8	5278.12
698.852	5266.19
698.903	5280.98
698.954	5290.84
699.006	5274.58
699.057	5250.92
699.109	5213.04
699.16	5223.29
699.211	5258.39
699.263	5240.81
699.314	5233.49
699.366	5242.58
699.417	5218.69
699.468	5199.75
699.52	5271.8
699.571	5233.15
699.623	5246.12
699.674	5265.34
699.725	5224.28
699.777	5196.08
699.828	5158.83
699.88	5229.63
699.931	5242.6
699.982	5230.89
700.034	5183.58
700.085	5207.95
700.137	5232.52
700.188	5218.01
700.239	5220.66
700.291	5215.31
700.342	5188.19
700.393	5174.5
700.445	5160.58
700.496	5145.04
700.548	5182.47
700.599	5209.96
700.65	5171.04
700.702	5191.76
700.753	5224.07
700.805	5230.04
700.856	5204.79
700.907	5236.59
700.959	5230.76
701.01	5199.35
701.061	5209.68
701.113	5158.87
701.164	5188.56
701.216	5202.76
701.267	5194.5
701.318	5202.55
701.37	5151.07
701.421	5189.65
701.472	5200.77
701.524	5218.45
701.575	5218.05
701.627	5222.24
701.678	5230.06
701.729	5196.62
701.781	5202.67
701.832	5235.74
701.883	5176.33
701.935	5178.52
701.986	5219.53
702.038	5225.84
702.089	5200.34
702.14	5178.73
702.192	5151.79
702.243	5176.52
702.294	5201.19
702.346	5219.18
702.397	5204.42
702.448	5212.02
702.5	5228.88
702.551	5244.72
702.603	5228.95
702.654	5209.52
702.705	5226.15
702.757	5208.4
702.808	5169.09
702.859	5161.22
702.911	5189.3
702.962	5244.43
703.013	5208.05
703.065	5195.37
703.116	5216.87
703.167	5231.53
703.219	5242.19
703.27	5207.39
703.322	5172.11
703.373	5148.34
703.424	5184.27
703.476	5197.91
703.527	5163.6
703.578	5148.55
703.63	5141.85
703.681	5180.44
703.732	5197.48
703.784	5187.1
703.835	5165.88
703.886	5202.73
703.938	5219.46
703.989	5211.3
704.04	5210.04
704.092	5162.65
704.143	5150.67
704.194	5156.64
704.246	5135.94
704.297	5155.34
704.348	5160.11
704.4	5139.86
704.451	5125.74
704.503	5137.2
704.554	5140.08
704.605	5092.11
704.656	5071.87
704.708	5077.44
704.759	5101.74
704.81	5146.55
704.862	5166.13
704.913	5135.63
704.964	5110.61
705.016	5133.68
705.067	5149.04
705.119	5116.01
705.17	5079.97
705.221	5091.65
705.273	5093.59
705.324	5110.15
705.375	5079.77
705.408	5044
705.459	5064
705.511	5032.13
705.562	5054.19
705.614	5052.32
705.665	5030.79
705.717	5171.64
705.768	5070.06
705.82	5072.25
705.871	4944.92
705.923	5031.98
705.974	5072.72
706.026	4996.56
706.077	5018.05
706.129	5028.89
706.18	4971.17
706.232	5014.35
706.283	4961.15
706.335	4955.57
706.386	4961.18
706.438	4949.34
706.489	5067.49
706.541	4987.19
706.592	5015.28
706.643	4948.91
706.695	5041.41
706.746	4978.27
706.798	4969.38
706.849	4992.42
706.901	5005.87
706.952	4888.42
707.004	4989.12
707.055	4952.72
707.107	4887.39
707.158	4960.44
707.21	4857.94
707.261	4937.64
707.313	4898.17
707.364	4924.87
707.416	4922.5
707.467	4925.13
707.518	4893.47
707.57	4789.38
707.621	4856.65
707.673	4925.22
707.724	4905.45
707.776	4825.85
707.827	4876.98
707.879	4888.85
707.93	4753.74
707.982	4920.56
708.033	4892.48
708.084	4908.32
708.136	4891.89
708.187	4860.65
708.239	4884.89
708.29	4786.57
708.342	4899.88
708.393	4821.76
708.445	4818.47
708.496	4831.04
708.548	4843.02
708.599	4835.86
708.651	4863.97
708.702	4827.65
708.753	4850.22
708.805	4889.29
708.856	4845.02
708.908	4825.86
708.959	4816.43
709.011	4829.79
709.062	4872.53
709.114	4832.59
709.165	4843.88
709.216	4836.26
709.268	4837.76
709.319	4763.58
709.371	4846.95
709.422	4786.02
709.474	4843.29
709.525	4791.82
709.577	4781.49
709.628	4814.43
709.679	4807.89
709.731	4839.16
709.782	4821.15
709.834	4774.72
709.885	4829.34
709.937	4801.22
709.988	4809.75
710.039	4776.2
710.091	4762.24
710.142	4723.12
710.194	4761.72
710.245	4776.69
710.297	4810.09
710.348	4760.28
710.4	4781.9
710.451	4745.74
710.502	4817.88
710.554	4749.74
710.605	4760.36
710.657	4780.56
710.708	4779.36
710.76	4770.61
710.811	4752.43
710.862	4727.9
710.914	4730.25
710.965	4707.28
711.017	4692.68
711.068	4759.22
711.12	4734.4
711.171	4724.5
711.222	4694.84
711.274	4676.23
711.325	4672.01
711.377	4636.51
711.428	4707.63
711.479	4706.86
711.531	4719.73
711.582	4686.89
711.634	4662.44
711.685	4595.19
711.737	4678.32
711.788	4675.71
711.839	4610.76
711.891	4658.57
711.942	4703.05
711.994	4607.13
712.045	4647.56
712.096	4627.7
712.148	4638.17
712.199	4631.13
712.251	4585.65
712.302	4594.28
712.354	4623.28
712.405	4633.95
712.456	4632.44
712.508	4639.56
712.559	4555.81
712.611	4653.82
712.662	4609.83
712.713	4553.77
712.765	4634.43
712.816	4563.84
712.868	4604.17
712.919	4561.41
712.97	4551.39
713.022	4623.21
713.073	4481.36
713.125	4515.05
713.176	4533.05
713.227	4538.18
713.279	4547.04
713.33	4481.18
713.382	4494.13
713.433	4516.06
713.484	4522.75
713.536	4534.33
713.587	4499.18
713.639	4461.65
713.69	4472.16
713.741	4472.67
713.793	4444.68
713.844	4469.2
713.896	4402.02
713.947	4466.24
713.998	4491.89
714.05	4436
714.101	4431.69
714.153	4469.15
714.204	4465.4
714.255	4414.42
714.307	4468.92
714.358	4449.5
714.41	4433.5
714.461	4419.46
714.512	4422.44
714.564	4427.63
714.615	4391.21
714.666	4398.11
714.718	4412.3
714.769	4363.62
714.821	4382.57
714.872	4343.93
714.923	4323.29
714.975	4369
715.026	4358.03
715.078	4333.91
715.129	4359.48
715.18	4261.77
715.232	4372.89
715.283	4349.32
715.334	4365.36
715.386	4363.02
715.437	4367.83
715.489	4346.04
715.54	4327.63
715.591	4297.77
715.643	4264.26
715.694	4312.59
715.745	4327.12
715.797	4304.35
715.848	4357.03
715.9	4324.27
715.951	4345.73
716.002	4342.38
716.054	4284.74
716.105	4293.02
716.156	4330.07
716.208	4305.69
716.259	4300.67
716.31	4292.29
716.362	4249.07
716.413	4302.87
716.465	4309.17
716.516	4294.51
716.567	4266.12
716.619	4299.17
716.67	4287.41
716.721	4280.8
716.773	4246.72
716.824	4286.24
716.875	4258.39
716.927	4272.13
716.978	4270.09
717.03	4289.95
717.081	4258.83
717.132	4246.97
717.184	4270.65
717.235	4199.03
717.286	4195.24
717.338	4238.86
717.389	4254.47
717.44	4203.86
717.492	4259.16
717.543	4228.53
717.594	4243.4
717.646	4246.47
717.697	4216.55
717.749	4178.47
717.8	4232.31
717.851	4200.37
717.903	4219.62
717.954	4191.84
718.005	4181.32
718.057	4227.42
718.108	4197.1
718.159	4209.33
718.211	4149.64
718.262	4134.48
718.313	4138.83
718.365	4163.95
718.416	4140.61
718.467	4168.87
718.519	4189.5
718.57	4166.2
718.621	4137.72
718.673	4161.18
718.724	4167.83
718.775	4163.17
718.827	4167.9
718.878	4089.56
718.93	4115.8
718.981	4092.08
719.032	4125.12
719.083	4099.15
719.135	4120.59
719.186	4128.69
719.237	4117.58
719.289	4149.54
719.34	4101.22
719.391	4104.93
719.443	4109.18
719.494	4118.67
719.545	4106.87
719.597	4099.13
719.648	4096.27
719.699	4089.45
719.751	4078.72
719.802	4077.02
719.853	4051.07
719.905	4075.39
719.956	4098.4
720.007	4091.84
720.059	4073.15
720.11	4038.84
720.161	4062.7
720.213	4027.7
720.264	4022.57
720.315	3997.06
720.367	4038.67
720.418	4059.34
720.469	4036.25
720.521	4018.25
720.572	4014.14
720.623	4009.29
720.675	4011.25
720.726	4019.87
720.777	3991.42
720.829	3968.19
720.88	3979.44
720.931	4013.56
720.982	3996.32
721.034	3948.38
721.085	3953.06
721.136	3953.06
721.188	3928.63
721.239	3903.64
721.29	3979.53
721.342	3951.2
721.393	3967.15
721.444	3954.02
721.496	3948.58
721.547	3911.15
721.598	3924.35
721.65	3931.82
721.701	3923.26
721.752	3937.25
721.803	3903.39
721.855	3918.98
721.906	3887.92
721.957	3915.97
722.009	3912.47
722.06	3910.36
722.111	3885.08
722.163	3866.71
722.214	3884.91
722.265	3854.6
722.316	3827.38
722.368	3848.01
722.419	3843.54
722.47	3879.32
722.522	3853.69
722.573	3834.84
722.624	3846.94
722.676	3856.18
722.727	3844.62
722.778	3840.14
722.829	3812.85
722.881	3785.43
722.932	3841.22
722.983	3832.49
723.035	3812.48
723.086	3812.07
723.137	3837.4
723.188	3809.05
723.24	3821.05
723.291	3834.84
723.342	3780.34
723.394	3810.2
723.445	3834.35
723.496	3784.4
723.547	3784.44
723.599	3787.09
723.65	3803.51
723.701	3784.28
723.753	3755.22
723.804	3773.93
723.855	3764.12
723.906	3747.87
723.958	3769.56
724.009	3770.91
724.06	3760.99
724.112	3756.75
724.163	3732.65
724.214	3723.56
724.265	3731.84
724.317	3733.67
724.368	3727.66
724.419	3704.28
724.47	3715.57
724.522	3722.76
724.573	3708.73
724.624	3720.05
724.676	3721.9
724.727	3702.46
724.778	3697.03
724.829	3690.05
724.881	3713.13
724.932	3714.81
724.983	3689.1
725.034	3703.29
725.086	3671.72
725.137	3678.87
725.188	3710.66
725.24	3704.06
725.291	3711.08
725.342	3711.78
725.393	3688.94
725.445	3716.69
725.496	3695.53
725.547	3687.55
725.598	3679.65
725.65	3669.51
725.701	3646.12
725.752	3638.97
725.803	3650.59
725.855	3662.09
725.906	3678.2
725.957	3670.86
726.008	3641.11
726.06	3652.39
726.111	3646.45
726.162	3624.45
726.213	3626.04
726.265	3639.4
726.316	3632.24
726.367	3605.85
726.418	3635.56
726.47	3625.61
726.521	3613.18
726.572	3608.12
726.623	3583.48
726.675	3568.29
726.726	3597.6
726.777	3593.52
726.828	3578.13
726.88	3548.84
726.931	3581.89
726.982	3586.59
727.033	3594.36
727.085	3574.87
727.136	3586.74
727.187	3585.9
727.238	3582.51
727.29	3587.55
727.341	3578
727.392	3565.46
727.443	3532.1
727.495	3530.73
727.546	3541.3
727.597	3491.09
727.648	3524.86
727.7	3526.41
727.751	3533.09
727.802	3528.98
727.853	3518.18
727.904	3493.39
727.956	3489.11
728.007	3491.3
728.058	3479.17
728.109	3493.46
728.161	3463.99
728.212	3494.49
728.263	3500.49
728.314	3463.37
728.366	3475.87
728.417	3516.13
728.468	3470.51
728.519	3439.93
728.57	3450.25
728.622	3497.86
728.673	3429.23
728.724	3421.28
728.775	3477.59
728.827	3468.73
728.878	3462.46
728.929	3452.44
728.98	3418.86
729.031	3406.12
729.083	3404.13
729.134	3389.98
729.185	3395.99
729.236	3374.49
729.288	3417.46
729.339	3424.81
729.39	3426.36
729.441	3352.04
729.492	3388.41
729.544	3321.3
729.595	3313.04
729.646	3374.37
729.697	3348.03
729.748	3331.36
729.8	3362.24
729.851	3361.41
729.902	3312.89
729.953	3281.72
730.004	3326.73
730.056	3307.9
730.107	3333.67
730.158	3314.34
730.209	3309.08
730.26	3360.5
730.312	3286.08
730.363	3257.28
730.414	3289.91
730.465	3275.47
730.517	3241.49
730.568	3250.07
730.619	3217.18
730.67	3277.21
730.721	3179.69
730.773	3219.12
730.824	3217.3
730.875	3225.61
730.926	3228.98
730.977	3277.91
731.029	3211.36
731.08	3217.64
731.131	3253.14
731.182	3163.64
731.233	3112.89
731.284	3217.9
731.336	3202.49
731.387	3212.66
731.438	3155.49
731.489	3165.36
731.54	3190.95
731.592	3216.46
731.643	3162.39
731.643	3162
731.694	3254
731.746	3174
731.797	3192.15
731.848	3226.28
731.9	3218.47
731.951	3244.49
732.002	3165.02
732.054	3186.91
732.105	3203.25
732.156	3187.69
732.208	3180.43
732.259	3210.05
732.311	3188.63
732.362	3124.22
732.413	3180.98
732.465	3178.14
732.516	3172.52
732.567	3193.34
732.619	3203.75
732.67	3165.87
732.721	3179.16
732.773	3128.61
732.824	3174
732.875	3142.64
732.927	3200.17
732.978	3140.69
733.029	3196.54
733.081	3155.13
733.132	3205.56
733.183	3187.82
733.235	3148.28
733.286	3153.56
733.337	3114.53
733.389	3139.84
733.44	3149.94
733.491	3168.17
733.543	3169.62
733.594	3120.22
733.645	3142.55
733.697	3167.57
733.748	3144.06
733.799	3104.1
733.851	3120.86
733.902	3111.07
733.953	3114.02
734.005	3112.29
734.056	3169.01
734.107	3160.24
734.158	3104.54
734.21	3166.04
734.261	3118.33
734.312	3137.3
734.364	3154.16
734.415	3092.17
734.466	3144.78
734.518	3181.38
734.569	3139.86
734.62	3143.75
734.672	3117.56
734.723	3137.78
734.774	3179.99
734.826	3098.52
734.877	3144.2
734.928	3126.37
734.98	3163.46
735.031	3182.64
735.082	3123.9
735.133	3172.25
735.185	3234.95
735.236	3193.74
735.287	3201.97
735.339	3190.62
735.39	3218.57
735.441	3172.64
735.493	3148.26
735.544	3138.25
735.595	3186.75
735.647	3219.09
735.698	3209.49
735.749	3192.26
735.8	3193.24
735.852	3188.25
735.903	3207.29
735.954	3200
736.006	3161.48
736.057	3241.96
736.108	3224.42
736.16	3241.51
736.211	3218.77
736.262	3228.97
736.313	3238.2
736.365	3229.06
736.416	3243.12
736.467	3248.12
736.519	3241.81
736.57	3265.19
736.621	3225.49
736.673	3289.6
736.724	3297.63
736.775	3242.33
736.826	3342.91
736.878	3238.74
736.929	3244.42
736.98	3319.34
737.032	3302.08
737.083	3293.79
737.134	3261.31
737.185	3348.05
737.237	3327.43
737.288	3375.44
737.339	3351.7
737.391	3367.64
737.442	3332.49
737.493	3359.34
737.544	3343.77
737.596	3302.89
737.647	3370.18
737.698	3396.05
737.75	3390.75
737.801	3400.73
737.852	3406.94
737.903	3424.12
737.955	3406.88
738.006	3411.41
738.057	3422.21
738.109	3405.46
738.16	3439.93
738.211	3389.44
738.262	3407.44
738.314	3395.74
738.365	3410.63
738.416	3358.6
738.468	3368.53
738.519	3314.45
738.57	3390.18
738.621	3365.19
738.673	3367.16
738.724	3387.5
738.775	3378.37
738.826	3360.77
738.878	3362.42
738.929	3368.63
738.98	3350.87
739.031	3338.04
739.083	3318.89
739.134	3333.98
739.185	3334.34
739.237	3310.56
739.288	3294.96
739.339	3300.99
739.39	3297.18
739.442	3237.87
739.493	3230.22
739.544	3258.98
739.595	3235.5
739.647	3269.64
739.698	3232.38
739.749	3255.65
739.8	3231.25
739.852	3222.74
739.903	3205.75
739.954	3210.72
740.005	3183.27
740.057	3190.48
740.108	3163.92
740.159	3168.65
740.211	3151.44
740.262	3140.99
740.313	3136.28
740.364	3107.77
740.416	3096.85
740.467	3080.91
740.518	3113.61
740.569	3122.78
740.621	3058.64
740.672	3105.94
740.723	3050.62
740.774	3045.92
740.826	3085.75
740.877	3055.16
740.928	3079.83
740.979	3030.64
741.031	3060.97
741.082	3042.81
741.133	3023.2
741.184	3035.05
741.235	3005.13
741.287	3030.41
741.338	3006.93
741.389	3019.63
741.44	2995.04
741.492	3014.19
741.543	2988.03
741.594	2982.53
741.645	3010.2
741.697	2990.15
741.748	2980.37
741.799	2944.58
741.85	2945.36
741.902	2947.18
741.953	2956.64
742.004	2931.01
742.055	2909.01
742.107	2935.31
742.158	2919.69
742.209	2899.54
742.26	2923.78
742.311	2890.3
742.363	2881.58
742.414	2885.17
742.465	2920.4
742.516	2897.19
742.568	2874.16
742.619	2857.66
742.67	2879.04
742.721	2877.75
742.773	2880.49
742.824	2870.97
742.875	2875.85
742.926	2860.37
742.977	2837.36
743.029	2869.01
743.08	2826.14
743.131	2849.49
743.182	2833.72
743.234	2817.74
743.285	2843.97
743.336	2835.67
743.387	2818.94
743.438	2794
743.49	2821.17
743.541	2778.49
743.592	2796.55
743.643	2828.34
743.694	2802.18
743.746	2805.25
743.797	2790.53
743.848	2802.1
743.899	2784.62
743.951	2732.56
744.002	2745.25
744.053	2735.13
744.104	2762.13
744.155	2741.28
744.207	2744.41
744.258	2760.85
744.309	2771.88
744.36	2747.85
744.411	2770.66
744.463	2746.79
744.514	2731.26
744.565	2738.37
744.616	2758.44
744.667	2734.02
744.719	2734.09
744.77	2760.56
744.821	2716.2
744.872	2746.13
744.923	2738.14
744.975	2729.87
745.026	2699.31
745.077	2696.39
745.128	2671.32
745.179	2674.91
745.231	2677.05
745.282	2689.8
745.333	2706.25
745.384	2698.73
745.435	2708.42
745.487	2704.76
745.538	2680.93
745.589	2676.4
745.64	2648.34
745.691	2647.01
745.743	2648.91
745.794	2642.33
745.845	2657.88
745.896	2671.53
745.947	2679.06
745.998	2666.24
746.05	2678.12
746.101	2655.29
746.152	2626.92
746.203	2639.86
746.254	2641.86
746.306	2657.83
746.357	2652.92
746.408	2677.83
746.459	2660.76
746.51	2623.94
746.562	2641.01
746.613	2654.13
746.664	2626.44
746.715	2600.03
746.766	2613.38
746.817	2598.96
746.869	2624.14
746.92	2614.22
746.971	2585.45
747.022	2598.3
747.073	2600.98
747.125	2626.37
747.176	2603.85
747.227	2592.01
747.278	2562.68
747.329	2594.19
747.38	2578.87
747.432	2567.21
747.483	2574.39
747.534	2569.02
747.585	2569.62
747.636	2586.26
747.687	2569.38
747.739	2574.31
747.79	2588.38
747.841	2590.76
747.892	2571.16
747.943	2565.62
747.994	2576.32
748.046	2579.81
748.097	2560.55
748.148	2591.09
748.199	2602.54
748.25	2572.68
748.301	2556.9
748.352	2530.82
748.404	2536.84
748.455	2559.84
748.506	2575.24
748.557	2590.1
748.608	2574.71
748.659	2558.42
748.711	2556.8
748.762	2544.49
748.813	2540.35
748.864	2527.5
748.915	2533.6
748.966	2545.11
749.018	2518.54
749.069	2505.31
749.12	2522.83
749.171	2548.51
749.222	2509.59
749.273	2511.56
749.324	2491.25
749.376	2495.16
749.427	2510.38
749.478	2526.76
749.529	2500.06
749.58	2498.23
749.631	2521.7
749.682	2517.01
749.734	2475.49
749.785	2485.51
749.836	2501.98
749.887	2487.9
749.938	2490.08
749.989	2463.78
750.04	2474.53
750.092	2495.86
750.143	2476.93
750.194	2490.81
750.245	2514.06
750.296	2454.31
750.347	2485.65
750.398	2491.56
750.45	2465.83
750.501	2438.91
750.552	2466.09
750.603	2468.02
750.654	2419.35
750.705	2452.65
750.756	2480.75
750.807	2474.86
750.859	2460.64
750.91	2462.99
750.961	2475.38
751.012	2448.41
751.063	2454.4
751.114	2443.79
751.165	2425.34
751.216	2427.48
751.268	2447.97
751.319	2438.21
751.37	2469.87
751.421	2415.73
751.472	2420.91
751.523	2424.1
751.574	2428.82
751.625	2400.51
751.677	2386.97
751.728	2430.77
751.779	2407.58
751.83	2402.36
751.881	2354.43
751.932	2414.6
751.983	2390.01
752.034	2344.83
752.086	2352.88
752.137	2393.05
752.188	2352.88
752.239	2403.76
752.29	2407.79
752.341	2390.77
752.392	2385.86
752.443	2387.29
752.494	2352.18
752.546	2386.1
752.597	2364.94
752.648	2369.54
752.699	2361.51
752.75	2371.32
752.801	2365.01
752.852	2358.96
752.903	2345.74
752.954	2298.16
753.005	2328.77
753.057	2332
753.108	2307.99
753.159	2311.04
753.21	2321.14
753.261	2313.39
753.312	2347.9
753.363	2322.37
753.414	2282.78
753.465	2320.27
753.516	2319.66
753.568	2330.82
753.619	2337.59
753.67	2301.64
753.721	2280.02
753.772	2328.3
753.823	2290.99
753.874	2295.29
753.925	2316.51
753.976	2290.88
754.027	2298.81
754.079	2272.35
754.13	2288.57
754.181	2312.42
754.232	2289.32
754.283	2281.6
754.334	2288.97
754.385	2293.43
754.436	2241.11
754.487	2256.18
754.538	2252.71
754.589	2269.25
754.641	2229.55
754.692	2215.26
754.743	2250.45
754.794	2244.48
754.845	2232.67
754.896	2224.87
754.947	2196.94
754.998	2216.11
755.049	2279.55
755.1	2218.43
755.151	2254.6
755.202	2226.99
755.253	2258.62
755.305	2205.29
755.356	2236.73
755.407	2201.83
755.458	2251.56
755.509	2225.19
755.56	2173.65
755.611	2198.81
755.662	2185.97
755.713	2225.1
755.764	2150.64
755.815	2157.05
755.866	2213.03
755.917	2177.12
755.968	2190.41
756.02	2211.69
756.071	2178.76
756.122	2169.95
756.173	2152.33
756.224	2156.95
756.275	2225.62
756.326	2193.6
756.377	2187.84
756.428	2140.33
756.479	2149.88
756.53	2181.58
756.581	2169.11
756.632	2141.67
756.683	2121.25
756.734	2146.06
756.785	2150.62
756.837	2156.81
756.888	2111.58
756.939	2107.98
756.99	2100.34
757.041	2154.47
757.092	2165.26
757.143	2110.56
757.194	2124.57
757.245	2118.02
757.296	2131.69
757.347	2149.4
757.398	2111.2
757.449	2100.91
757.5	2150.83
757.551	2122.11
757.602	2131.14
757.653	2056.74
757.704	2102.99
757.755	2123.96
757.807	2097.46
757.858	2105.39
757.909	2099.66
757.917	2098
757.968	2100.01
758.02	2078.08
758.071	2096.03
758.122	2137.72
758.173	2147.61
758.224	2123.59
758.276	2109.89
758.327	2066.81
758.378	2120.3
758.429	2096.11
758.48	2115.96
758.532	2074.22
758.583	2106.95
758.634	2056.94
758.685	2040.48
758.736	2091.18
758.788	2063.88
758.839	2098.68
758.89	2053.74
758.941	2085.36
758.992	2035.23
759.044	2080.22
759.095	2084.14
759.146	2077.55
759.197	2088.37
759.248	2017.67
759.3	2044.02
759.351	2027.77
759.402	2050.29
759.453	2043.35
759.504	2007.93
759.556	2028.43
759.607	2060.97
759.658	2018.44
759.709	1997.54
759.76	2005.68
759.811	2009.21
759.863	2018.84
759.914	1978.49
759.965	2001.72
760.016	2025.89
760.067	1994.68
760.119	1989.7
760.17	2036.83
760.221	2000.74
760.272	1980.24
760.323	2006.57
760.375	1977.07
760.426	1975.9
760.477	1956.9
760.528	1995.12
760.579	2003.51
760.63	1965.25
760.682	1955.56
760.733	1934.55
760.784	1944.52
760.835	1903.89
760.886	1966.87
760.937	1960.08
760.989	1931.49
761.04	1963.57
761.091	1925.64
761.142	1973.03
761.193	1934.11
761.245	1934.62
761.296	1951.93
761.347	1947.31
761.398	1952.33
761.449	1964.76
761.5	1921.52
761.552	1908.22
761.603	1935.39
761.654	1939.94
761.705	1923.73
761.756	1926.27
761.807	1919.49
761.859	1924.02
761.91	1849.99
761.961	1950.84
762.012	1908.73
762.063	1916.23
762.114	1914.01
762.165	1929.49
762.217	1890.27
762.268	1898.06
762.319	1921.65
762.37	1877.91
762.421	1931.76
762.472	1898.65
762.524	1889.23
762.575	1895.91
762.626	1875.34
762.677	1878.48
762.728	1865.77
762.779	1892.74
762.831	1902.78
762.882	1865.35
762.933	1866.92
762.984	1880.21
763.035	1899.87
763.086	1892.7
763.137	1851.36
763.189	1858.95
763.24	1883.35
763.291	1874.26
763.342	1866.94
763.393	1858.24
763.444	1832.83
763.495	1850.29
763.547	1837.56
763.598	1819.28
763.649	1816.65
763.7	1851.97
763.751	1866.97
763.802	1829.26
763.853	1792.39
763.905	1820.55
763.956	1855.97
764.007	1860.14
764.058	1852.74
764.109	1819.14
764.16	1814.49
764.211	1829.9
764.263	1810.09
764.314	1836.3
764.365	1822.06
764.416	1818.41
764.467	1795.83
764.518	1809.68
764.569	1805.55
764.621	1822.16
764.672	1787.33
764.723	1801.27
764.774	1807.34
764.825	1779.37
764.876	1796.69
764.927	1838.08
764.978	1801.61
765.03	1799.53
765.081	1792.25
765.132	1785.49
765.183	1763.37
765.234	1793.18
765.285	1780.63
765.336	1823.29
765.387	1783.21
765.439	1780.5
765.49	1802.36
765.541	1766.68
765.592	1785.31
765.643	1759.92
765.694	1789.26
765.745	1798.75
765.796	1786.75
765.848	1743.57
765.899	1757.74
765.95	1740.47
766.001	1776.92
766.052	1729.96
766.103	1773.94
766.154	1752.55
766.205	1740.98
766.256	1772.31
766.308	1742.32
766.359	1731.07
766.41	1725.35
766.461	1739.17
766.512	1731.28
766.563	1719.17
766.614	1740.94
766.665	1734.44
766.716	1712.17
766.768	1734.12
766.819	1741.32
766.87	1721.96
766.921	1738.27
766.972	1713.16
767.023	1708.35
767.074	1684.43
767.125	1718.25
767.176	1695.88
767.227	1690.44
767.279	1688.73
767.33	1718.89
767.381	1713.54
767.432	1669.33
767.483	1717.27
767.534	1667.61
767.585	1702.1
767.636	1674.57
767.687	1694.05
767.739	1686.74
767.79	1689.36
767.841	1665.34
767.892	1717.01
767.943	1655.64
767.994	1665.67
768.045	1661.14
768.096	1658.88
768.147	1675.19
768.198	1651.44
768.249	1684.84
768.301	1684.69
768.352	1653.47
768.403	1664.55
768.454	1653.43
768.505	1650.97
768.556	1658.17
768.607	1654.1
768.658	1625.43
768.709	1663.97
768.76	1613.48
768.811	1645.21
768.862	1639.18
768.914	1640.96
768.965	1619.83
769.016	1636.21
769.067	1628.65
769.118	1625.17
769.169	1604.7
769.22	1632.31
769.271	1601.72
769.322	1639.68
769.373	1603.56
769.424	1582.27
769.475	1622.85
769.526	1621.34
769.578	1610.67
769.629	1585.59
769.68	1602.42
769.731	1615.25
769.782	1572.22
769.833	1575.26
769.884	1589.16
769.935	1594.67
769.986	1589.37
770.037	1587.17
770.088	1600.09
770.139	1571.74
770.19	1587.01
770.242	1569.25
770.293	1598.81
770.344	1584.73
770.395	1564.78
770.446	1540.28
770.497	1552.7
770.548	1557.77
770.599	1554.58
770.65	1571.81
770.701	1571.66
770.752	1550.57
770.803	1523.97
770.854	1542.02
770.905	1541.97
770.956	1571.02
771.007	1562.06
771.058	1523.41
771.11	1540.63
771.161	1532.12
771.212	1522.23
771.263	1545.93
771.314	1509.82
771.365	1525.58
771.416	1498.6
771.467	1488.19
771.518	1498.16
771.569	1498.66
771.62	1513.38
771.671	1529.48
771.722	1536.95
771.773	1509.86
771.824	1501.73
771.875	1470.95
771.926	1483.51
771.977	1489.38
772.028	1504.94
772.079	1498
772.131	1499.14
772.182	1486.76
772.233	1476.65
772.284	1479.01
772.335	1458.94
772.386	1487.15
772.437	1480.27
772.488	1481.02
772.539	1470.52
772.59	1456.16
772.641	1459.15
772.692	1479.42
772.743	1449.1
772.794	1455.85
772.845	1475.34
772.896	1444.11
772.947	1458.71
772.998	1473.66
773.049	1435.27
773.1	1469.85
773.151	1436.89
773.202	1446.4
773.253	1460.39
773.304	1445.16
773.355	1454.13
773.406	1445.24
773.457	1431.73
773.508	1445.42
773.56	1426.12
773.611	1417.86
773.662	1450.51
773.713	1427.97
773.764	1422.19
773.815	1430.66
773.866	1398.02
773.917	1400.55
773.968	1403.58
774.019	1419.28
774.07	1411.95
774.121	1401.85
774.172	1441.11
774.223	1424.43
774.274	1416.31
774.325	1414.63
774.376	1399.8
774.427	1390.99
774.478	1379.88
774.529	1408.62
774.58	1385.71
774.631	1390.11
774.682	1372.44
774.733	1374.24
774.784	1390.69
774.835	1383.28
774.886	1390.5
774.937	1362.16
774.988	1385.3
775.039	1396.07
775.09	1382.4
775.141	1380.79
775.192	1392.69
775.243	1373.67
775.294	1348.03
775.345	1351.4
775.396	1362.35
775.447	1361.87
775.498	1340.07
775.549	1357.32
775.6	1351.05
775.651	1347.88
775.702	1362.26
775.753	1356.23
775.804	1361.85
775.855	1355.21
775.906	1339.82
775.957	1352.64
776.008	1338.99
776.059	1336.5
776.11	1329.5
776.161	1323.19
776.212	1320.34
776.263	1325.8
776.314	1312.24
776.365	1329.91
776.416	1330.31
776.467	1329.09
776.518	1301.44
776.569	1313.01
776.62	1313.95
776.671	1306.82
776.722	1312.3
776.773	1314.14
776.824	1304.5
776.875	1287.7
776.926	1291.11
776.977	1318.45
777.028	1290.56
777.079	1290.72
777.13	1272.57
777.181	1287.52
777.232	1304.97
777.283	1302.04
777.334	1282.29
777.385	1293.47
777.436	1278.36
777.487	1296.9
777.538	1297.68
777.589	1281.43
777.64	1292.71
777.691	1300.02
777.742	1266.19
777.793	1271.44
777.844	1282.97
777.895	1274.69
777.946	1267.38
777.997	1261.56
778.047	1260.46
778.098	1258.47
778.149	1254.66
778.2	1243.27
778.251	1249.67
778.302	1245.25
778.353	1247.02
778.404	1242.87
778.455	1233.3
778.506	1251.68
778.557	1267.55
778.608	1228.6
778.659	1219.05
778.71	1252.29
778.761	1261.95
778.812	1241.42
778.863	1228.41
778.914	1228.33
778.965	1229.5
779.016	1233.58
779.067	1229.73
779.118	1218.41
779.169	1218.66
779.22	1227.7
779.271	1235.19
779.322	1217.94
779.373	1210.61
779.424	1252.22
779.474	1244.53
779.525	1224.32
779.576	1211.04
779.627	1219
779.678	1232.81
779.729	1226.64
779.78	1195.71
779.831	1183.39
779.882	1189.96
779.933	1188.18
779.984	1198.63
780.035	1198.17
780.086	1182.83
780.137	1184.3
780.188	1192.39
780.239	1210.77
780.29	1203.65
780.341	1184.21
780.392	1182.66
780.442	1180.86
780.493	1177.11
780.544	1176.37
780.595	1186.39
780.646	1180.96
780.697	1169.61
780.748	1179.18
780.799	1185.46
780.85	1188.8
780.901	1159.41
780.952	1124.78
781.003	1135.17
781.054	1158.01
781.105	1162.44
781.156	1165.71
781.207	1152.85
781.257	1160
781.308	1174.39
781.359	1159.89
781.41	1140.94
781.461	1149.04
781.512	1159.4
781.563	1154.07
781.614	1142.98
781.665	1156.56
781.716	1148.54
781.767	1133.29
781.818	1125.32
781.869	1129.65
781.919	1131.2
781.97	1109.68
782.021	1123.86
782.072	1134.11
782.123	1133.5
782.174	1136.84
782.225	1126.42
782.276	1122.24
782.327	1112.4
782.378	1116.1
782.429	1109.27
782.48	1101.72
782.531	1115.71
782.581	1092.96
782.632	1075.5
782.683	1104.6
782.734	1109.17
782.785	1107.94
782.836	1113.67
782.887	1099.85
782.938	1093.32
782.989	1079.01
783.04	1085.45
783.091	1098.77
783.141	1086.29
783.192	1112.91
783.243	1098.52
783.294	1081.51
783.345	1082.06
783.396	1065.83
783.447	1044.68
783.498	1066.7
783.549	1088.77
783.6	1075.3
783.651	1070.84
783.701	1047.26
783.752	1071.52
783.803	1061.71
783.854	1071.54
783.905	1055.28
783.956	1077.91
784.007	1074.93
784.058	1061.39
784.1	1068
784.151	1067.99
784.202	1054.07
784.253	1057.99
784.304	1068.11
784.355	1063.89
784.406	1057.74
784.458	1061.43
784.509	1067.66
784.56	1036.11
784.611	1071.08
784.662	1067.74
784.713	1044.22
784.764	1067.77
784.815	1041.84
784.866	1003.8
784.917	1032.15
784.968	1000.7
785.019	1043.4
785.07	1044.13
785.121	1025.42
785.172	1012.76
785.223	1028.64
785.274	1017.14
785.326	1038.4
785.377	1052.75
785.428	1012.65
785.479	1015.44
785.53	1002.61
785.581	1023.28
785.632	1024.47
785.683	1015.01
785.734	1001.62
785.785	991.246
785.836	1025.64
785.887	1044.67
785.938	989.477
785.989	1005.8
786.04	1000.87
786.091	990.46
786.142	993.166
786.193	1012.76
786.244	990.011
786.295	1021.32
786.346	991.657
786.397	1000.96
786.448	995.589
786.5	996.738
786.551	1005.86
786.602	987.912
786.653	973.325
786.704	989.703
786.755	954.654
786.806	995.162
786.857	940.37
786.908	995.115
786.959	1003.11
787.01	979.568
787.061	940.512
787.112	982.356
787.163	984.525
787.214	967.544
787.265	982.375
787.316	956.766
787.367	988.851
787.418	955.526
787.469	949.294
787.52	949.241
787.571	944.887
787.622	934.795
787.673	960.112
787.724	990.263
787.775	938.789
787.826	952.005
787.877	930.017
787.928	952.827
787.979	988.194
788.03	944.903
788.081	931.428
788.132	948.775
788.183	936.428
788.234	925.342
788.285	933.485
788.336	923.985
788.387	935.57
788.438	939.88
788.49	914.471
788.541	951.143
788.591	923.346
788.643	953.884
788.694	958.896
788.745	927.226
788.796	922.623
788.847	936.756
788.898	921.733
788.949	926.532
789	916.718
789.051	933.943
789.102	940.049
789.153	910.104
789.204	928.3
789.255	902.922
789.306	928.956
789.357	936.631
789.408	901.875
789.459	906.319
789.51	929.517
789.561	916.995
789.612	899.11
789.663	898.471
789.714	909.527
789.765	917.612
789.816	901.258
789.867	882.658
789.918	900.232
789.969	902.957
790.02	911.527
790.071	865.452
790.122	900.789
790.173	904.5
790.224	883.317
790.275	872.493
790.326	864.248
790.377	876.824
790.428	892.68
790.479	890.317
790.53	871.415
790.581	886.673
790.632	869.992
790.682	854.756
790.734	872.05
790.784	856.856
790.836	873.504
790.886	856.051
790.937	864.662
790.988	895.061
791.039	892.507
791.09	855.878
791.141	863.241
791.192	851.982
791.243	853.571
791.294	861.643
791.345	859.94
791.396	862.621
791.447	871.248
791.498	841.37
791.549	842.582
791.6	867.969
791.651	877.005
791.702	834.65
791.753	841.055
791.804	838.104
791.855	853.255
791.906	840.236
791.957	851.446
792.008	862.237
792.059	837.438
792.11	847.286
792.161	854.456
792.212	858.093
792.263	828.751
792.314	846.409
792.365	826.856
792.416	841.214
792.467	822.803
792.518	829.674
792.569	828.347
792.62	849.012
792.671	805.18
792.722	825.297
792.773	832.861
792.823	828.475
792.874	814.219
792.925	839.121
792.976	832.445
793.027	823.804
793.078	819.428
793.129	800.046
793.18	823.98
793.231	828.677
793.282	812.88
793.333	795.848
793.384	810.09
793.435	817.694
793.486	821.714
793.537	813.493
793.588	803.374
793.639	807.027
793.69	805.182
793.741	796.604
793.792	805.787
793.843	809.248
793.894	800.237
793.945	793.086
793.995	802.747
794.046	786.005
794.097	806.569
794.148	796.28
794.199	806.744
794.25	796.411
794.301	787.976
794.352	779.377
794.403	773.198
794.454	786.909
794.505	797.718
794.556	787.994
794.607	792.438
794.658	784.125
794.709	765.582
794.76	764.472
794.811	773.768
794.862	759.787
794.912	766.274
794.963	772.043
795.014	785.404
795.065	749.669
795.116	775.674
795.167	781.233
795.218	765.851
795.269	771.306
795.32	762.279
795.371	756.298
795.422	769.179
795.473	770.766
795.524	750.541
795.575	780.34
795.625	770.287
795.676	777.453
795.727	760.972
795.778	764.756
795.829	748.742
795.88	746.003
795.931	759.1
795.982	753.154
796.033	747.344
796.084	757.845
796.135	765.796
796.186	760.458
796.237	754.191
796.287	739.944
796.338	749.886
796.389	742.819
796.44	738.151
796.491	738.336
796.542	744.302
796.593	740.138
796.644	749.14
796.695	744.836
796.746	734.429
796.797	749.992
796.848	751.131
796.898	751.983
796.949	718.446
797	716.784
797.051	737.858
797.102	737.964
797.153	745.998
797.204	726.776
797.255	725.389
797.306	733.21
797.357	739.078
797.408	728.855
797.458	725.336
797.509	713.971
797.56	713.863
797.611	715.688
797.662	713.477
797.713	724.757
797.764	704.276
797.815	709.139
797.866	714.31
797.917	713.144
797.968	715.506
798.018	720.482
798.069	714.625
798.12	685.971
798.171	694.908
798.222	710.174
798.273	721.395
798.324	716.068
798.375	703.353
798.426	701.045
798.477	689.214
798.527	689.515
798.578	694.432
798.629	694.783
798.68	688.552
798.731	705.11
798.782	677.463
798.833	686.31
798.884	698.976
798.935	701.68
798.985	689.836
799.036	696.139
799.087	693.868
799.138	694.506
799.189	690.365
799.24	682.065
799.291	676.791
799.342	678.9
799.393	679.781
799.443	677.014
799.494	667.714
799.545	674.718
799.596	676.764
799.647	669.356
799.698	674.307
799.749	673.672
799.8	667.303
799.85	667.758
799.901	666.774
799.952	672.131
800.003	673.129
800.054	645.545
800.105	653.363
800.156	681.368
800.207	663.784
800.257	677.308
800.308	665.416
800.359	675.044
800.41	670.513
800.461	671.513
800.512	659.902
800.563	653.609
800.613	659.054
800.664	661.682
800.715	660.652
800.766	657.501
800.817	653.843
800.868	665.962
800.919	668.474
800.97	652.577
801.02	652.815
801.071	655.572
801.122	649.104
801.173	651.57
801.224	652.788
801.275	661.56
801.326	641.011
801.376	654.469
801.427	649.523
801.478	650.268
801.529	648.55
801.58	641.39
801.631	636.367
801.682	639.125
801.732	645.588
801.783	632.461
801.834	634.803
801.885	636.344
801.936	627.465
801.987	629.355
802.038	619.263
802.088	630.446
802.139	629.784
802.19	620.951
802.241	633.18
802.292	628.097
802.343	610.037
802.393	626.582
802.444	632.678
802.495	629.104
802.546	634.278
802.597	611.404
802.648	601.692
802.698	612.097
802.749	618.75
802.8	612.162
802.851	587.272
802.902	610.897
802.953	608.478
803.004	609.135
803.054	602.811
803.105	617.026
803.156	624.755
803.207	612.145
803.258	613.898
803.309	591.306
803.359	615.365
803.41	586.118
803.461	619.399
803.512	590.577
803.563	592.331
803.614	610.897
803.664	612.417
803.715	611.004
803.766	619.766
803.817	618.753
803.868	594.486
803.919	608.184
803.969	599.123
804.02	579.381
804.071	594.072
804.122	592.198
804.173	597.287
804.223	587.185
804.274	587.349
804.325	585.678
804.376	598.082
804.427	596.284
804.478	587.592
804.528	596.053
804.579	605.579
804.63	569.304
804.681	594.5
804.732	604.168
804.782	581.016
804.833	582.09
804.884	588.792
804.935	585.307
804.986	570.093
805.036	570.081
805.087	573.522
805.138	582.481
805.189	575.489
805.24	577.39
805.291	581.62
805.341	576.586
805.392	592.675
805.443	536.339
805.494	569.188
805.545	564.408
805.595	564.554
805.646	557.043
805.697	562.234
805.748	576.846
805.799	573.034
805.849	565.835
805.9	559.288
805.951	574.075
806.002	560.291
806.053	571.172
806.103	572.627
806.154	587.909
806.205	577.406
806.256	545.898
806.307	555.729
806.357	563.903
806.408	564.562
806.459	552.73
806.51	570.71
806.561	551.156
806.611	558.221
806.662	559.294
806.713	555.67
806.764	544.821
806.815	544.102
806.865	560.49
806.916	563.005
806.967	553.044
807.018	560
807.068	546.11
807.119	533.402
807.17	568.323
807.221	551.856
807.272	537.937
807.322	534.217
807.373	531.71
807.424	551.945
807.475	539.012
807.526	531.414
807.576	547.34
807.627	526.209
807.678	537.081
807.729	542.725
807.779	527.483
807.83	533.926
807.881	548.117
807.932	534.868
807.982	526.341
808.033	535.096
808.084	541.585
808.135	549.867
808.186	533.058
808.236	546.393
808.287	538.209
808.338	524.243
808.389	525.732
808.439	524.749
808.49	529.803
808.541	506.222
808.592	508.444
808.643	510.102
808.693	517.15
808.744	522.891
808.795	535.488
808.846	542.822
808.896	533.708
808.947	528.736
808.998	513.652
809.049	509.79
809.099	516.837
809.15	519.096
809.201	512.692
809.252	514.109
809.302	514
809.353	506.514
809.404	509.225
809.455	515.968
809.505	505.978
809.556	513.322
809.607	526.318
809.658	508.428
809.708	509.27
809.759	520.199
809.81	520.134
809.861	511.546
809.911	511.784
809.962	504.925
810.013	519.462
810.064	522.218
810.114	505.141
810.133	498
810.183	504
810.234	517.998
810.285	515.991
810.336	509.979
810.387	502.088
810.438	510.07
810.489	497.983
810.54	505.973
810.591	492.302
810.642	486.161
810.693	493.812
810.743	507.809
810.794	490.349
810.845	491.827
810.896	501.683
810.947	502.028
810.998	497.791
811.049	496.06
811.1	486.295
811.151	494.781
811.202	507.883
811.253	484.562
811.303	505.051
811.354	499.159
811.405	512.728
811.456	491.877
811.507	494.373
811.558	484.474
811.609	490.429
811.66	493.498
811.711	487.178
811.762	483.821
811.813	481.139
811.863	476.343
811.914	468.554
811.965	460.758
812.016	484.027
812.067	497.649
812.118	475.653
812.169	467.737
812.22	486.089
812.271	471.165
812.321	470.644
812.372	481.669
812.423	478.511
812.474	477.772
812.525	451.31
812.576	469.272
812.627	468.891
812.678	456.62
812.729	471.377
812.779	476.501
812.83	461.912
812.881	465.903
812.932	487.909
812.983	474.893
813.034	481.242
813.085	455.173
813.136	447.797
813.187	476.339
813.237	451.373
813.288	450.654
813.339	455.759
813.39	469.391
813.441	458.224
813.492	482.936
813.543	450.718
813.594	470.313
813.644	466.109
813.695	467.355
813.746	454.716
813.797	458.702
813.848	469.227
813.899	459.62
813.95	423.011
814.001	456.112
814.051	455.171
814.102	454.491
814.153	458.141
814.204	445.776
814.255	444.622
814.306	455.716
814.357	439.21
814.408	464.016
814.458	469.926
814.509	443.918
814.56	441.307
814.611	457.077
814.662	440.371
814.713	436.826
814.764	437.101
814.814	431.889
814.865	448.375
814.916	438.21
814.967	454.011
815.018	433.479
815.069	450.996
815.12	437.817
815.17	445.649
815.221	448.23
815.272	433.839
815.323	439.657
815.374	441.801
815.425	439.001
815.476	426.648
815.526	434.767
815.577	424.671
815.628	437.636
815.679	437.875
815.73	427.211
815.781	426.541
815.832	423.612
815.882	417.952
815.933	426.619
815.984	435.941
816.035	419.618
816.086	449.013
816.137	421.853
816.188	427.207
816.238	410.171
816.289	446.544
816.34	430.063
816.391	417.275
816.442	427.803
816.493	421.143
816.543	426.508
816.594	436.636
816.645	433.626
816.696	414.076
816.747	424.327
816.798	420.297
816.848	431.534
816.899	421.771
816.95	415.481
817.001	432.176
817.052	426.496
817.103	426.893
817.153	421.322
817.204	425.147
817.255	416.328
817.306	419.335
817.357	427.207
817.408	412.166
817.458	422.599
817.509	406.953
817.56	411.453
817.611	410.711
817.662	415.296
817.713	417.423
817.763	396.859
817.814	411.062
817.865	392.748
817.916	409.446
817.967	404.002
818.018	413.202
818.068	407.977
818.119	398.625
818.17	397.362
818.221	414.515
818.272	402.763
818.323	401.624
818.373	396.709
818.424	403.279
818.475	406.297
818.526	402.158
818.577	391.703
818.627	398.279
818.678	398.742
818.729	386.958
818.78	400.704
818.831	415.219
818.881	383.075
818.932	379.884
818.983	401.01
819.034	400.796
819.085	385.575
819.135	404.955
819.186	392.836
819.237	414.327
819.288	397.113
819.339	381.763
819.39	389.991
819.44	398.345
819.491	394.991
819.542	387.566
819.593	394.982
819.644	391.811
819.694	388.544
819.745	385.157
819.796	388.608
819.847	398.902
819.898	378.578
819.948	377.212
819.999	373.577
820.05	393.206
820.101	381.549
820.152	381.97
820.202	368.369
820.253	395.971
820.304	377.51
820.355	379.15
820.406	365.793
820.456	382.199
820.507	375.396
820.558	373.15
820.609	373.413
820.66	387.277
820.71	387.305
820.761	371.764
820.812	383.686
820.863	367.765
820.914	372.178
820.964	379.771
821.015	376.043
821.066	379.085
821.117	375.804
821.167	364.92
821.218	373.391
821.269	371.382
821.32	368.946
821.371	373.338
821.421	366.24
821.472	384.842
821.523	353.849
821.574	370.317
821.624	356.136
821.675	373.558
821.726	361.027
821.777	362.223
821.828	369.608
821.878	360.42
821.929	356.548
821.98	361.104
822.031	354.137
822.081	345.04
822.132	359.315
822.183	361.002
822.234	357.851
822.285	359.911
822.335	356.039
822.386	362.084
822.437	362.288
822.488	368.53
822.538	352.22
822.589	368.504
822.64	366.198
822.691	355.237
822.741	354.018
822.792	345.066
822.843	359.3
822.894	350.162
822.945	359.724
822.995	343.421
823.046	351.756
823.097	336.814
823.148	353.285
823.198	347.079
823.249	348.067
823.3	353.012
823.351	347.956
823.401	357.7
823.452	336.064
823.503	352.871
823.554	347.227
823.604	355.937
823.655	355.805
823.706	329.265
823.757	344.271
823.807	357.792
823.858	340.847
823.909	348.397
823.96	341.263
824.01	353.613
824.061	344.724
824.112	334.738
824.163	340.98
824.213	351.573
824.264	345
824.315	343.718
824.366	332.762
824.416	345.815
824.467	345.924
824.518	329.395
824.569	343.706
824.619	344.724
824.67	339.714
824.721	335.816
824.772	342.053
824.822	331.085
824.873	332.326
824.924	332.981
824.974	338.613
825.025	335.161
825.076	335.421
825.127	332.645
825.177	344.39
825.228	328.457
825.279	337.279
825.33	326.744
825.38	347.439
825.431	341.673
825.482	327.183
825.533	327.034
825.583	336.434
825.634	319.772
825.685	333.255
825.735	333.566
825.786	336.543
825.837	325.04
825.888	336.405
825.938	327.107
825.989	327.023
826.04	329.491
826.091	334.331
826.141	319.504
826.192	325.742
826.243	330.581
826.293	322.755
826.344	329.051
826.395	323.319
826.446	328.75
826.496	330.237
826.547	327.869
826.598	319.945
826.648	325.117
826.699	325.827
826.75	321.827
826.801	331.4
826.851	319.2
826.902	315.593
826.953	313.75
827.003	319.563
827.054	309.821
827.105	329.515
827.156	333.061
827.206	315.989
827.257	319.667
827.308	321.416
827.358	320.099
827.409	309.765
827.46	317.878
827.511	324.106
827.561	315.523
827.612	319.369
827.663	308.835
827.713	316.97
827.764	311.268
827.815	314.278
827.865	311.063
827.916	311.99
827.967	315.662
828.018	309.346
828.068	320.222
828.119	310.255
828.17	298.894
828.22	305.822
828.271	307.558
828.322	310.638
828.372	303.204
828.423	302.806
828.474	303.407
828.525	314.506
828.575	302.37
828.626	309.576
828.677	312.596
828.727	310.317
828.778	310.598
828.829	317.573
828.879	316
828.93	305.523
828.981	297.366
829.031	306.269
829.082	310.09
829.133	298.912
829.183	300.691
829.234	297.133
829.285	296.704
829.336	299.879
829.386	299.116
829.437	308.618
829.488	306.163
829.538	304.377
829.589	294.427
829.64	294.87
829.69	301.683
829.741	297.315
829.792	296.41
829.842	301.664
829.893	303.182
829.944	302.755
829.994	298.327
830.045	300.143
830.096	290.035
830.146	293.551
830.197	293.235
830.248	287.186
830.298	299.752
830.349	305.596
830.4	292.116
830.45	287.537
830.501	291.163
830.552	294.27
830.602	285.898
830.653	292.005
830.704	297.525
830.754	289.535
830.805	289.122
830.856	285.981
830.906	283.222
830.957	290.973
831.008	295.139
831.058	293.036
831.109	291.221
831.16	291.432
831.21	298.209
831.261	286.658
831.312	284.891
831.362	296.123
831.413	295.016
831.464	296.67
831.514	294.974
831.565	291.011
831.616	282.801
831.666	284.084
831.717	284.282
831.767	291.232
831.818	296.654
831.869	295.701
831.919	289.124
831.97	286.396
832.021	283.746
832.071	282.912
832.122	290.658
832.173	285.994
832.223	286.124
832.274	287.138
832.325	278.214
832.375	278.464
832.426	274.853
832.477	274.963
832.527	278.192
832.578	279.661
832.628	287.801
832.679	276.301
832.73	272.79
832.78	285.747
832.831	275.365
832.882	273.558
832.932	279.189
832.983	274.124
833.034	275.194
833.084	269.952
833.135	276.975
833.185	274.666
833.236	272.928
833.287	278.793
833.337	278.994
833.388	280.432
833.439	277.676
833.489	272.356
833.54	276.908
833.59	276.499
833.641	268.194
833.692	270.654
833.742	275.543
833.793	276.846
833.844	266.937
833.894	267.944
833.945	280.849
833.995	271.49
834.046	263.002
834.097	269.546
834.147	269.502
834.198	257.067
834.249	266.078
834.299	264
834.35	262.814
834.4	266.21
834.451	272.215
834.502	262.717
834.552	268.042
834.603	262.558
834.653	266.453
834.704	268.563
834.755	266.334
834.805	256.968
834.856	259.725
834.906	280.041
834.957	280.549
835.008	266.564
835.058	268.597
835.109	262.077
835.16	269.165
835.21	270.142
835.261	258.489
835.311	254.387
835.362	256.028
835.413	262.656
835.463	264.695
835.514	261.597
835.564	246.523
835.615	262.216
835.666	268.344
835.716	270.899
835.767	269.846
835.817	257.597
835.868	261.503
835.919	262.95
835.969	268.387
836.02	255.073
836.07	275.788
836.121	251.6
836.161	250
836.212	246
836.263	258
836.314	249.994
836.365	273.919
836.415	265.903
836.466	258.001
836.517	263.87
836.568	255.924
836.618	264.079
836.669	246.519
836.72	249.984
836.771	263.515
836.821	245.65
836.872	251.723
836.923	259.911
836.974	242.689
837.024	261.754
837.075	265.635
837.126	261.688
837.177	255.855
837.227	263.542
837.278	253.858
837.329	252.432
837.38	270.996
837.43	248.375
837.481	259.272
837.532	247.676
837.583	248.704
837.633	247.947
837.684	250.525
837.735	257.003
837.786	251.514
837.836	263.468
837.887	256.221
837.938	242.604
837.989	262.821
838.039	240.316
838.09	236.881
838.141	253.495
838.192	246.541
838.242	264.895
838.293	248.758
838.344	238.916
838.395	264.511
838.445	247.268
838.496	242.801
838.547	252.736
838.598	244.973
838.648	235.059
838.699	248.861
838.75	248.838
838.801	245.48
838.851	236.331
838.902	242.688
838.953	242.089
839.003	245.853
839.054	245.13
839.105	248.746
839.156	233.946
839.206	248.794
839.257	243.828
839.308	249.453
839.359	254.869
839.409	235.078
839.46	235.387
839.511	239.71
839.562	245.519
839.612	255.04
839.663	234.548
839.714	243.492
839.764	241.456
839.815	247.138
839.866	235.726
839.917	236.757
839.967	223.86
840.018	243.662
840.069	243.098
840.119	246.268
840.17	235.157
840.221	233.289
840.272	240.259
840.322	237.795
840.373	246.761
840.424	230.409
840.474	225.904
840.525	227.903
840.576	221.79
840.627	236.319
840.677	254.512
840.728	225.771
840.779	239.585
840.829	236.382
840.88	232.696
840.931	223.982
840.982	231.583
841.032	224.08
841.083	226.601
841.134	232.157
841.184	235.781
841.235	224.947
841.286	230.45
841.337	232.916
841.387	229.048
841.438	228.745
841.489	219.474
841.539	232.02
841.59	229.023
841.641	232
841.691	226.552
841.742	224.779
841.793	242.629
841.844	221.836
841.894	231.958
841.945	228.659
841.996	229.782
842.046	223.989
842.097	224.689
842.148	230.176
842.198	236.097
842.249	238.449
842.3	226.15
842.351	233.521
842.401	217.105
842.452	229.295
842.503	221.768
842.553	231.04
842.604	225.024
842.655	228.162
842.705	212.012
842.756	223.9
842.807	230.326
842.857	218.112
842.908	232.229
842.959	234.565
843.009	229.871
843.06	226.173
843.111	210.989
843.161	226.108
843.212	222.462
843.263	225.434
843.314	208.557
843.364	215.721
843.415	218.512
843.466	218.689
843.516	217.077
843.567	228.082
843.618	207.713
843.668	211.325
843.719	219.155
843.77	225.85
843.82	214.895
843.871	215.173
843.922	220.771
843.972	203.75
844.023	218.868
844.074	218.791
844.124	220.693
844.175	214.613
844.226	210.466
844.276	210.481
844.327	226.334
844.378	215.711
844.428	218.417
844.479	212.342
844.53	222.268
844.58	219.646
844.631	206.093
844.682	216.045
844.732	211.534
844.783	223.119
844.834	215.762
844.884	215.584
844.935	212.865
844.986	226.84
845.036	212.076
845.087	222.946
845.138	219.778
845.188	217.129
845.239	210.441
845.29	207.771
845.34	210.033
845.391	218.209
845.442	209.935
845.492	207.842
845.543	214.871
845.594	208.722
845.644	219.989
845.695	207.133
845.745	216.729
845.796	209.355
845.847	210.967
845.897	211.645
845.948	212.306
845.999	207.335
846.049	203.866
846.1	212
846.151	203.922
846.201	208.002
846.252	196.618
846.303	207.666
846.353	205.466
846.404	213.756
846.455	205.755
846.505	210.254
846.556	203.961
846.606	209.778
846.657	202.014
846.708	203.23
846.758	205.002
846.809	203.498
846.86	203.572
846.91	207.648
846.961	212.016
847.012	212.847
847.062	206.167
847.113	204.479
847.163	208.255
847.214	206.086
847.265	208.419
847.315	207.896
847.366	202.299
847.417	214.212
847.467	195.57
847.518	205.228
847.568	207.89
847.619	208.927
847.67	197.081
847.72	198.963
847.771	210.6
847.822	211.398
847.872	205.821
847.923	192.259
847.973	201.671
848.024	205.338
848.075	211.816
848.125	196.58
848.176	201.282
848.227	191.74
848.277	193.721
848.328	205.813
848.378	197.041
848.429	203.68
848.48	193.948
848.53	193.558
848.581	203.436
848.631	200.316
848.682	191.541
848.733	195.696
848.783	194.048
848.834	193.896
848.885	190.2
848.935	185.883
848.986	197.367
849.036	197.632
849.087	196.047
849.138	194.265
849.188	200.705
849.239	193.919
849.289	194.21
849.34	199.169
849.391	196.871
849.441	203.623
849.492	187.869
849.542	187.246
849.593	200.708
849.644	189.756
849.694	188.898
849.745	195.914
849.795	195.951
849.846	194.09
849.897	186.976
849.947	190.967
849.998	201.418
850.048	183.532
850.099	191.357
850.15	189.815
850.2	197.387
850.251	188.972
850.301	189.666
850.352	190.716
850.403	190.886
850.453	191.249
850.504	198.845
850.554	192.618
850.605	198.205
850.656	195.536
850.706	181.477
850.757	179.693
850.807	182.729
850.858	181.38
850.908	193.077
850.959	184.608
851.01	196.185
851.06	188.627
851.111	188.127
851.161	187.847
851.212	190.138
851.263	183.846
851.313	178.531
851.364	179.971
851.414	187.464
851.465	191.95
851.515	186.516
851.566	188.875
851.617	182.864
851.667	180.342
851.718	184.925
851.768	195.773
851.819	180.7
851.869	183.941
851.92	175.4
851.971	185.342
852.021	181.852
852.072	189.357
852.122	188.589
852.173	196.608
852.223	184.529
852.274	175.327
852.325	183.922
852.375	185.867
852.426	177.484
852.476	174.189
852.527	180.165
852.577	175.657
852.628	181.541
852.678	192.192
852.729	183.862
852.78	182.434
852.83	180.116
852.881	179.962
852.931	183.409
852.982	180.126
853.032	183.624
853.083	192.168
853.133	183.663
853.184	186.77
853.235	183.212
853.285	175.485
853.336	182.468
853.386	179.04
853.437	182.288
853.487	170.116
853.538	182.487
853.588	184.127
853.639	184.029
853.69	180.948
853.74	181.372
853.791	185.219
853.841	179.931
853.892	174.82
853.942	174.273
853.993	175.141
854.043	171.817
854.094	174.371
854.144	173.281
854.195	172.442
854.246	175.801
854.296	174
854.347	174
854.397	176.033
854.448	183.664
854.498	176.195
854.549	176.449
854.599	172.63
854.65	170.577
854.7	170
854.751	174.178
854.801	169.594
854.852	167.925
854.902	171.536
854.953	169.924
855.004	170.739
855.054	171.775
855.105	164.616
855.155	162.57
855.206	175.354
855.256	183.717
855.307	181.573
855.357	173.387
855.408	168.668
855.458	171.203
855.509	175.468
855.559	175.054
855.61	174.461
855.66	174.54
855.711	173.536
855.761	175.384
855.812	170.747
855.862	164.566
855.913	168.747
855.964	172.463
856.014	171.757
856.065	171.271
856.115	163.654
856.166	168.846
856.216	177.686
856.267	170.216
856.317	168.267
856.368	171.61
856.418	168.564
856.469	165.673
856.519	168.831
856.57	171.128
856.62	164.074
856.671	167.079
856.721	167.478
856.772	164.69
856.822	169.78
856.873	168.872
856.923	162.265
856.974	161.935
857.024	165.808
857.075	168.925
857.125	174.843
857.176	164.721
857.226	161.479
857.277	169.647
857.327	174.37
857.378	166.528
857.428	162.172
857.479	160.583
857.529	160.186
857.58	162.523
857.63	163.379
857.681	164.485
857.731	152.825
857.782	156.486
857.832	165.782
857.883	162.296
857.933	158.126
857.984	165.393
858.034	166.065
858.085	162.7
858.135	162.712
858.186	162.508
858.236	161.965
858.287	162.266
858.337	158.29
858.388	167.425
858.438	165.458
858.489	156.974
858.539	156.484
858.589	166.02
858.64	165.13
858.69	159.507
858.741	153.717
858.791	154.794
858.842	161.739
858.892	163.993
858.943	161.597
858.993	156.669
859.044	160.252
859.094	157.181
859.145	157.031
859.195	161.418
859.246	147.714
859.296	153.839
859.347	156.097
859.397	152.286
859.448	148.338
859.498	149.66
859.549	155.811
859.599	160.887
859.649	166.87
859.7	164.374
859.75	160.524
859.801	166.74
859.851	172.432
859.902	167.451
859.952	154.699
860.003	149.17
860.053	153.48
860.104	150.022
860.154	155.07
860.205	154.451
860.255	151.076
860.305	155.532
860.356	159.865
860.406	155.587
860.457	150.344
860.507	153.676
860.558	146.848
860.608	150.404
860.659	168.453
860.709	162.969
860.76	145.682
860.81	145.944
860.861	159.535
860.911	154.616
860.961	155.253
861.012	150.252
861.062	153.006
861.113	157.398
861.163	155.345
861.214	159.849
861.264	150.323
861.315	153.694
861.365	159.009
861.415	146.957
861.466	146.82
861.516	144.417
861.567	150.967
861.617	155.332
861.668	162.087
861.718	166.628
861.769	154.507
861.819	151.599
861.869	157.522
861.92	155.148
861.97	151.568
862.021	151.653
862.071	157.19
862.112	153.988
862.162	147.99
862.213	145.988
862.263	149.945
862.314	153.917
862.365	134.155
862.415	153.887
862.466	143.971
862.516	161.79
862.567	152.014
862.618	147.858
862.668	145.839
862.719	147.883
862.77	149.779
862.82	159.569
862.871	157.734
862.921	149.962
862.972	149.731
863.023	147.808
863.073	153.74
863.124	146.126
863.174	149.759
863.225	142.163
863.276	151.648
863.326	157.194
863.377	153.404
863.427	136.426
863.478	151.678
863.529	151.543
863.579	145.897
863.63	130.364
863.68	156.493
863.731	145.631
863.782	140.131
863.832	153.771
863.883	149.814
863.933	141.715
863.984	146.728
864.034	137.422
864.085	147.398
864.136	129.755
864.186	155.582
864.237	154.49
864.287	153.006
864.338	140.862
864.389	143.999
864.439	149.457
864.49	143.63
864.54	147.24
864.591	151.041
864.642	155.356
864.692	144.476
864.743	136.701
864.793	141.623
864.844	143.315
864.894	153.557
864.945	144.673
864.996	141.726
865.046	143.042
865.097	152.931
865.147	149.439
865.198	143.431
865.248	132.819
865.299	152.179
865.35	135.774
865.4	132.682
865.451	136.463
865.501	137.82
865.552	136.301
865.603	135.882
865.653	139.531
865.704	139.881
865.754	138.359
865.805	146.582
865.855	147.823
865.906	145.778
865.956	149.21
866.007	127.991
866.058	152.997
866.108	134
866.159	134.88
866.209	147.367
866.26	135.405
866.31	137.897
866.361	134.879
866.412	137.257
866.462	146.235
866.513	141.659
866.563	148.145
866.614	136.088
866.664	144.014
866.715	153.218
866.766	135.472
866.816	136.906
866.867	143.817
866.917	136.77
866.968	131.174
867.018	137.11
867.069	144.411
867.119	133.902
867.17	130.2
867.22	140.159
867.271	144.535
867.322	142.792
867.372	124.98
867.423	138.689
867.473	148.058
867.524	143.447
867.574	121.453
867.625	132.508
867.675	137.599
867.726	145.056
867.776	140.629
867.827	132.629
867.878	139.901
867.928	118.768
867.979	131.155
868.029	134.299
868.08	133.207
868.13	128.407
868.181	132.436
868.231	147.949
868.282	133.913
868.332	136.611
868.383	134.551
868.433	140.628
868.484	133.311
868.535	142.803
868.585	131.121
868.636	133.498
868.686	132.895
868.737	128.252
868.787	130.016
868.838	138.438
868.888	135.355
868.939	136.134
868.989	128.744
869.04	127.805
869.09	125.201
869.141	133.769
869.191	124.237
869.242	131.272
869.292	135.234
869.343	128.881
869.394	132.554
869.444	134.039
869.495	136
869.545	124.376
869.596	126.316
869.646	133.306
869.697	136.957
869.747	127.243
869.798	135.512
869.848	128.771
869.899	130.376
869.949	127.202
870	128.709
870.05	137.651
870.101	132.08
870.151	127.761
870.202	122.292
870.252	130.644
870.303	122.468
870.353	129.081
870.404	122.091
870.454	128.064
870.505	123.735
870.555	127.516
870.606	117.57
870.656	128.425
870.707	116.241
870.757	129.146
870.808	129.799
870.858	124.136
870.909	136.338
870.959	123.517
871.01	128.76
871.06	131.858
871.111	126.765
871.161	130.901
871.212	120.723
871.262	132.276
871.313	125.339
871.363	120.683
871.414	116.215
871.464	129.661
871.515	123.059
871.565	131.766
871.616	120.524
871.666	122.978
871.717	117.863
871.767	126.464
871.818	130.83
871.868	128.648
871.919	132.685
871.969	129.694
872.02	118.267
872.07	120.579
872.121	123.408
872.171	119.667
872.222	124.686
872.272	126.19
872.323	122.438
872.373	112.43
872.424	120.5
872.474	127.575
872.525	116.4
872.575	117.22
872.626	125.614
872.676	120.819
872.727	127.175
872.777	114.955
872.828	120.114
872.878	130.011
872.929	125.583
872.979	125.635
873.03	124.697
873.08	131.196
873.13	122.828
873.181	121
873.231	118.561
873.282	124.06
873.332	126.903
873.383	120.151
873.433	112.165
873.484	124.004
873.534	117.452
873.585	121.565
873.635	127.113
873.686	120.149
873.736	118.036
873.787	119.742
873.837	124.187
873.888	117.55
873.938	116.769
873.988	123.771
874.039	119.315
874.089	123.904
874.14	115.847
874.19	119.774
874.241	120.382
874.291	126.022
874.342	111.756
874.392	115.924
874.443	115.775
874.493	125.029
874.544	120.838
874.594	119.202
874.644	115.944
874.695	117.627
874.745	114.432
874.796	117.44
874.846	118.339
874.897	123.257
874.947	112.512
874.998	129.421
875.048	116.905
875.099	112.571
875.149	115.619
875.199	117.545
875.25	117.078
875.3	118.473
875.351	118.548
875.401	112.291
875.452	116.91
875.502	114.488
875.553	119.975
875.603	112.65
875.653	113.108
875.704	112.203
875.754	110.738
875.805	108.679
875.855	120.445
875.906	111.186
875.956	116.371
876.006	110.685
876.057	106.689
876.107	112.976
876.158	122.046
876.208	114.631
876.259	110.124
876.309	122.601
876.36	111.602
876.41	114.256
876.46	118.487
876.511	109.405
876.561	113.672
876.612	115.002
876.662	107.277
876.713	112.858
876.763	112.769
876.813	118.835
876.864	118.281
876.914	121.712
876.965	109.072
877.015	109.409
877.065	110.68
877.116	118.201
877.166	104.833
877.217	115.123
877.267	117.994
877.318	117.054
877.368	113.894
877.418	112.711
877.469	113.713
877.519	114.829
877.57	116.426
877.62	120.718
877.671	116.446
877.721	112.779
877.771	112.767
877.822	107.49
877.872	115.506
877.923	115.333
877.973	113.648
878.023	111.329
878.074	106.615
878.124	109.723
878.175	111.005
878.225	109.156
878.276	112.238
878.326	109.835
878.376	106.414
878.427	111.654
878.477	105.638
878.528	104.96
878.578	115.936
878.628	106.929
878.679	113.36
878.729	116.489
878.78	117.529
878.83	111.618
878.88	104.682
878.931	104.073
878.981	105.85
879.031	106.92
879.082	105.376
879.132	110.799
879.183	109.15
879.233	108.141
879.284	109.033
879.334	111.563
879.384	103.07
879.435	107.585
879.485	114.947
879.535	113.543
879.586	110.155
879.636	109.124
879.687	111.119
879.737	106.921
879.787	107.594
879.838	102.091
879.888	108.475
879.939	111.782
879.989	112.122
880.039	104.823
880.09	106.441
880.14	109.002
880.19	112.029
880.241	111.701
880.291	104.203
880.342	104.249
880.392	99.7739
880.442	103.335
880.493	110.842
880.543	110.392
880.594	111.361
880.644	108.567
880.694	104.177
880.745	102.924
880.795	99.8175
880.845	103.046
880.896	108.646
880.946	113.775
880.996	113.296
881.047	103.586
881.097	103.495
881.148	101.675
881.198	105.94
881.248	103.066
881.299	104.251
881.349	108.112
881.399	105.992
881.45	101.038
881.5	99.7841
881.551	98.5872
881.601	102.202
881.651	100.777
881.702	98.4116
881.752	99.1059
881.802	104.507
881.853	100.552
881.903	107.385
881.953	100.001
882.004	108.413
882.054	106.576
882.104	108
882.155	103.272
882.205	98.4593
882.256	101.99
882.306	107.071
882.356	99.9216
882.407	97.5206
882.457	104.225
882.507	107.23
882.558	106.281
882.608	102.921
882.658	103.735
882.709	107.292
882.759	100.509
882.809	101.614
882.86	104.969
882.91	100
882.96	102.308
883.011	101.921
883.061	101.326
883.111	105.625
883.162	101.142
883.212	102.502
883.262	110.121
883.313	109.943
883.363	104.241
883.413	102.701
883.464	96.0422
883.514	98.7266
883.565	102.567
883.615	100.962
883.665	95.4949
883.716	102.439
883.766	102.657
883.816	96.4605
883.867	100.055
883.917	102.344
883.967	94.3905
884.017	95.2098
884.068	91.8726
884.118	102.768
884.168	106.258
884.219	95.1264
884.269	102.719
884.319	106.437
884.37	94.7586
884.42	93.4403
884.47	98.3668
884.521	95.1099
884.571	94.6167
884.621	92.1203
884.672	93.3673
884.722	97.6118
884.772	103.044
884.823	92.027
884.873	92.2831
884.923	96.0855
884.974	103.845
885.024	86.6234
885.074	98.8903
885.125	103.733
885.175	97.5812
885.225	95.8834
885.276	100.035
885.326	93.879
885.376	101.044
885.426	91.0014
885.477	99.4159
885.527	99.5674
885.577	94.5564
885.628	103.121
885.678	98.126
885.728	102.208
885.779	98.9844
885.829	89.6481
885.879	101.594
885.93	97.4395
885.98	100.686
886.03	100.97
886.08	100.604
886.131	93.3104
886.181	101.338
886.231	92.5569
886.282	92.5677
886.332	104.329
886.382	97.8351
886.432	91.0372
886.483	100.55
886.533	97.4242
886.583	97.8246
886.634	93.7237
886.684	100.108
886.734	100.575
886.785	94.7505
886.835	95.3966
886.885	86.6346
886.935	93.4795
886.986	88.769
887.036	86.4423
887.086	98.8967
887.137	88.2642
887.187	93.5702
887.237	90.5065
887.287	99.3933
887.338	99.4822
887.388	96.23
887.438	91.9381
887.489	95.6379
887.539	99.7922
887.589	99.9412
887.639	89.8887
887.69	99.5748
887.74	84.4828
887.79	85.9311
887.841	91.8972
887.891	107.471
887.941	98.2706
887.943	97.949
887.993	86.1116
888.044	92
888.094	93.8455
888.144	89.9782
888.195	105.486
888.245	91.9548
888.296	107.371
888.346	99.7635
888.397	92.1489
888.447	95.8937
888.498	91.5803
888.548	102.694
888.599	87.9688
888.649	91.9926
888.699	98.6307
888.75	82.0965
888.8	82.5126
888.851	91.3558
888.901	91.0897
888.952	95.1012
889.002	87.9489
889.053	92.8299
889.103	92.7801
889.153	89.2847
889.204	91.2729
889.254	89.7316
889.305	99.2428
889.355	90.1199
889.406	93.9847
889.456	94.6595
889.507	86.1506
889.557	93.6176
889.607	85.2158
889.658	81.6852
889.708	84.825
889.759	89.774
889.809	93.361
889.86	94.9292
889.91	94.9211
889.96	98.8767
890.011	89.0696
890.061	87.9757
890.112	100.58
890.162	85.4325
890.213	97.3353
890.263	87.5939
890.313	86.3412
890.364	90.7707
890.414	82.1222
890.465	85.6711
890.515	92.4551
890.566	82.5188
890.616	88.7109
890.666	89.6962
890.717	90.9203
890.767	88.5685
890.818	81.1738
890.868	93.6175
890.919	93.5832
890.969	92.9384
891.019	81.6307
891.07	89.305
891.12	84.4181
891.171	77.6251
891.221	85.5111
891.271	86.5492
891.322	81.533
891.372	89.4188
891.423	80.825
891.473	92.2316
891.523	87.3774
891.574	82.1987
891.624	86.3942
891.675	80.9504
891.725	89.556
891.776	84.2647
891.826	87.8523
891.876	83.063
891.927	86.3828
891.977	82.2818
892.028	86.3147
892.078	86.0792
892.128	78.6987
892.179	86.79
892.229	83.7814
892.28	89.4647
892.33	86.023
892.38	85.2325
892.431	85.4965
892.481	85.1793
892.532	88.1595
892.582	89.0008
892.632	81.5697
892.683	84.7509
892.733	84.7581
892.784	78.5329
892.834	88.142
892.884	88.0025
892.935	84.0293
892.985	86.3805
893.036	86.7738
893.086	86.8527
893.136	83.7696
893.187	76.3363
893.237	88.7896
893.288	80.2249
893.338	77.1392
893.388	80.8165
893.439	82.5091
893.489	84.8426
893.539	82.1579
893.59	88.6791
893.64	81.3867
893.691	85.0415
893.741	81.8215
893.791	78.0498
893.842	80.2018
893.892	84.9751
893.943	83.8986
893.993	77.0133
894.043	80.9674
894.094	77.0362
894.144	83.0097
894.194	84.9976
894.245	86.0048
894.295	85.0048
894.346	73.0423
894.396	80.9275
894.446	77.0145
894.497	86.9819
894.547	77.087
894.597	78.9275
894.648	83.9734
894.698	76.2113
894.749	78.9348
894.799	80.7826
894.849	82.0399
894.9	80.1304
894.95	75.9541
895	81.9505
895.051	85.948
895.101	89.0556
895.151	82
895.202	73.3696
895.252	79.6087
895.303	80.1377
895.353	77.786
895.403	78
895.454	82
895.504	82.0821
895.554	73.4232
895.605	80.3913
895.655	75.4529
895.706	77.9058
895.756	79.0967
895.806	78.7995
895.857	85.8961
895.907	77.532
895.957	86.6812
896.008	80.2271
896.058	81.2322
896.108	80.4783
896.159	76.8779
896.209	79.1256
896.259	83.6123
896.31	82.2636
896.36	78.8647
896.41	82
896.461	74.9976
896.511	86.1232
896.561	73
896.612	77.4565
896.662	83.9166
896.713	81.7911
896.763	77.5175
896.813	82.1787
896.864	75.8488
896.914	80.314
896.964	74.3483
897.015	78.8225
897.065	75.1802
897.115	79.7391
897.166	71.6252
897.216	80.4305
897.266	78.8068
897.317	75.6058
897.367	74.6014
897.417	76.2031
897.468	74.2068
897.518	78
897.568	74.9359
897.619	78.6493
897.669	71.6594
897.719	78.2225
897.77	76.0955
897.82	78.7705
897.87	72.867
897.921	71.0568
897.971	76.2826
898.021	84.2709
898.072	78.2273
898.122	77.7509
898.172	80
898.223	75.2563
898.273	81.4474
898.323	74.0992
898.374	72.1463
898.424	70.4239
898.474	74.9117
898.524	78.4486
898.575	79.2781
898.625	73.2817
898.675	77
898.726	77.2878
898.776	73.5845
898.826	75.1149
898.877	74.2987
898.927	72
898.977	72.3906
899.028	77.6917
899.078	76.9323
899.128	72.4281
899.179	79
899.229	84.3591
899.279	79.6203
899.33	72.6723
899.38	73
899.43	71.6675
899.48	76.9879
899.531	76.341
899.581	78.6892
899.631	72.0411
899.682	76.2467
899.732	71.7715
899.782	71.8525
899.833	77.7231
899.883	76.5441
899.933	67.0435
899.984	73.2954
