#Acq. time (s)=	3
#Accumulations=	2
#Range (nm)=	520...900
#Windows=	16
#Auto scanning=	On
#Autofocus=	Off
#AutoExposure=	Off
#Spike filter=	Multiple accum.
#Delay time (s)=	0
#Binning=	1
#Readout mode=	Signal
#DeNoise=	Off
#ICS correction=	Off
#Dark correction=	Off
#Inst. Process=	Off
#Detector temperature (°C)=	-59.98
#Instrument=	LabRAM HR Evol
#Detector=	Syncerity OE
#Objective=	x50_VIS
#Grating=	600 (500nm)
#ND Filter=	10%
#Laser=	514nm_Edge
#Hole=	199.981
#Range=	Auto
#StageXY=	Marzhauser
#StageZ=	Marzhauser
#X (µm)=	-58.2
#Y (µm)=	8027.4
#Z (µm)=	33.3
#Full time(mm:ss)=	2:38
#Project=	
#Sample=	
#Site=	
#Title=	PL_230124_Amostra_HPHT_sem_polir
#Remark=	
#Date=	31.01.2024 11:13
#Acquired=	31.01.2024 11:13:04
520.042	42
520.094	35.086
520.147	38.0454
520.199	40.9069
520.251	44.8535
520.304	36.3586
520.356	36.9476
520.408	39.7322
520.461	40.1709
520.513	37.1164
520.565	39.0594
520.618	38.7488
520.67	36.936
520.723	33.1956
520.775	34.2026
520.827	37.5116
520.88	40.2887
520.932	37.78
520.984	39.227
521.037	39.8463
521.089	37.0791
521.141	36.163
521.194	43.752
521.246	35.915
521.298	41.1723
521.351	42.6419
521.403	39.3632
521.455	40.9069
521.508	40.9057
521.56	39
521.612	37.3912
521.665	38.6965
521.717	37.2049
521.769	31.5239
521.822	37.3644
521.874	37.8917
521.926	42.7811
521.979	35.447
522.031	36.1129
522.083	42.7695
522.136	38.8814
522.188	34.4796
522.24	43.5111
522.293	42.8766
522.345	40.1257
522.397	40.2561
522.45	37.8708
522.502	42.4738
522.554	41
522.607	45.135
522.659	41
522.711	40.5588
522.764	39.5774
522.816	47
522.868	40.1455
522.921	38.1467
522.973	40.702
523.025	42.6054
523.078	40.39
523.13	38.4645
523.182	37.8428
523.234	39.4785
523.287	39.518
523.339	43.674
523.391	36.6612
523.444	37.8324
523.496	42.3248
523.548	40.6597
523.601	39.8615
523.653	39.3492
523.705	38.2922
523.758	42
523.81	38.3609
523.862	35.3655
523.915	44.4447
523.967	40.3749
524.019	41.0559
524.072	40.9546
524.124	40.2317
524.176	44.1944
524.229	38.5902
524.281	40
524.333	46.1958
524.385	43.2154
524.438	42
524.49	37.0361
524.542	41.5332
524.595	42.6329
524.647	36.5763
524.699	40.071
524.752	42.0512
524.804	40.532
524.856	37.2203
524.909	40.7776
524.961	38.2247
525.013	41.865
525.066	40.6853
525.118	45.078
525.17	38
525.222	47.7657
525.275	38.6543
525.327	43
525.379	37.2762
525.432	43.4866
525.484	38.2456
525.536	39.5041
525.589	40.7506
525.641	42.2515
525.693	38.5076
525.745	46.2343
525.798	39.7718
525.85	43.7063
525.902	41.5646
525.955	42.943
526.007	45.9371
526.059	47.8033
526.112	39.5402
526.164	35.8147
526.216	38.1793
526.268	47.8951
526.321	43.3912
526.373	39
526.425	37.8731
526.478	43.284
526.53	42.5734
526.582	42.7113
526.635	40.2902
526.687	41.1234
526.739	43.8811
526.791	41.7031
526.844	43.4033
526.896	42.3004
526.948	42.9091
527.001	41.695
527.053	41.6935
527.105	44.0745
527.157	45.5559
527.21	41.3132
527.262	40.7413
527.314	39
527.367	40
527.419	38.2821
527.471	40.3527
527.523	41.3741
527.576	42.9627
527.628	44.6807
527.68	48.0047
527.733	41.0035
527.785	43.6783
527.837	44.6368
527.889	44.7016
527.942	44.9755
527.994	43.7229
528.046	45.5769
528.099	49.6508
528.151	48.0524
528.203	41.8252
528.255	42.1595
528.308	47.3566
528.36	40.9231
528.412	42.8044
528.464	45.3636
528.517	40.9056
528.569	40.7343
528.621	43.2619
528.674	42.2564
528.726	46.3741
528.778	42.624
528.83	50.7576
528.883	42.5198
528.935	42.8531
528.987	41
529.039	46
529.092	47.8322
529.144	44.5618
529.196	42.8217
529.249	45.5786
529.301	40.2051
529.353	43
529.405	41.5991
529.458	40.6131
529.51	42.9686
529.562	44.5921
529.614	47.4103
529.667	48.2378
529.719	40.345
529.771	48.4161
529.823	44.4191
529.876	47
529.928	45.5769
529.98	46
530.033	43.8555
530.085	40.2867
530.137	43.9814
530.189	45.4336
530.242	45.8718
530.294	46
530.346	45.6799
530.398	47.2145
530.451	45
530.503	49.7622
530.555	44.8974
530.607	47
530.66	43.9068
530.712	44.0886
530.764	44.0839
530.816	46
530.869	45.3077
530.921	46.5361
530.973	46.669
531.025	47
531.078	48.9417
531.13	48.1072
531.182	49.3776
531.234	50.0443
531.287	44.4406
531.339	48.5524
531.391	46.4837
531.443	41.4854
531.496	45.4872
531.548	46.5105
531.6	41.5245
531.652	48.9883
531.705	47.4965
531.757	44.9977
531.809	47.9977
531.861	48.979
531.914	47.5524
531.966	45.9393
532.018	50.0373
532.07	43.0699
532.123	44.4021
532.175	53.5524
532.227	43.9604
532.279	49.4352
532.332	51.0466
532.384	47.5769
532.436	43
532.488	43.9394
532.541	44.6604
532.593	47.1958
532.645	51.1445
532.697	52.4604
532.75	39.7071
532.802	42.3706
532.854	49
532.906	49.9044
532.958	45.8471
533.011	47.4755
533.063	52.5548
533.115	49
533.167	49.4714
533.22	43.4394
533.272	43.7436
533.324	46.2637
533.376	45.4324
533.429	48.0027
533.481	49.8636
533.533	46.8373
533.585	48.4297
533.638	51.2234
533.69	48.0473
533.742	49.3175
533.794	46.5931
533.846	47.3089
533.899	46.9111
533.951	49.3575
534.003	47.3655
534.055	46.6573
534.108	46.9452
534.16	48.2051
534.212	52.6115
534.264	49.4544
534.316	51.3527
534.369	43.1635
534.421	48.6232
534.473	50.589
534.525	51.8165
534.578	52
534.63	55.5454
534.682	54.1957
534.734	52.0711
534.786	53.2422
534.839	54.4685
534.891	52.0465
534.943	54
534.995	48.3912
535.047	48.8748
535.1	49.6108
535.152	55.535
535.204	49.9556
535.256	56.5324
535.309	53.3123
535.361	53.3491
535.413	50.3282
535.465	50.1943
535.517	57.7517
535.57	57.2283
535.622	53.9918
535.674	51.7436
535.726	50.0942
535.778	52.4714
535.831	51.1765
535.883	52.4889
535.935	53.5232
535.987	58.053
536.039	52.8203
536.092	55.1441
536.144	56.4164
536.196	55.1632
536.248	58.3939
536.301	51.181
536.353	55.6304
536.405	57.092
536.457	51.3674
536.509	55.9801
536.562	52.9116
536.614	52.9047
536.666	51.9024
536.718	52.4971
536.77	51.3381
536.823	51.1295
536.875	46.9106
536.927	54.7056
536.979	54.4505
537.031	50.7025
537.083	46.6222
537.136	48.5165
537.188	51.9668
537.24	55.356
537.292	50.5225
537.344	52.0701
537.397	54.6363
537.449	53.0248
537.501	49.6392
537.553	48.0938
537.605	55.9655
537.658	57.745
537.71	50.406
537.762	51.6303
537.814	54.7393
537.866	51.8978
537.919	53.7626
537.971	48.1657
538.023	55.3445
538.075	54.1476
538.127	54.7973
538.18	52.0083
538.232	55.8596
538.284	45.7479
538.336	51.5626
538.388	56.6933
538.44	62.2807
538.493	53.6133
538.545	49.5769
538.597	53.0119
538.649	59.1185
538.701	57.1771
538.754	53.247
538.806	51.7726
538.858	57.1007
538.91	59.557
538.962	53.8995
539.014	57.9373
539.067	48.9178
539.119	59.4926
539.171	60.21
539.223	58.3132
539.275	56.244
539.327	55.3733
539.38	53.4653
539.432	57.5642
539.484	55.8085
539.536	50.6175
539.588	58.1154
539.641	58.4497
539.693	58.3238
539.745	67.6279
539.797	55.1236
539.849	53.2129
539.901	56.0902
539.954	54.2118
540.006	51.4553
540.058	57.1072
540.11	63.108
540.162	58.243
540.214	55.1143
540.267	54.1878
540.319	56.2949
540.371	58.7115
540.423	62.4066
540.475	60.5389
540.527	58.7303
540.58	53.726
540.632	59.3924
540.684	61.7041
540.736	59.1851
540.788	58.9551
540.84	55.9508
540.892	64.2063
540.945	60.5949
540.997	56.7193
541.049	54.9726
541.101	55.77
541.153	61.597
541.205	62.1574
541.258	60.2494
541.31	65.6538
541.362	57.9521
541.414	62.9046
541.466	54.7617
541.518	57.9267
541.57	62.7417
541.623	61.2251
541.675	57.1171
541.727	65.032
541.779	62.5647
541.831	59.5835
541.883	54.7751
541.936	57.9252
541.988	57.3439
542.04	55.2532
542.092	61.5765
542.144	65.4774
542.196	60.6209
542.248	59.1557
542.301	64.8461
542.353	59.3072
542.405	58.4403
542.457	63.2913
542.509	62.0792
542.561	69.097
542.613	63.5742
542.666	54.339
542.718	59.295
542.77	69.6479
542.822	73.3929
542.874	66.865
542.926	67.996
542.978	65.7262
543.031	68.8761
543.083	61.7127
543.135	69.0945
543.187	60.2595
543.239	69.8295
543.291	62.8994
543.343	61.8039
543.396	70.2825
543.448	62.1887
543.5	60.5057
543.552	70.1904
543.604	61.7565
543.656	68.2014
543.708	64.587
543.76	65.5479
543.813	71.0318
543.865	73.7032
543.917	62.4995
543.969	70.6253
544.021	65.3944
544.073	77.215
544.125	63.9182
544.177	68.2336
544.23	73.8362
544.282	68.9092
544.334	66.6598
544.386	70.6106
544.438	70
544.49	75.2432
544.542	63.834
544.594	64.325
544.647	64.773
544.699	65.6894
544.751	65.779
544.803	78.2019
544.855	74.8062
544.907	78.5123
544.959	74.8255
545.011	72.8285
545.064	68.3946
545.116	68.2387
545.168	67.3615
545.22	71.1415
545.272	65.4048
545.324	67.6607
545.376	65.2557
545.428	67.9164
545.48	70.2214
545.533	68.3315
545.585	65.4225
545.637	81.4657
545.689	73.5641
545.741	75.2513
545.793	71.0863
545.845	75.1725
545.897	77.7168
545.949	72.9784
546.002	72.1057
546.054	77.1042
546.106	68.2413
546.158	74.3617
546.21	69.4888
546.262	73.1348
546.314	72.5053
546.366	75.3819
546.418	71.213
546.471	84.8203
546.523	76.5075
546.575	78.9391
546.627	76.7534
546.679	80.8511
546.689	81.9379
546.741	75.975
546.793	75.946
546.845	71.9881
546.898	75.9399
546.95	85.7861
547.002	79.8349
547.054	66.0817
547.106	74.0139
547.159	83.8355
547.211	81.7658
547.263	77.8049
547.315	87.5122
547.368	83.7371
547.42	76.0988
547.472	76.2086
547.524	78.2276
547.577	89.6898
547.629	83.8698
547.681	89.6111
547.733	85.6454
547.785	83.9103
547.838	89.9136
547.89	79.9522
547.942	80.1571
547.994	99.4762
548.047	83.4108
548.099	77.8603
548.151	86.0519
548.203	84.1465
548.255	76.6306
548.308	84.2685
548.36	97.0228
548.412	87.4072
548.464	84.0339
548.517	80.2928
548.569	93.2073
548.621	89.7747
548.673	83.8726
548.725	86
548.778	96.8493
548.83	91.2029
548.882	89.4689
548.934	98.4107
548.987	89.0759
549.039	79.9267
549.091	83.8699
549.143	82.4837
549.195	83.8763
549.248	89.3872
549.3	85.6339
549.352	88.9397
549.404	91.0278
549.456	89.6983
549.509	79.061
549.561	95.6528
549.613	87.3891
549.665	97.2271
549.718	83.8676
549.77	91.8644
549.822	91.8746
549.874	99.9369
549.926	82.0716
549.979	108.677
550.031	97.4885
550.083	104.748
550.135	89.0915
550.187	103.546
550.24	101.429
550.292	105.844
550.344	95.9957
550.396	97.3252
550.448	101.119
550.501	109.224
550.553	93.7924
550.605	100.606
550.657	100.835
550.709	96.8294
550.762	95.9926
550.814	109.81
550.866	112.051
550.918	111.82
550.97	113.11
551.023	108.839
551.075	105.126
551.127	111.579
551.179	109.38
551.231	117.157
551.284	110.532
551.336	117.911
551.388	110.062
551.44	115.245
551.492	132.142
551.545	119.563
551.597	127.138
551.649	136.741
551.701	129.78
551.753	144.248
551.806	149.061
551.858	141.434
551.91	163.85
551.962	162.262
552.014	170.341
552.067	190.631
552.119	211.428
552.171	244.39
552.223	270.997
552.275	354.218
552.327	528.109
552.38	1087.9
552.432	2315.27
552.484	4425.11
552.536	8206.82
552.588	12454.7
552.641	10595.9
552.693	5985.41
552.745	2581.71
552.797	987.259
552.849	515.558
552.901	354.971
552.954	265.633
553.006	222.961
553.058	199.226
553.11	186.935
553.162	170.695
553.215	158.556
553.267	155.178
553.319	161.129
553.371	154.446
553.423	136.048
553.475	140.774
553.528	138.203
553.58	123.513
553.632	123.362
553.684	123.56
553.736	133.886
553.788	130.152
553.841	127.093
553.893	135.476
553.945	127.425
553.997	136.883
554.049	120.914
554.102	125.02
554.154	120.99
554.206	130
554.258	123.896
554.31	124.94
554.362	126.829
554.414	129.235
554.467	129.166
554.519	126.998
554.571	129.29
554.623	120
554.675	117.91
554.727	136.48
554.78	130.377
554.832	127.77
554.884	131.733
554.936	124.267
554.988	126.339
555.04	133.1
555.093	127.549
555.145	132.851
555.197	127.406
555.249	133.032
555.301	123.012
555.353	130.791
555.406	125.011
555.458	130.729
555.51	126.815
555.562	132.371
555.614	128.55
555.666	128.847
555.719	132.525
555.771	132.941
555.823	137.528
555.875	133.888
555.927	123.878
555.979	134.403
556.031	137.907
556.084	132.289
556.136	132.163
556.188	137.493
556.24	140.1
556.292	129.9
556.344	137.327
556.396	142.298
556.449	147.745
556.501	138.293
556.553	132.619
556.605	151.681
556.657	145.941
556.709	141.233
556.762	139.17
556.814	143.122
556.866	149.103
556.918	143.619
556.97	130.579
557.022	142.706
557.074	148.108
557.127	138.982
557.179	133.591
557.231	143.202
557.283	137.32
557.335	148.003
557.387	143.886
557.439	138.409
557.492	162.008
557.544	141.11
557.596	142.051
557.648	153.846
557.7	148.113
557.752	149.981
557.804	147.265
557.856	157.856
557.909	155.213
557.961	145.557
558.013	153.983
558.065	152.045
558.117	157.895
558.169	145.425
558.221	157.012
558.273	145.776
558.326	160.712
558.378	154.021
558.43	161.766
558.482	156.428
558.534	164.134
558.586	164.263
558.638	156.642
558.691	155.84
558.743	152.87
558.795	143.161
558.847	147.05
558.899	155.914
558.951	156.49
559.003	154.588
559.055	155.727
559.108	164.834
559.16	156.426
559.212	157.263
559.264	164.845
559.316	166.485
559.368	162.623
559.42	163.333
559.472	159.489
559.525	167.66
559.577	169.907
559.629	145.862
559.681	166.156
559.733	164.932
559.785	170.229
559.837	159.467
559.889	168.511
559.941	166.938
559.994	173.854
560.046	158.444
560.098	164.081
560.15	172.229
560.202	168.31
560.254	174.734
560.306	166.414
560.358	164.835
560.41	167.617
560.463	172.019
560.515	172.793
560.567	182.933
560.619	166.603
560.671	177.488
560.723	176.135
560.775	180.976
560.827	183.018
560.879	180.928
560.932	174.108
560.984	182.363
561.036	178.715
561.088	181.677
561.14	181.647
561.192	185.109
561.244	184.702
561.296	183.657
561.348	176.815
561.4	190.414
561.453	189.097
561.505	178.949
561.557	189.235
561.609	184.368
561.661	184.348
561.713	188.341
561.765	186.835
561.817	196.524
561.869	188.482
561.921	185.132
561.974	188.504
562.026	200.162
562.078	208.038
562.13	194.116
562.182	192.646
562.234	195.396
562.286	193.292
562.338	196.87
562.39	194.815
562.442	183.401
562.494	194.743
562.547	202.757
562.599	205.458
562.651	196.958
562.703	194.792
562.755	201.283
562.807	209.917
562.859	197.878
562.911	203.598
562.963	209.325
563.015	207.482
563.067	202.545
563.12	206.747
563.172	213.71
563.224	214.524
563.276	222.05
563.328	211.093
563.38	211.173
563.432	210.104
563.484	218.419
563.536	209.831
563.588	219.866
563.64	218.981
563.692	218.757
563.744	225.187
563.797	209.968
563.849	226.753
563.901	217.917
563.953	217.053
564.005	213.841
564.057	211.19
564.109	216.233
564.161	222.227
564.213	208.166
564.265	219.835
564.317	225.284
564.369	224.887
564.421	222.604
564.474	229.432
564.526	224.797
564.578	222.241
564.63	231.155
564.682	230.117
564.734	229.666
564.786	234.137
564.838	231.129
564.89	229.675
564.942	232.658
564.994	225.426
565.046	233.535
565.098	230.941
565.15	227.359
565.202	237.019
565.255	248.55
565.307	253.247
565.359	239.669
565.411	234.624
565.463	231.553
565.515	237.361
565.567	237.08
565.619	234.667
565.671	242.925
565.723	248.763
565.775	242.059
565.827	237.67
565.879	246.317
565.931	242.525
565.983	238.533
566.035	241.366
566.087	237.953
566.139	245.51
566.192	246.331
566.244	249.603
566.296	257.227
566.348	253.288
566.4	252.296
566.452	256.955
566.504	264.61
566.556	254.276
566.608	264.421
566.66	262.982
566.712	255.43
566.764	268.389
566.816	254.966
566.868	259.778
566.92	260.919
566.972	267.496
567.024	261.97
567.076	259.612
567.128	267.545
567.18	271.042
567.232	261.947
567.285	272.762
567.337	268.439
567.389	265.336
567.441	265.589
567.493	266.334
567.545	274.694
567.597	282.835
567.649	278.667
567.701	273.794
567.753	275.102
567.805	271.147
567.857	279.895
567.909	279.38
567.961	276.403
568.013	280.623
568.065	280.276
568.117	273.677
568.169	283.536
568.221	295.272
568.273	288.511
568.325	294.007
568.377	300.089
568.429	290.398
568.481	291.893
568.533	301.015
568.585	296.313
568.637	292.429
568.69	289.515
568.742	288.818
568.794	301.574
568.846	317.051
568.898	302.904
568.95	294.06
569.002	299.97
569.054	305.742
569.106	312.506
569.158	310.619
569.21	315.238
569.262	320.978
569.314	324.833
569.366	315.723
569.418	313.131
569.47	308.992
569.522	313.155
569.574	328.283
569.626	330.388
569.678	311.365
569.73	316.337
569.782	325.772
569.834	323.341
569.886	324.264
569.938	326.939
569.99	323.212
570.042	325.104
570.094	319.702
570.146	319.366
570.198	336.833
570.25	345.947
570.302	340.469
570.354	344.12
570.406	351.347
570.458	347.693
570.51	354.727
570.562	362.446
570.614	364.941
570.666	356.11
570.718	345.278
570.77	350.789
570.822	352.862
570.874	356.695
570.926	362.133
570.978	353.806
571.03	367.518
571.082	381.416
571.134	385.084
571.186	379.994
571.238	369.265
571.29	391.541
571.342	399.633
571.394	376.806
571.446	394.575
571.498	406.841
571.55	401.021
571.602	399.558
571.654	414.174
571.706	404.295
571.758	421.024
571.81	426.482
571.862	431.989
571.914	436.833
571.966	430.003
572.018	432.388
572.07	442.242
572.122	447.494
572.174	450.049
572.226	454.479
572.278	456.539
572.33	461.152
572.382	464.267
572.434	471.383
572.486	476.217
572.538	480.999
572.59	491.637
572.642	503.125
572.694	511.461
572.746	508.835
572.798	502.273
572.85	507.386
572.902	507.295
572.954	508.565
573.006	506.979
573.058	543.017
573.11	530.799
573.162	551.411
573.214	561.776
573.266	573.405
573.302	558.026
573.355	571.966
573.407	571.947
573.459	581.884
573.511	583.885
573.563	605.833
573.615	609.913
573.667	605.871
573.719	606.335
573.772	642.068
573.824	628.439
573.876	644.106
573.928	677.406
573.98	691.303
574.032	687.965
574.084	694.103
574.136	703.568
574.188	743.903
574.241	724.914
574.293	727.645
574.345	753.379
574.397	771.291
574.449	774.499
574.501	791.827
574.553	800.901
574.605	839.756
574.657	829.484
574.71	854.271
574.762	874.471
574.814	871.165
574.866	871.244
574.918	910.43
574.97	900.065
575.022	926.056
575.074	922.216
575.126	950.199
575.178	969.218
575.231	974.797
575.283	978.739
575.335	997.424
575.387	991.679
575.439	1026.38
575.491	1028.87
575.543	1029.96
575.595	1061.43
575.647	1032.85
575.7	1049.36
575.752	1047.46
575.804	1054.62
575.856	1088.72
575.908	1081.99
575.96	1047.28
576.012	1028.15
576.064	1056.18
576.116	1039.14
576.168	1065.71
576.22	1039.36
576.273	1057
576.325	998.045
576.377	1002.36
576.429	1004.63
576.481	965.143
576.533	996.666
576.585	982.634
576.637	989.857
576.689	967.73
576.741	951.437
576.793	921.829
576.846	907.661
576.898	916.483
576.95	903.878
577.002	899.182
577.054	885.236
577.106	893.145
577.158	877.053
577.21	845.689
577.262	847.222
577.314	836.96
577.366	834.826
577.418	834.686
577.471	805.727
577.523	807.283
577.575	805.532
577.627	802.219
577.679	771.824
577.731	773.204
577.783	783.807
577.835	785.536
577.887	754.939
577.939	764.734
577.991	729.282
578.043	738.487
578.095	744.135
578.148	732.786
578.2	714.991
578.252	736.355
578.304	722.213
578.356	690.336
578.408	700.754
578.46	702.345
578.512	699.594
578.564	682.438
578.616	669.167
578.668	676.631
578.72	683.873
578.772	679.021
578.824	667.451
578.877	668.394
578.929	645.97
578.981	644.666
579.033	655.336
579.085	677.766
579.137	653.057
579.189	685.043
579.241	653.595
579.293	650.564
579.345	647.207
579.397	655.85
579.449	670.293
579.501	652.634
579.553	657.827
579.605	643.06
579.658	645.544
579.71	647.11
579.762	660.565
579.814	637.911
579.866	651.876
579.918	653.07
579.97	653.334
580.022	656.626
580.074	655.068
580.126	655.83
580.178	643.577
580.23	638.657
580.282	649.973
580.334	654.288
580.386	665.723
580.438	658.186
580.49	641.75
580.542	646.824
580.595	671.224
580.647	642.616
580.699	645.137
580.751	650.746
580.803	658.961
580.855	653.21
580.907	644.662
580.959	676.342
581.011	654.876
581.063	663.995
581.115	673.15
581.167	663.591
581.219	665.895
581.271	661.861
581.323	669.021
581.375	669.089
581.427	692.699
581.479	666.667
581.531	668.925
581.583	666.536
581.635	683.846
581.688	658.88
581.74	681.352
581.792	691.164
581.844	676.057
581.896	664.81
581.948	673.177
582	675.169
582.052	693.124
582.104	701.71
582.156	696.061
582.208	694.105
582.26	683.054
582.312	686.978
582.364	696.279
582.416	694.869
582.468	699.28
582.52	690.882
582.572	691.047
582.624	709.56
582.676	701.336
582.728	715.843
582.78	702.519
582.832	716.307
582.884	718.155
582.936	707.88
582.988	725.691
583.04	721.216
583.092	726.42
583.144	714.174
583.196	716.403
583.249	725.62
583.301	707.005
583.353	711.846
583.405	740.124
583.457	754.358
583.509	729.598
583.561	739.944
583.613	739.311
583.665	729.064
583.717	742.665
583.769	741.747
583.821	738.336
583.873	764.984
583.925	765.293
583.977	746.254
584.029	764.774
584.081	750.12
584.133	755.061
584.185	753.118
584.237	765.917
584.289	786.17
584.341	758.849
584.393	767.281
584.445	769.742
584.497	786.471
584.549	783.611
584.601	779.201
584.653	778.83
584.705	782.002
584.757	792.487
584.809	790.855
584.861	804.844
584.913	811.617
584.965	796.749
585.017	788.2
585.069	787.199
585.121	804.914
585.173	813.554
585.225	832.771
585.277	821.075
585.329	833.23
585.381	819.11
585.433	828.717
585.485	849.624
585.537	845.247
585.589	834.321
585.641	851.676
585.693	829.303
585.745	852.2
585.797	849.492
585.849	853.113
585.901	823.607
585.953	845.977
586.005	852.182
586.057	855.016
586.109	875.035
586.161	835.882
586.213	857.957
586.265	829.229
586.317	884.655
586.369	858.309
586.421	879.8
586.473	874.373
586.525	883.272
586.577	866.483
586.629	866.198
586.681	872.214
586.733	887.008
586.785	869.725
586.837	868.845
586.889	856.764
586.941	885.711
586.993	882.997
587.045	880.103
587.097	866.33
587.149	891.467
587.201	882.407
587.253	894.987
587.305	899.315
587.357	894.631
587.409	872.287
587.461	892.86
587.513	887.514
587.565	904.45
587.617	889.045
587.669	899.566
587.721	903.347
587.773	920.073
587.825	882.988
587.877	903.277
587.929	920.429
587.981	905.609
588.033	921.462
588.085	910.257
588.137	914.087
588.189	912.932
588.241	902.547
588.293	904.224
588.345	900.715
588.397	909.574
588.449	902.286
588.501	901.604
588.552	903.611
588.604	909.678
588.656	908.41
588.708	910.517
588.76	921.308
588.812	915.521
588.864	926.223
588.916	928.899
588.968	923.024
589.02	937.266
589.072	923.955
589.124	920.631
589.176	939.798
589.228	939.055
589.28	942.032
589.332	936.743
589.384	917.147
589.436	936.58
589.488	931.32
589.54	953.227
589.592	947.416
589.644	950.305
589.696	948.884
589.748	933.632
589.8	918.399
589.852	956.828
589.904	941.756
589.956	943.749
590.008	934.853
590.06	908.549
590.112	935.597
590.163	930.805
590.215	928.824
590.267	906.642
590.319	930.664
590.371	943.528
590.423	930.755
590.475	935.959
590.527	933.099
590.579	938.375
590.631	938.851
590.683	938.54
590.735	940.628
590.787	957.823
590.839	940.503
590.891	926.989
590.943	931.024
590.995	943.969
591.047	932.353
591.099	916.101
591.151	910.095
591.203	922.372
591.254	929.996
591.306	920.167
591.358	919.537
591.41	918.834
591.462	916.035
591.514	910.479
591.566	928.448
591.618	923.79
591.67	916.27
591.722	932.005
591.774	924.582
591.826	899.759
591.878	902.451
591.93	918.412
591.982	921.464
592.034	917.731
592.086	915.293
592.137	924.291
592.189	908.904
592.241	898.309
592.293	904.002
592.345	905.685
592.397	906.808
592.449	913.597
592.501	889.259
592.553	889.153
592.605	916.676
592.657	895.283
592.709	888.568
592.761	907.52
592.813	905.128
592.865	912.598
592.916	915.886
592.968	909.04
593.02	910.399
593.072	910.222
593.124	914.207
593.176	917.541
593.228	905.768
593.28	902.819
593.332	906.742
593.384	902.582
593.436	880.396
593.488	897.365
593.54	903.826
593.591	913.835
593.643	912.512
593.695	908.815
593.747	895.851
593.799	889.901
593.851	909.267
593.903	919.732
593.955	925.307
594.007	915.909
594.059	906.806
594.111	920.576
594.163	927.163
594.215	928.799
594.266	914.86
594.318	920.25
594.37	913.03
594.422	909.18
594.474	929.717
594.526	953.278
594.578	938.684
594.63	945.034
594.682	943.838
594.734	926.729
594.786	922.538
594.837	936.202
594.889	922.622
594.941	910.227
594.993	927.094
595.045	938.112
595.097	949.942
595.149	948.169
595.201	947.092
595.253	952.684
595.305	928.633
595.357	931.998
595.408	949.981
595.46	951.021
595.512	935.782
595.564	947.593
595.616	959.325
595.668	953.618
595.72	955.744
595.772	956.319
595.824	953.345
595.876	960.859
595.927	956.817
595.979	963.487
596.031	964.287
596.083	972.481
596.135	990.109
596.187	993.885
596.239	991.421
596.291	999.333
596.343	991.291
596.394	974.489
596.446	987.472
596.498	992.607
596.55	1008.93
596.602	998.936
596.654	1016.59
596.706	1010.81
596.758	983.983
596.81	982.482
596.862	986.052
596.913	998.079
596.965	1013.11
597.017	986.628
597.069	991.68
597.121	1016.38
597.173	1023.06
597.225	1019.08
597.277	1010.94
597.328	1009.19
597.38	1016.37
597.432	1007.56
597.484	1014.8
597.536	1003.01
597.588	1012.86
597.64	1031.95
597.692	1019.15
597.744	1027.24
597.795	1046.61
597.847	1030.43
597.899	1040.03
597.951	1035.91
598.003	1030.38
598.055	1031.28
598.107	1024.56
598.159	1027.46
598.21	1037.27
598.262	1032.98
598.314	1017.24
598.366	1025.06
598.418	1047.34
598.47	1028.86
598.522	1017.74
598.574	1068.04
598.625	1053.3
598.677	1036.24
598.729	1026.29
598.781	1031.9
598.833	1036.09
598.885	1050.17
598.937	1044.98
598.988	1049.81
599.04	1044.82
599.092	1047.18
599.144	1059.57
599.196	1064.53
599.248	1043.9
599.3	1027.59
599.352	1028.1
599.403	1037.21
599.455	1034.98
599.507	1058.35
599.559	1052.54
599.611	1051.69
599.663	1047.95
599.715	1067.54
599.766	1048.62
599.803	1018.04
599.855	1071.99
599.907	1051.9
599.959	1065.7
600.011	1040.05
600.063	1028.18
600.115	1061.62
600.167	1041.87
600.219	1061.4
600.271	1073.46
600.323	1063.8
600.375	1056.04
600.427	1067.04
600.479	1041.91
600.531	1082.88
600.583	1072.5
600.635	1056.12
600.686	1056.01
600.738	1072.4
600.79	1031.79
600.842	1089.67
600.894	1035.71
600.946	1061.81
600.998	1057.89
601.05	1051.83
601.102	1063.56
601.154	1049.44
601.206	1081.12
601.258	1078.68
601.31	1052.6
601.362	1045.74
601.414	1074.51
601.466	1076
601.518	1062.02
601.57	1051.72
601.622	1076.61
601.674	1063.59
601.726	1079.4
601.778	1080.2
601.83	1047.39
601.882	1077.2
601.934	1063.51
601.986	1076.17
602.038	1061.66
602.09	1053.04
602.142	1059.69
602.194	1109.82
602.246	1095.59
602.298	1096.17
602.35	1088.37
602.402	1055.56
602.454	1091.19
602.506	1060.03
602.558	1097.29
602.61	1040.46
602.662	1076.68
602.714	1093.74
602.766	1089.9
602.818	1080.92
602.87	1102.53
602.922	1091.54
602.974	1102.54
603.026	1060.39
603.078	1090.25
603.13	1094.83
603.182	1103.05
603.234	1113.51
603.285	1077.97
603.337	1094.5
603.389	1076.66
603.441	1098.98
603.493	1093.33
603.545	1089.04
603.597	1104.44
603.649	1087.95
603.701	1076.3
603.753	1087.33
603.805	1114.81
603.857	1087.97
603.909	1120.5
603.961	1077.03
604.013	1105.04
604.065	1102.31
604.117	1073.25
604.169	1128.86
604.221	1132.77
604.273	1100.85
604.325	1111.11
604.377	1113.83
604.429	1093.32
604.481	1107.51
604.533	1108.21
604.584	1097.65
604.636	1069.24
604.688	1132.38
604.74	1089.71
604.792	1097.12
604.844	1114.72
604.896	1098.61
604.948	1138.67
605	1090.47
605.052	1090.84
605.104	1128.89
605.156	1114.13
605.208	1101.21
605.26	1120.06
605.312	1112.27
605.364	1107.69
605.416	1104.04
605.468	1114.74
605.52	1126.69
605.572	1087.14
605.623	1093.74
605.675	1108.17
605.727	1095.27
605.779	1093.99
605.831	1098.77
605.883	1128.3
605.935	1119.3
605.987	1097.21
606.039	1103.54
606.091	1086.66
606.143	1098.26
606.195	1143.65
606.247	1110.11
606.299	1107.66
606.351	1109.06
606.403	1125.73
606.455	1113.23
606.506	1108.54
606.558	1117.21
606.61	1100.82
606.662	1103.12
606.714	1096.32
606.766	1130.88
606.818	1103.53
606.87	1087.6
606.922	1104.63
606.974	1092.87
607.026	1095.91
607.078	1134.94
607.13	1125.9
607.182	1102.73
607.234	1132.65
607.285	1094.88
607.337	1098.7
607.389	1112.21
607.441	1111.3
607.493	1136.83
607.545	1115.1
607.597	1116.37
607.649	1111.45
607.701	1116.78
607.753	1141.65
607.805	1136.27
607.857	1133.34
607.909	1136.45
607.96	1119.69
608.012	1104.12
608.064	1118.95
608.116	1117.78
608.168	1126
608.22	1139.46
608.272	1104.6
608.324	1156.04
608.376	1134.81
608.428	1129.92
608.48	1134.72
608.532	1125.69
608.583	1145.45
608.635	1140.86
608.687	1129.49
608.739	1147.77
608.791	1124.36
608.843	1126.28
608.895	1123.5
608.947	1145.92
608.999	1141.65
609.051	1119.42
609.103	1147.07
609.155	1156.5
609.206	1158.53
609.258	1162.91
609.31	1145.09
609.362	1186.41
609.414	1141.67
609.466	1129.8
609.518	1171.34
609.57	1143.22
609.622	1154.59
609.674	1154.47
609.725	1165.79
609.777	1173.2
609.829	1155.67
609.881	1186.64
609.933	1170.77
609.985	1152.38
610.037	1141.8
610.089	1163.69
610.141	1164.67
610.193	1191.88
610.245	1177.59
610.296	1186.38
610.348	1205.95
610.4	1174.24
610.452	1187.6
610.504	1176.02
610.556	1177.12
610.608	1169.35
610.66	1179.16
610.712	1186.03
610.763	1179.79
610.815	1184.29
610.867	1192.38
610.919	1187.39
610.971	1180.89
611.023	1177.43
611.075	1192.49
611.127	1209.17
611.179	1220.22
611.23	1210.36
611.282	1204.61
611.334	1200.5
611.386	1209.83
611.438	1208.69
611.49	1211.02
611.542	1191.95
611.594	1190.47
611.646	1190.89
611.697	1209.94
611.749	1176.33
611.801	1225.93
611.853	1211.84
611.905	1213.65
611.957	1210.55
612.009	1191.81
612.061	1214.36
612.113	1205.57
612.164	1187.07
612.216	1196.61
612.268	1217.26
612.32	1226.85
612.372	1203.75
612.424	1221.29
612.476	1218.35
612.528	1205.1
612.579	1217.75
612.631	1215.26
612.683	1218.31
612.735	1242.04
612.787	1238.87
612.839	1216.45
612.891	1220.6
612.943	1237.17
612.994	1242.38
613.046	1246.98
613.098	1228.59
613.15	1272.96
613.202	1261.25
613.254	1230.75
613.306	1243.56
613.357	1240.46
613.409	1262.18
613.461	1261.91
613.513	1257.6
613.565	1238.44
613.617	1249.61
613.669	1243.44
613.721	1267.32
613.772	1257.23
613.824	1263.33
613.876	1264.21
613.928	1259.22
613.98	1274.07
614.032	1295.89
614.084	1288.2
614.135	1262.63
614.187	1252.21
614.239	1272.86
614.291	1290.19
614.343	1279.34
614.395	1287.92
614.447	1294.05
614.498	1314.6
614.55	1280.98
614.602	1305.27
614.654	1302.94
614.706	1284.55
614.758	1289.55
614.81	1317.97
614.861	1317.75
614.913	1294.97
614.965	1314.32
615.017	1320.76
615.069	1318.77
615.121	1316.75
615.172	1320.54
615.224	1317.3
615.276	1328.56
615.328	1306.59
615.38	1309.81
615.432	1327.55
615.484	1313
615.535	1312.74
615.587	1318.95
615.639	1321.32
615.691	1346.37
615.743	1341.81
615.795	1363.18
615.846	1364.5
615.898	1336.6
615.95	1330.71
616.002	1356.95
616.054	1356.12
616.106	1371.46
616.158	1365.3
616.209	1370.11
616.261	1373.14
616.313	1351.71
616.365	1358.71
616.417	1365.32
616.469	1371.76
616.52	1355.42
616.572	1365.97
616.624	1384.64
616.676	1367.19
616.728	1372.39
616.78	1371.57
616.831	1393.66
616.883	1374.43
616.935	1372.34
616.987	1383.52
617.039	1382.14
617.091	1384.56
617.142	1379.7
617.194	1382.03
617.246	1382.66
617.298	1376.57
617.35	1394.77
617.401	1400.21
617.453	1383.6
617.505	1404.8
617.557	1413.38
617.609	1424
617.661	1425.29
617.712	1408.23
617.764	1423.43
617.816	1426.7
617.868	1434.49
617.92	1421.94
617.972	1423.55
618.023	1412.46
618.075	1436.93
618.127	1440.24
618.179	1427.22
618.231	1418.71
618.282	1424.93
618.334	1438.06
618.386	1439.62
618.438	1436.66
618.49	1447.63
618.542	1463.96
618.593	1453.05
618.645	1447.52
618.697	1474.56
618.749	1465.98
618.801	1479.02
618.852	1487.78
618.904	1455.73
618.956	1436.7
619.008	1471.34
619.06	1481.15
619.111	1499.36
619.163	1496.76
619.215	1473.42
619.267	1485.73
619.319	1487.56
619.37	1489.48
619.422	1491.01
619.474	1468.55
619.526	1492.12
619.578	1486.9
619.63	1531.69
619.681	1508.95
619.733	1506.23
619.785	1530.03
619.837	1517.96
619.888	1530.44
619.94	1497.14
619.992	1517.07
620.044	1502.27
620.096	1499.73
620.147	1507.22
620.199	1530.97
620.251	1500.65
620.303	1509.97
620.355	1512.07
620.406	1520.89
620.458	1542.23
620.51	1555.03
620.562	1529.56
620.614	1539.54
620.665	1552.6
620.717	1554.23
620.769	1522.8
620.821	1529.54
620.873	1546.52
620.924	1518.82
620.976	1538.11
621.028	1538.52
621.08	1552.69
621.132	1572.97
621.183	1531.55
621.235	1533.41
621.287	1568.49
621.339	1554.25
621.39	1524.95
621.442	1512.81
621.494	1550.41
621.546	1539.62
621.598	1553.39
621.649	1538.02
621.701	1544.51
621.753	1516.66
621.805	1572.15
621.856	1579.11
621.908	1550.96
621.96	1581.6
622.012	1581.6
622.064	1572.48
622.115	1553.44
622.167	1547.1
622.219	1539.46
622.271	1545.42
622.322	1558.39
622.374	1534.07
622.426	1578.69
622.478	1562.95
622.53	1558.6
622.581	1581.91
622.633	1616.13
622.685	1578.36
622.737	1575.8
622.788	1599.18
622.84	1576.2
622.892	1546.52
622.944	1596.09
622.995	1548.32
623.047	1561.15
623.099	1551.85
623.151	1541.68
623.203	1573.29
623.254	1540.26
623.306	1562.98
623.358	1584.06
623.41	1590.35
623.461	1566.3
623.513	1578.17
623.565	1586.87
623.617	1562.05
623.668	1584.85
623.72	1545.48
623.772	1548.16
623.824	1590.16
623.875	1590.33
623.927	1588
623.979	1558
624.031	1573
624.082	1606.36
624.134	1582.42
624.186	1594.13
624.238	1614.25
624.289	1640.2
624.341	1570.87
624.393	1610.41
624.445	1618.3
624.496	1595.62
624.548	1605.47
624.6	1605.53
624.652	1601.78
624.703	1592.6
624.755	1594.53
624.807	1599.55
624.859	1607.88
624.91	1562.77
624.962	1608.69
625.014	1565.91
625.066	1593.44
625.117	1584.68
625.169	1596.37
625.221	1607.36
625.273	1604.59
625.324	1631.05
625.376	1623.31
625.428	1648.26
625.48	1626.07
625.531	1621.09
625.583	1631.59
625.635	1581.84
625.687	1596.48
625.738	1620.97
625.79	1654.45
625.842	1623.1
625.893	1655.67
625.945	1628.76
625.997	1677.73
626.049	1636
626.1	1670.05
626.152	1683.15
626.204	1662.3
626.256	1664.78
626.307	1656.01
626.316	1653.98
626.368	1647.87
626.42	1665.99
626.472	1653.84
626.523	1639.9
626.575	1655.14
626.627	1685.19
626.679	1649.89
626.731	1664.03
626.783	1696.29
626.835	1691.7
626.887	1658.91
626.938	1679.49
626.99	1653.21
627.042	1682.57
627.094	1638.2
627.146	1677.6
627.198	1684.18
627.25	1671.29
627.302	1686.65
627.353	1688.35
627.405	1646.79
627.457	1692.3
627.509	1715.16
627.561	1676.35
627.613	1736.87
627.665	1699.94
627.716	1683.62
627.768	1701.19
627.82	1667.09
627.872	1725.23
627.924	1725.01
627.976	1688.97
628.028	1714.96
628.079	1692.92
628.131	1715.02
628.183	1716.94
628.235	1665.87
628.287	1691.89
628.339	1718.7
628.391	1685.98
628.443	1703.11
628.494	1727.71
628.546	1680.69
628.598	1704.14
628.65	1752.58
628.702	1683.77
628.754	1736.7
628.805	1757.11
628.857	1746.17
628.909	1737.02
628.961	1765.17
629.013	1730.6
629.065	1733.58
629.117	1772.89
629.168	1752.42
629.22	1746.92
629.272	1776.33
629.324	1783.98
629.376	1729.87
629.428	1743.87
629.479	1779.69
629.531	1737.16
629.583	1767.51
629.635	1764.27
629.687	1755.19
629.739	1757.02
629.791	1773.04
629.842	1738.47
629.894	1752.58
629.946	1776.34
629.998	1786.21
630.05	1788.85
630.102	1790
630.153	1775.44
630.205	1754.33
630.257	1776.94
630.309	1752.98
630.361	1768.9
630.413	1766.16
630.464	1774.73
630.516	1806
630.568	1769.84
630.62	1793.66
630.672	1795.57
630.724	1795.48
630.776	1805.85
630.827	1792.68
630.879	1836.53
630.931	1818.6
630.983	1817.21
631.035	1785.4
631.086	1804.74
631.138	1810.73
631.19	1809.6
631.242	1830.38
631.294	1803.63
631.346	1856.8
631.397	1816.46
631.449	1841.16
631.501	1856.92
631.553	1862.42
631.605	1883.18
631.657	1863.65
631.708	1831.94
631.76	1850.83
631.812	1894.32
631.864	1877.42
631.916	1849.91
631.967	1869.57
632.019	1830.25
632.071	1879.9
632.123	1887.96
632.175	1825.61
632.227	1880.3
632.278	1839.96
632.33	1908.96
632.382	1891.32
632.434	1896.32
632.486	1891.24
632.537	1890.21
632.589	1903.51
632.641	1914.86
632.693	1941.88
632.745	1923.09
632.797	1898.36
632.848	1927.22
632.9	1906.87
632.952	1918.81
633.004	1949.13
633.056	1949.51
633.107	1895.83
633.159	1918.51
633.211	1953.75
633.263	1941.19
633.315	1945.19
633.366	1941.75
633.418	1978.86
633.47	1965.76
633.522	1946.29
633.574	1983.67
633.625	1945.68
633.677	1943.1
633.729	1992.42
633.781	1975.52
633.833	1957.05
633.885	1941.41
633.936	2000
633.988	2005.15
634.04	1977.47
634.092	2012.46
634.143	1962.04
634.195	2001.72
634.247	1982.91
634.299	2014.37
634.351	2035.6
634.403	2012.37
634.454	2034.52
634.506	2041.53
634.558	2032.66
634.61	2047.41
634.661	2041.24
634.713	2063.39
634.765	2050.5
634.817	2040.82
634.869	2052.08
634.92	2053.95
634.972	2058.8
635.024	2107.89
635.076	2061.54
635.128	2106.11
635.179	2112.11
635.231	2101.57
635.283	2134.71
635.335	2117.16
635.387	2149.42
635.438	2148.98
635.49	2154.8
635.542	2151.38
635.594	2198.55
635.645	2177.32
635.697	2153.43
635.749	2168.29
635.801	2228.86
635.853	2221.86
635.904	2226.06
635.956	2225.38
636.008	2231.15
636.06	2225.58
636.112	2263.95
636.163	2280.5
636.215	2256.45
636.267	2307.07
636.319	2305.2
636.37	2331.84
636.422	2340.35
636.474	2373.07
636.526	2389.6
636.577	2382.35
636.629	2387.6
636.681	2425.15
636.733	2468.57
636.785	2445.72
636.836	2510.27
636.888	2544.88
636.94	2545.17
636.992	2561.18
637.043	2592.83
637.095	2625.16
637.147	2649.09
637.199	2678.85
637.25	2713.47
637.302	2812.49
637.354	2808.42
637.406	2793.22
637.458	2832.36
637.509	2852.2
637.561	2878.72
637.613	2916.71
637.665	2957.94
637.716	2948.04
637.768	3015.05
637.82	2998.71
637.872	3046.01
637.923	3053.84
637.975	3089.79
638.027	3080.7
638.079	3120.45
638.13	3143.27
638.182	3148.86
638.234	3102.9
638.286	3102.15
638.337	3119.36
638.389	3102.08
638.441	3104.56
638.493	3101.01
638.544	3062.94
638.596	3070.93
638.648	3041.82
638.7	3057.24
638.752	3049.49
638.803	2964.04
638.855	2990.19
638.907	2984.44
638.958	2979.92
639.01	2923.15
639.062	2936.2
639.114	2930.98
639.165	2870.22
639.217	2900.97
639.269	2875.65
639.321	2844.16
639.372	2830.36
639.424	2799.63
639.476	2777.05
639.528	2756.56
639.579	2788.06
639.631	2756.62
639.683	2719.01
639.735	2707.55
639.786	2710.72
639.838	2716.54
639.89	2679
639.942	2666.1
639.993	2668.42
640.045	2659.78
640.097	2677.7
640.149	2652.66
640.2	2621.2
640.252	2632.92
640.304	2636.77
640.356	2630.58
640.407	2628.59
640.459	2611.92
640.511	2597.51
640.562	2602.65
640.614	2576.36
640.666	2553.28
640.718	2569.76
640.769	2558.74
640.821	2552.25
640.873	2568.18
640.925	2554.9
640.976	2536.17
641.028	2565.18
641.08	2529.27
641.131	2545.33
641.183	2540.36
641.235	2498.47
641.287	2517.14
641.338	2538.61
641.39	2551.57
641.442	2539.3
641.494	2536.99
641.545	2528.69
641.597	2519.1
641.649	2505.43
641.7	2537.09
641.752	2541.99
641.804	2512.23
641.856	2505.34
641.907	2500.37
641.959	2514.06
642.011	2503.68
642.063	2490.04
642.114	2517.73
642.166	2502.8
642.218	2496.27
642.269	2457.62
642.321	2501.82
642.373	2505.4
642.424	2499.36
642.476	2479.13
642.528	2497.34
642.58	2508.33
642.631	2509.52
642.683	2490.82
642.735	2551.44
642.786	2555.06
642.838	2503.64
642.89	2512.26
642.942	2506.54
642.993	2501.87
643.045	2504.03
643.097	2513.83
643.148	2532.14
643.2	2523.09
643.252	2542.03
643.304	2554.81
643.355	2524.58
643.407	2571.73
643.459	2524.74
643.51	2478.79
643.562	2511.7
643.614	2535.56
643.665	2520.66
643.717	2512.09
643.769	2534.53
643.82	2547.63
643.872	2495.47
643.924	2525.9
643.976	2554.15
644.027	2519.94
644.079	2515.41
644.131	2557.16
644.182	2553.49
644.234	2548.15
644.286	2537.74
644.337	2575.95
644.389	2552.36
644.441	2588.42
644.493	2608.48
644.544	2538.31
644.596	2551.27
644.648	2581.88
644.699	2575.59
644.751	2554.64
644.803	2550.61
644.854	2579.93
644.906	2573.65
644.958	2563.46
645.009	2582.97
645.061	2590.68
645.113	2583.56
645.164	2585.66
645.216	2562.15
645.268	2586.19
645.32	2566.69
645.371	2603.38
645.423	2606.83
645.475	2619.41
645.526	2611.69
645.578	2612.65
645.63	2603.35
645.681	2567.71
645.733	2611.52
645.785	2642.18
645.836	2633.63
645.888	2635.94
645.94	2615.53
645.991	2639.24
646.043	2651.63
646.095	2650.78
646.146	2612.8
646.198	2609.82
646.25	2630.55
646.301	2641.25
646.353	2615.25
646.405	2602.84
646.456	2657.43
646.508	2647.11
646.56	2637.65
646.611	2665.79
646.663	2637.75
646.715	2668.84
646.766	2655.25
646.818	2633.26
646.87	2600.53
646.921	2712.82
646.973	2645.62
647.025	2667.79
647.076	2684.93
647.128	2635.97
647.18	2719.13
647.231	2696.76
647.283	2705.15
647.335	2687.21
647.386	2684.1
647.438	2709.64
647.49	2701.43
647.541	2711.59
647.593	2677.71
647.645	2687.72
647.696	2701.36
647.748	2723.81
647.8	2702.4
647.851	2672.41
647.903	2722.26
647.955	2695.82
648.006	2683.94
648.058	2743.02
648.109	2733.34
648.161	2682.69
648.213	2707.28
648.264	2738.31
648.316	2749.7
648.368	2738.05
648.419	2715.42
648.471	2785.26
648.523	2771.83
648.574	2775.76
648.626	2788.92
648.678	2736.37
648.729	2727.23
648.781	2748.4
648.833	2774.96
648.884	2767.36
648.936	2765.1
648.987	2809.39
649.039	2831.44
649.091	2788.31
649.142	2807.72
649.194	2802.48
649.246	2787.46
649.297	2796.7
649.349	2817.84
649.401	2827.76
649.452	2765.17
649.504	2807.87
649.555	2815.25
649.607	2868.93
649.659	2828.11
649.71	2782.1
649.762	2864.14
649.814	2808.17
649.865	2823.36
649.917	2809.05
649.969	2872.69
650.02	2830.83
650.072	2870.69
650.123	2876.01
650.175	2824.69
650.227	2869.84
650.278	2878
650.33	2926.47
650.382	2919.28
650.433	2910.07
650.485	2866.97
650.536	2908.72
650.588	2891.98
650.64	2938.43
650.691	2930.46
650.743	2895.42
650.795	2928.61
650.846	2925.65
650.898	2942.13
650.949	2935.41
651.001	2952.51
651.053	2931.72
651.104	2921.68
651.156	2918.86
651.208	2949.67
651.259	2948.26
651.311	2949.77
651.362	2991.48
651.414	2972.82
651.466	2976.92
651.517	2958.61
651.569	2983.29
651.62	2947.84
651.672	2974.78
651.724	3013.21
651.775	3018.35
651.827	2999.26
651.878	3008.24
651.93	3020.04
651.982	3001.27
652.033	3004.44
652.085	3015.84
652.137	2996.91
652.188	3036.08
652.24	3001.65
652.291	3045.57
652.343	3003.91
652.395	3031.65
652.446	3021.31
652.498	3017.74
652.549	3092.89
652.601	3078.43
652.653	3044.5
652.704	3079.26
652.756	3099.39
652.772	3099.99
652.824	3064.21
652.876	3101.27
652.927	3125.47
652.979	3077.74
653.031	3093.84
653.083	3064.11
653.134	3016.42
653.186	3092.92
653.238	3101.79
653.29	3127.44
653.341	3157.84
653.393	3127.25
653.445	3116.44
653.497	3124.22
653.548	3124.43
653.6	3154.61
653.652	3132.19
653.704	3145.52
653.755	3142.44
653.807	3193.6
653.859	3131.27
653.91	3136.85
653.962	3146.39
654.014	3196.07
654.066	3163.45
654.117	3167.87
654.169	3150.76
654.221	3218.48
654.273	3173.91
654.324	3213.49
654.376	3232.56
654.428	3200.36
654.48	3224.63
654.531	3239.88
654.583	3248.25
654.635	3255.38
654.686	3210.6
654.738	3311.62
654.79	3267.67
654.842	3269.58
654.893	3275.01
654.945	3289.91
654.997	3333.81
655.049	3344.66
655.1	3307.8
655.152	3283.79
655.204	3329.86
655.255	3329.54
655.307	3356.45
655.359	3373.63
655.411	3334.61
655.462	3343.04
655.514	3309.26
655.566	3412.46
655.618	3419.75
655.669	3410.53
655.721	3364.04
655.773	3410.51
655.824	3419.33
655.876	3415.92
655.928	3397.61
655.98	3401.93
656.031	3434.87
656.083	3478.43
656.135	3462.31
656.186	3440.39
656.238	3465.53
656.29	3428.19
656.342	3421.07
656.393	3496.29
656.445	3463.7
656.497	3461.12
656.548	3463.31
656.6	3497.35
656.652	3497.99
656.704	3521.43
656.755	3554.83
656.807	3527.7
656.859	3567.73
656.91	3535.55
656.962	3572.34
657.014	3552.12
657.065	3579.11
657.117	3598.69
657.169	3592.81
657.221	3569.98
657.272	3599.33
657.324	3679.35
657.376	3598.81
657.427	3552.16
657.479	3635.56
657.531	3658.03
657.583	3666.4
657.634	3658.28
657.686	3665.13
657.738	3681.5
657.789	3700.26
657.841	3681.06
657.893	3672.56
657.944	3694.09
657.996	3715.05
658.048	3688.88
658.099	3703.43
658.151	3729.81
658.203	3731.69
658.255	3713.12
658.306	3687.91
658.358	3710.41
658.41	3693.9
658.461	3705.02
658.513	3717.2
658.565	3724.5
658.616	3761.03
658.668	3721.18
658.72	3753.52
658.771	3723.45
658.823	3784.13
658.875	3777
658.927	3766.7
658.978	3801.54
659.03	3765.62
659.082	3758.48
659.133	3794.87
659.185	3767.12
659.237	3761.92
659.288	3807.26
659.34	3721
659.392	3792.71
659.443	3762.93
659.495	3827.55
659.547	3774.33
659.598	3811.9
659.65	3821.39
659.702	3780.6
659.753	3773.82
659.805	3852.09
659.857	3796.47
659.909	3776.69
659.96	3754.31
660.012	3793.52
660.064	3770.98
660.115	3818.04
660.167	3768.45
660.219	3826.89
660.27	3838.93
660.322	3824.55
660.374	3838.82
660.425	3770.5
660.477	3787.16
660.529	3780.07
660.58	3766.3
660.632	3849.62
660.684	3799.77
660.735	3743.58
660.787	3833.15
660.839	3806.75
660.89	3826.47
660.942	3811.25
660.994	3779.07
661.045	3848.05
661.097	3860.39
661.149	3846.86
661.2	3791.12
661.252	3834.1
661.304	3792.76
661.355	3778.97
661.407	3814.54
661.459	3872.68
661.51	3837.42
661.562	3822.02
661.614	3809.32
661.665	3819.01
661.717	3802.08
661.768	3801.96
661.82	3812.82
661.872	3852.06
661.923	3774.83
661.975	3786.38
662.027	3829.78
662.078	3842.12
662.13	3802.7
662.182	3874.11
662.233	3855.16
662.285	3814.25
662.337	3764
662.388	3751.27
662.44	3805.85
662.492	3810.39
662.543	3789.86
662.595	3790.5
662.647	3802.46
662.698	3825.95
662.75	3814.79
662.802	3835.15
662.853	3778.23
662.905	3807.59
662.956	3778.12
663.008	3807.74
663.06	3827.48
663.111	3849.14
663.163	3834.55
663.215	3795.27
663.266	3838.6
663.318	3821.95
663.37	3865.82
663.421	3789.35
663.473	3824.51
663.525	3806.83
663.576	3839.03
663.628	3801.77
663.679	3811.81
663.731	3835.64
663.783	3844.97
663.834	3836
663.886	3810.29
663.938	3804.56
663.989	3848.23
664.041	3857.51
664.093	3825.23
664.144	3809.45
664.196	3844.37
664.247	3847.26
664.299	3815.56
664.351	3825.07
664.402	3851.77
664.454	3840.43
664.506	3866.08
664.557	3805.81
664.609	3781.61
664.66	3806.33
664.712	3822.56
664.764	3824.31
664.815	3836.72
664.867	3820.91
664.919	3813.97
664.97	3806.86
665.022	3811.57
665.073	3790.93
665.125	3780.95
665.177	3837.49
665.228	3785.55
665.28	3786.84
665.332	3797.66
665.383	3813.9
665.435	3804.69
665.486	3816.36
665.538	3807.15
665.59	3787.8
665.641	3798.68
665.693	3788.61
665.745	3815.01
665.796	3788.8
665.848	3827.67
665.899	3803.99
665.951	3802.34
666.003	3747.8
666.054	3798.99
666.106	3795.56
666.157	3812.82
666.209	3785.08
666.261	3783.67
666.312	3786.1
666.364	3796.89
666.415	3794.5
666.467	3808.7
666.519	3802.3
666.57	3803.72
666.622	3781.73
666.673	3784.36
666.725	3804.21
666.777	3809.33
666.828	3797.53
666.88	3769.44
666.931	3765.05
666.983	3823.7
667.035	3831.3
667.086	3775.01
667.138	3790.07
667.189	3776.58
667.241	3796.8
667.293	3793.61
667.344	3782.66
667.396	3747.81
667.447	3767.48
667.499	3781.79
667.551	3768.02
667.602	3759.38
667.654	3797.88
667.705	3770.73
667.757	3851.29
667.809	3818.87
667.86	3792.92
667.912	3782.29
667.963	3794.22
668.015	3796.49
668.067	3826.39
668.118	3778.48
668.17	3807.16
668.221	3785
668.273	3766.12
668.325	3792.6
668.376	3768.15
668.428	3770.35
668.479	3796.51
668.531	3828.4
668.582	3798
668.634	3772.55
668.686	3788.31
668.737	3799.25
668.789	3792.79
668.84	3784.44
668.892	3778.04
668.944	3780.32
668.995	3807.05
669.047	3765.01
669.098	3808.59
669.15	3804.34
669.201	3768.29
669.253	3813.41
669.305	3800.1
669.356	3768.29
669.408	3732.68
669.459	3817.86
669.511	3817.05
669.562	3756.03
669.614	3757.19
669.666	3778.92
669.717	3809.66
669.769	3762.92
669.82	3800.37
669.872	3817.67
669.923	3812.01
669.975	3765.8
670.027	3765.33
670.078	3825.47
670.13	3816.23
670.181	3785.7
670.233	3745.21
670.284	3830.77
670.336	3754.73
670.388	3746.94
670.439	3774.79
670.491	3816.55
670.542	3834.84
670.594	3799.51
670.645	3786.83
670.697	3799.33
670.748	3811.95
670.8	3800.76
670.852	3792.13
670.903	3799
670.955	3825.58
671.006	3787.05
671.058	3824.54
671.109	3805.07
671.161	3814.28
671.212	3806.12
671.264	3764.67
671.316	3812.75
671.367	3811.94
671.419	3811.5
671.47	3782.22
671.522	3804.92
671.573	3795.24
671.625	3761.62
671.676	3795.01
671.728	3769.84
671.78	3779.57
671.831	3836.89
671.883	3813.69
671.934	3806.31
671.986	3828.13
672.037	3834.17
672.089	3808.33
672.14	3785.92
672.192	3818.83
672.243	3832.21
672.295	3841.28
672.347	3839.21
672.398	3864.47
672.45	3791.12
672.501	3806.33
672.553	3808.8
672.604	3846.9
672.656	3825.9
672.707	3862.05
672.759	3860.14
672.81	3811.97
672.862	3869.97
672.913	3861.97
672.965	3870.73
673.017	3886.22
673.068	3845.8
673.12	3860.16
673.171	3909.24
673.223	3927.64
673.274	3865.98
673.326	3885.83
673.377	3901.31
673.429	3855.82
673.48	3891.14
673.532	3884.31
673.583	3924.25
673.635	3923.06
673.686	3911.23
673.738	3911.18
673.789	3927.97
673.841	3890.89
673.893	3951.75
673.944	3930.71
673.996	3923.24
674.047	3932.91
674.099	3947.93
674.15	3949.53
674.202	3917.03
674.253	3905.92
674.305	3960.37
674.356	3971.97
674.408	3941.17
674.459	3969.18
674.511	3974.83
674.562	3938.76
674.614	3980.56
674.665	3998.8
674.717	4013
674.768	3970.15
674.82	3995.92
674.871	3958.24
674.923	3945.76
674.974	3979.33
675.026	4024.37
675.077	4046.37
675.129	4031.42
675.18	3980.41
675.232	4004.43
675.284	4019.6
675.335	4036.63
675.387	3995.5
675.438	3994.04
675.49	4032.12
675.541	4029.05
675.593	4021.58
675.644	4036.39
675.696	4040.11
675.747	4035.93
675.799	4061.18
675.85	4058.84
675.902	4046.84
675.953	4026.14
676.005	4007.9
676.056	4045.49
676.108	4074.6
676.159	4120.74
676.211	4095.3
676.262	4046.64
676.314	4072.03
676.365	4099.6
676.417	4086.57
676.468	4060.54
676.52	4068.05
676.571	4060.87
676.623	4050.13
676.674	4050.11
676.726	4050.73
676.777	4057.89
676.828	4071.66
676.88	4065.35
676.932	4056.52
676.983	4056.1
677.034	4097.19
677.086	4077.73
677.137	4063.25
677.189	4068.76
677.24	4084.57
677.292	4097.93
677.343	4092.23
677.395	4062.29
677.446	4028.14
677.498	4039.19
677.549	4090.74
677.601	4034.78
677.652	4039.57
677.704	4079.5
677.755	4063.85
677.807	4069.11
677.858	4099.65
677.91	4120.98
677.961	4109.83
678.013	4103.46
678.064	4090.1
678.116	4081.18
678.167	4074.44
678.219	4024.92
678.27	4037.43
678.322	4082.89
678.373	4080.79
678.424	4079.45
678.476	4115.12
678.527	4106.17
678.579	4086.64
678.63	4100.97
678.682	4083.13
678.733	4106.09
678.785	4107.82
678.836	4057.99
678.888	4055.53
678.939	4076.98
678.991	4102.03
679.042	4137.27
679.094	4124.55
679.122	4096.15
679.173	4144.02
679.225	4114.46
679.277	4138.37
679.328	4086.98
679.38	4096.23
679.432	4043.98
679.483	4077.57
679.535	4136.34
679.586	4101.26
679.638	4108.32
679.69	4129.42
679.741	4095.84
679.793	4064.59
679.844	4102.79
679.896	4075.04
679.948	4133.67
679.999	4146.31
680.051	4130.15
680.103	4068.51
680.154	4089.4
680.206	4102.57
680.257	4138.92
680.309	4047.95
680.361	4121.73
680.412	4149.7
680.464	4145.31
680.515	4148.25
680.567	4161.07
680.619	4136.09
680.67	4220.01
680.722	4183.66
680.773	4158.71
680.825	4191.23
680.877	4146.25
680.928	4240.97
680.98	4186.36
681.031	4220.63
681.083	4131.84
681.135	4157.24
681.186	4164.89
681.238	4135.95
681.289	4122.01
681.341	4178.83
681.393	4152.57
681.444	4135.09
681.496	4126.3
681.547	4158.67
681.599	4176.19
681.651	4213.97
681.702	4230.33
681.754	4195.77
681.805	4190.65
681.857	4246.41
681.909	4221.83
681.96	4168.99
682.012	4182.9
682.063	4211.63
682.115	4158.1
682.166	4186.07
682.218	4263.94
682.27	4163.06
682.321	4237.1
682.373	4237.74
682.424	4203.88
682.476	4191.62
682.528	4211.36
682.579	4243.69
682.631	4218.36
682.682	4207.29
682.734	4260.02
682.785	4187.75
682.837	4240.27
682.889	4284.36
682.94	4240.96
682.992	4220.81
683.043	4253.39
683.095	4236.9
683.146	4240.64
683.198	4217.78
683.25	4202.97
683.301	4230.55
683.353	4213.64
683.404	4285.27
683.456	4246.33
683.508	4284.95
683.559	4239.08
683.611	4237.16
683.662	4229.38
683.714	4293.89
683.765	4270.9
683.817	4228.4
683.869	4221.02
683.92	4234.52
683.972	4266.46
684.023	4270.88
684.075	4245.64
684.126	4222.33
684.178	4249.67
684.229	4243.45
684.281	4229.26
684.333	4238.02
684.384	4209.87
684.436	4206.01
684.487	4228.72
684.539	4243.6
684.59	4253.87
684.642	4202.54
684.694	4235.99
684.745	4182.38
684.797	4194.33
684.848	4186.47
684.9	4200.9
684.951	4158.09
685.003	4203.43
685.055	4244.31
685.106	4192.31
685.158	4159.93
685.209	4154.05
685.261	4184.34
685.312	4216.42
685.364	4210.3
685.415	4166.17
685.467	4210.9
685.518	4181.54
685.57	4179.59
685.622	4215.7
685.673	4168.66
685.725	4220.48
685.776	4161.49
685.828	4134.59
685.879	4122.42
685.931	4152.01
685.982	4173.52
686.034	4172.03
686.086	4135.34
686.137	4195.43
686.189	4193.69
686.24	4167.54
686.292	4144.2
686.343	4186.58
686.395	4211.44
686.446	4181.19
686.498	4184.23
686.549	4204.4
686.601	4217
686.652	4146.06
686.704	4103.2
686.756	4198.54
686.807	4148.69
686.859	4183.77
686.91	4152.03
686.962	4126.71
687.013	4192.3
687.065	4144.51
687.116	4154.75
687.168	4116.13
687.219	4179.18
687.271	4100.36
687.322	4118.17
687.374	4169.66
687.426	4131.07
687.477	4139.62
687.529	4142.54
687.58	4108.42
687.632	4103.76
687.683	4139.52
687.735	4045.34
687.786	4120.35
687.838	4102.86
687.889	4099.25
687.941	4150.64
687.992	4115.32
688.044	4124.78
688.095	4123.33
688.147	4153.89
688.198	4149.4
688.25	4118.88
688.302	4138.73
688.353	4128.82
688.405	4142.17
688.456	4163.08
688.508	4147.12
688.559	4125.29
688.611	4168.93
688.662	4110.87
688.714	4113.15
688.765	4158.84
688.817	4170.6
688.868	4087.61
688.92	4085.64
688.971	4095.69
689.023	4121.48
689.074	4139.04
689.126	4108.04
689.177	4119.49
689.229	4154.42
689.28	4138.46
689.332	4086.08
689.383	4096.21
689.435	4114.26
689.486	4096.38
689.538	4090.3
689.589	4141.95
689.641	4082.53
689.692	4123.33
689.744	4117.27
689.795	4081.55
689.847	4110.47
689.898	4121.05
689.95	4064.57
690.001	4098.04
690.053	4038.76
690.104	4091.05
690.156	4095.75
690.207	4100.9
690.259	4092.4
690.31	4071.97
690.362	4111.19
690.413	4094.15
690.465	4059.1
690.516	4085.8
690.568	4067.98
690.619	4083.73
690.671	4107.87
690.722	4089.22
690.774	4103.86
690.825	4075.79
690.877	4113.47
690.928	4092.92
690.98	4040.84
691.031	4067.69
691.083	4091.4
691.134	4044.94
691.186	4021.65
691.237	4069.55
691.289	4027.13
691.34	4066.68
691.392	4007.24
691.443	4052.88
691.495	4057.14
691.546	4091.16
691.598	4026.28
691.649	4054.5
691.701	4037.41
691.752	4035.63
691.804	4011.67
691.855	4020.35
691.907	4004.83
691.958	4037.55
692.01	4028.48
692.061	4021.41
692.113	4050.55
692.164	3982.16
692.216	4004.91
692.267	4022.97
692.319	4018.85
692.37	3977.29
692.421	3987.9
692.473	4033.54
692.524	3977.51
692.576	4016.11
692.627	3981.07
692.679	3967.91
692.73	3968.46
692.782	3972.11
692.833	3972.05
692.885	4003.58
692.936	3920.66
692.988	3979.71
693.039	3938.31
693.091	3940.25
693.142	4007.03
693.194	3949.75
693.245	3988.97
693.297	3979.16
693.348	3968.68
693.399	3963.92
693.451	3970.78
693.502	3950.8
693.554	3959.4
693.605	3942.09
693.657	3971.14
693.708	3944.11
693.76	3955.11
693.811	3948.58
693.863	3945.41
693.914	3968.25
693.966	3981.62
694.017	3968.88
694.068	3897.73
694.12	3965.66
694.171	3952.55
694.223	3943.96
694.274	3914.65
694.326	3966.92
694.377	3948.97
694.429	3905.42
694.48	3908.78
694.532	3900.89
694.583	3886.4
694.634	3922.47
694.686	3924.46
694.737	3920.33
694.789	3882.36
694.84	3926.72
694.892	3967.3
694.943	3932.84
694.995	3916.92
695.046	3872.07
695.097	3887.14
695.149	3893.3
695.2	3918.95
695.252	3940.89
695.303	3883.53
695.355	3920.27
695.406	3913.77
695.458	3853.15
695.509	3944.24
695.56	3839.85
695.612	3902.77
695.663	3856.98
695.715	3881.51
695.766	3897.58
695.818	3863.96
695.869	3893.05
695.921	3914.65
695.972	3854.52
696.023	3822.96
696.075	3850.45
696.126	3873.42
696.178	3866.61
696.229	3887.3
696.281	3845.92
696.332	3851.77
696.383	3852.91
696.435	3829.71
696.486	3837.56
696.538	3853.04
696.589	3879.12
696.641	3845.86
696.692	3850.5
696.744	3852.77
696.795	3867.56
696.846	3872.4
696.898	3848.12
696.949	3834.31
697.001	3831.36
697.052	3810.81
697.104	3807.38
697.155	3839.66
697.206	3842.83
697.258	3863.86
697.309	3811.21
697.361	3829.32
697.412	3856.36
697.463	3819.24
697.515	3779.68
697.566	3810.48
697.618	3855.88
697.669	3803.07
697.721	3802.73
697.772	3768.71
697.823	3748.72
697.875	3785.47
697.926	3816.43
697.978	3779.32
698.029	3773.9
698.08	3787.62
698.132	3790.88
698.183	3748.79
698.235	3730.95
698.286	3771.59
698.338	3747.43
698.389	3756.79
698.44	3737.09
698.492	3738.22
698.543	3740.7
698.595	3741.59
698.646	3739.64
698.697	3744.74
698.749	3766.92
698.8	3705.63
698.852	3758.25
698.903	3693.17
698.954	3720.73
699.006	3711.11
699.057	3721.73
699.109	3704.44
699.16	3696.72
699.211	3705.84
699.263	3720.62
699.314	3721.17
699.366	3696.01
699.417	3701.27
699.468	3698.8
699.52	3684.82
699.571	3712.71
699.623	3708.46
699.674	3715.98
699.725	3687.26
699.777	3695.39
699.828	3689.18
699.88	3702.52
699.931	3683.73
699.982	3641.85
700.034	3675.34
700.085	3700.91
700.137	3646.88
700.188	3665.5
700.239	3717.54
700.291	3692.61
700.342	3641.42
700.393	3666.31
700.445	3661.96
700.496	3679.22
700.548	3672.17
700.599	3692.05
700.65	3712.08
700.702	3724.87
700.753	3711.98
700.805	3668.06
700.856	3654.9
700.907	3658.22
700.959	3622.68
701.01	3629.55
701.061	3706.9
701.113	3702.07
701.164	3659.88
701.216	3647.71
701.267	3675.42
701.318	3621.57
701.37	3634.56
701.421	3668.82
701.472	3648.1
701.524	3671.38
701.575	3679
701.627	3681.25
701.678	3684.25
701.729	3702.97
701.781	3694.98
701.832	3688.87
701.883	3684.51
701.935	3674.95
701.986	3670.67
702.038	3663.8
702.089	3651.35
702.14	3665.27
702.192	3671.57
702.243	3654.79
702.294	3643.86
702.346	3669.62
702.397	3700.79
702.448	3685.1
702.5	3689.27
702.551	3662.16
702.603	3667.61
702.654	3682.56
702.705	3685.42
702.757	3706.8
702.808	3665.42
702.859	3646.54
702.911	3661.93
702.962	3679.3
703.013	3691.05
703.065	3693.68
703.116	3690.4
703.167	3658.34
703.219	3654.74
703.27	3689.46
703.322	3721.98
703.373	3720.3
703.424	3682.8
703.476	3646.38
703.527	3633.71
703.578	3614.43
703.63	3640.98
703.681	3650.92
703.732	3651.35
703.784	3676.96
703.835	3643.04
703.886	3666.47
703.938	3675.71
703.989	3643.99
704.04	3638
704.092	3634.56
704.143	3619.34
704.194	3611.65
704.246	3617.74
704.297	3623.19
704.348	3597.09
704.4	3595.61
704.451	3643.37
704.503	3670.25
704.554	3648.32
704.605	3625.67
704.656	3620.35
704.708	3638.32
704.759	3665.53
704.81	3607.18
704.862	3596.2
704.913	3603.04
704.964	3623.86
705.016	3606.88
705.067	3570.72
705.119	3589.43
705.17	3589.76
705.221	3609.74
705.273	3570.46
705.324	3546.16
705.375	3572.28
705.408	3576
705.459	3556
705.511	3562.07
705.562	3500.31
705.614	3590.35
705.665	3558.64
705.717	3481.2
705.768	3529.17
705.82	3565.43
705.871	3514.21
705.923	3505.87
705.974	3531.55
706.026	3536.16
706.077	3510.46
706.129	3594.98
706.18	3540.75
706.232	3525.58
706.283	3534.26
706.335	3551.95
706.386	3462.51
706.438	3527.36
706.489	3542.95
706.541	3500.19
706.592	3590.61
706.643	3526.44
706.695	3508.1
706.746	3507.82
706.798	3490.24
706.849	3486.02
706.901	3489.51
706.952	3474.15
707.004	3500.52
707.055	3473.76
707.107	3443.37
707.158	3439.23
707.21	3485.23
707.261	3460.47
707.313	3479.45
707.364	3492.51
707.416	3436.86
707.467	3456.19
707.518	3422.56
707.57	3486
707.621	3436.61
707.673	3478.36
707.724	3473.19
707.776	3437.8
707.827	3468.95
707.879	3500.23
707.93	3428.79
707.982	3440.75
708.033	3459.35
708.084	3359.45
708.136	3400.43
708.187	3450.84
708.239	3450.17
708.29	3425.31
708.342	3428.76
708.393	3403.88
708.445	3407.03
708.496	3428.63
708.548	3428.47
708.599	3454.56
708.651	3406.12
708.702	3492.8
708.753	3358.46
708.805	3387.69
708.856	3392.84
708.908	3366.72
708.959	3454.79
709.011	3380.62
709.062	3348.89
709.114	3386.11
709.165	3408.69
709.216	3413.88
709.268	3424.39
709.319	3406.02
709.371	3404.74
709.422	3377.26
709.474	3368.07
709.525	3353.41
709.577	3393.74
709.628	3391.56
709.679	3445.11
709.731	3397.96
709.782	3382.1
709.834	3367.15
709.885	3361.28
709.937	3385.08
709.988	3368.98
710.039	3382.4
710.091	3352.11
710.142	3374.13
710.194	3380.19
710.245	3372.07
710.297	3391.39
710.348	3387.85
710.4	3363.29
710.451	3346.52
710.502	3368.22
710.554	3380.66
710.605	3362.59
710.657	3342.7
710.708	3375.6
710.76	3318.97
710.811	3329.65
710.862	3348.86
710.914	3356.35
710.965	3362.51
711.017	3333.14
711.068	3333.29
711.12	3306.63
711.171	3353.87
711.222	3339.59
711.274	3277.23
711.325	3308.29
711.377	3326.03
711.428	3330.32
711.479	3302.39
711.531	3267.44
711.582	3269.88
711.634	3295.23
711.685	3333.98
711.737	3293.35
711.788	3278.41
711.839	3295.2
711.891	3306.81
711.942	3279.84
711.994	3286.5
712.045	3268.5
712.096	3262.19
712.148	3243.28
712.199	3241.75
712.251	3270.16
712.302	3244.79
712.354	3291.16
712.405	3250.3
712.456	3266.31
712.508	3245.65
712.559	3262.44
712.611	3245.29
712.662	3209.78
712.713	3213.94
712.765	3217.25
712.816	3256.9
712.868	3243.88
712.919	3218.63
712.97	3205.39
713.022	3200.91
713.073	3249.41
713.125	3186.18
713.176	3184.46
713.227	3160.96
713.279	3204.46
713.33	3212.69
713.382	3199.2
713.433	3191.55
713.484	3185.83
713.536	3197.49
713.587	3174.65
713.639	3180.26
713.69	3134.21
713.741	3113.5
713.793	3126.02
713.844	3133.73
713.896	3121.62
713.947	3175.81
713.998	3166.03
714.05	3071.9
714.101	3128.3
714.153	3130.71
714.204	3159.05
714.255	3164.11
714.307	3166.17
714.358	3166.41
714.41	3086.32
714.461	3107.71
714.512	3095.8
714.564	3090.03
714.615	3048.37
714.666	3085.85
714.718	3083
714.769	3075.94
714.821	3096.61
714.872	3081.63
714.923	3098.66
714.975	3068.57
715.026	3070.02
715.078	3070.28
715.129	3108.1
715.18	3086.5
715.232	3066.5
715.283	3043.41
715.334	3107.37
715.386	3076.83
715.437	3057.24
715.489	3046.82
715.54	3058.28
715.591	3047.82
715.643	3101.88
715.694	3031.24
715.745	3035.47
715.797	3034.8
715.848	3042.99
715.9	3057.72
715.951	3067.71
716.002	3023.71
716.054	3022.38
716.105	3013.28
716.156	2998.4
716.208	3037.22
716.259	3044.1
716.31	2982.91
716.362	3032.22
716.413	3004.72
716.465	2961.94
716.516	3027.59
716.567	3010.81
716.619	2976.33
716.67	3011.64
716.721	3050.27
716.773	3017.09
716.824	2999.39
716.875	2994.28
716.927	3022.27
716.978	2976.28
717.03	2976.37
717.081	3008.02
717.132	3005.57
717.184	3028.15
717.235	3018.42
717.286	2971.78
717.338	2992.97
717.389	3022.52
717.44	3021
717.492	2950.87
717.543	2987.14
717.594	2964.94
717.646	3000.76
717.697	2942.77
717.749	2966.66
717.8	2981.56
717.851	2993.64
717.903	2987.76
717.954	2992.66
718.005	2959.01
718.057	2960.52
718.108	2982.7
718.159	2967.48
718.211	2959.02
718.262	2938.31
718.313	2957.34
718.365	2923.4
718.416	2910.2
718.467	2953.15
718.519	2923.01
718.57	2934.07
718.621	2937.47
718.673	2933.62
718.724	2935.86
718.775	2931.1
718.827	2918.85
718.878	2885.01
718.93	2880.51
718.981	2886.46
719.032	2941.65
719.083	2894.46
719.135	2890.02
719.186	2894.97
719.237	2932.45
719.289	2928.13
719.34	2917.7
719.391	2882.39
719.443	2850.51
719.494	2876.76
719.545	2924.78
719.597	2893.47
719.648	2901.51
719.699	2884.22
719.751	2894.19
719.802	2884.32
719.853	2878.56
719.905	2887.46
719.956	2855.41
720.007	2833.16
720.059	2868.59
720.11	2868.42
720.161	2860.22
720.213	2825.74
720.264	2813.41
720.315	2808.86
720.367	2839.57
720.418	2851.5
720.469	2832.9
720.521	2857.01
720.572	2860.92
720.623	2851.21
720.675	2832.99
720.726	2785.8
720.777	2787.92
720.829	2814.92
720.88	2797.79
720.931	2799.26
720.982	2782.8
721.034	2803.35
721.085	2771.43
721.136	2783.29
721.188	2783.17
721.239	2789.22
721.29	2800.84
721.342	2798.78
721.393	2778.87
721.444	2764.29
721.496	2772.44
721.547	2745.63
721.598	2783.25
721.65	2767.25
721.701	2756.68
721.752	2779.1
721.803	2758.05
721.855	2711.03
721.906	2738.16
721.957	2746.64
722.009	2740.97
722.06	2749.98
722.111	2738.77
722.163	2716.67
722.214	2730.09
722.265	2738.67
722.316	2738.28
722.368	2733.49
722.419	2719.48
722.47	2728.22
722.522	2707.27
722.573	2713.95
722.624	2682.83
722.676	2696.06
722.727	2716.25
722.778	2706.23
722.829	2683.87
722.881	2682.77
722.932	2672.34
722.983	2669.97
723.035	2678.01
723.086	2664.55
723.137	2657.84
723.188	2698.75
723.24	2683.26
723.291	2680.36
723.342	2678.08
723.394	2662.7
723.445	2683.77
723.496	2625.02
723.547	2643.29
723.599	2641.88
723.65	2682.99
723.701	2668.48
723.753	2643.84
723.804	2631.89
723.855	2612.41
723.906	2624.2
723.958	2648.42
724.009	2658.29
724.06	2631.2
724.112	2652.81
724.163	2634.98
724.214	2624.48
724.265	2636.51
724.317	2625.64
724.368	2643.67
724.419	2652.34
724.47	2648.12
724.522	2636.74
724.573	2636.13
724.624	2625.8
724.676	2634.24
724.727	2598.45
724.778	2619.71
724.829	2618.86
724.881	2598.44
724.932	2594.89
724.983	2612.17
725.034	2627.53
725.086	2626.17
725.137	2634.27
725.188	2617.36
725.24	2589.17
725.291	2586.99
725.342	2597.72
725.393	2613.44
725.445	2589.96
725.496	2579.31
725.547	2566.89
725.598	2563.49
725.65	2586.78
725.701	2585.36
725.752	2610.78
725.803	2613.01
725.855	2562.4
725.906	2586.69
725.957	2596.27
726.008	2580.52
726.06	2589.18
726.111	2570.86
726.162	2561.3
726.213	2536.94
726.265	2561.59
726.316	2557.65
726.367	2515.06
726.418	2572.31
726.47	2553.68
726.521	2551.46
726.572	2561.7
726.623	2542.64
726.675	2545.25
726.726	2545.85
726.777	2538.92
726.828	2522.83
726.88	2524.05
726.931	2487.25
726.982	2495.25
727.033	2505.21
727.085	2511.62
727.136	2536.24
727.187	2503.95
727.238	2513.3
727.29	2515.79
727.341	2491.15
727.392	2511.03
727.443	2522.88
727.495	2478.27
727.546	2474.71
727.597	2485.78
727.648	2477.6
727.7	2485.51
727.751	2485.88
727.802	2495.11
727.853	2457.89
727.904	2495.14
727.956	2472.13
728.007	2475.21
728.058	2511.19
728.109	2469.56
728.161	2450.86
728.212	2450.76
728.263	2431.25
728.314	2461.12
728.366	2463.01
728.417	2439.56
728.468	2430.4
728.519	2446.27
728.57	2440.06
728.622	2419.19
728.673	2468.24
728.724	2450.31
728.775	2430.3
728.827	2418.61
728.878	2410.06
728.929	2413.69
728.98	2387.03
729.031	2381.86
729.083	2405.38
729.134	2409.42
729.185	2373.17
729.236	2398.48
729.288	2368.48
729.339	2404.4
729.39	2382.44
729.441	2381.91
729.492	2380.87
729.544	2387.63
729.595	2392.35
729.646	2390.47
729.697	2367.15
729.748	2388.07
729.8	2408.12
729.851	2366.37
729.902	2353.83
729.953	2318.55
730.004	2343.94
730.056	2330.98
730.107	2354.67
730.158	2350.95
730.209	2313.79
730.26	2363.79
730.312	2354.86
730.363	2327.3
730.414	2300.28
730.465	2298.76
730.517	2319.38
730.568	2289.59
730.619	2341.58
730.67	2253.69
730.721	2305.68
730.773	2317.14
730.824	2343.77
730.875	2266.45
730.926	2230.34
730.977	2287.41
731.029	2285.38
731.08	2266.84
731.131	2236.51
731.182	2256.38
731.233	2271.17
731.284	2242.28
731.336	2288.02
731.387	2268.77
731.438	2276.49
731.489	2311.97
731.54	2288.48
731.592	2307.99
731.643	2262.28
731.643	2262
731.694	2224
731.746	2242
731.797	2252.08
731.848	2248.21
731.9	2248.38
731.951	2210.59
732.002	2197.02
732.054	2264.52
732.105	2243.25
732.156	2259.01
732.208	2238.9
732.259	2209.49
732.311	2194.18
732.362	2216.82
732.413	2239.63
732.465	2218.5
732.516	2215.03
732.567	2267.62
732.619	2227.97
732.67	2210.94
732.721	2214.41
732.773	2229.08
732.824	2228.2
732.875	2213.8
732.927	2252.57
732.978	2188.81
733.029	2200.51
733.081	2190.08
733.132	2178.41
733.183	2194.51
733.235	2211.94
733.286	2184.94
733.337	2257.28
733.389	2252.94
733.44	2219.14
733.491	2245.53
733.543	2183.2
733.594	2222.97
733.645	2173.49
733.697	2223.61
733.748	2204.59
733.799	2174.55
733.851	2227.25
733.902	2218.03
733.953	2254.54
734.005	2228.45
734.056	2201.97
734.107	2184.46
734.158	2218.54
734.21	2241.19
734.261	2192.84
734.312	2224.88
734.364	2202.67
734.415	2189.17
734.466	2177.57
734.518	2222.44
734.569	2228.03
734.62	2206.15
734.672	2210.31
734.723	2191.5
734.774	2208.84
734.826	2203.34
734.877	2187.75
734.928	2201.39
734.98	2194.4
735.031	2258.25
735.082	2181.27
735.133	2232.99
735.185	2221.14
735.236	2181.6
735.287	2191.57
735.339	2190.53
735.39	2177.36
735.441	2236.8
735.493	2238.9
735.544	2190.73
735.595	2200.43
735.647	2185.59
735.698	2207.77
735.749	2203.33
735.8	2252.09
735.852	2217.96
735.903	2232.07
735.954	2207.9
736.006	2213.57
736.057	2242.22
736.108	2199.4
736.16	2209.7
736.211	2209.89
736.262	2209.09
736.313	2266.9
736.365	2240.05
736.416	2222.66
736.467	2248.26
736.519	2249.43
736.57	2208.26
736.621	2245.6
736.673	2214.09
736.724	2267.15
736.775	2261.52
736.826	2299.69
736.878	2272.4
736.929	2243.24
736.98	2247.93
737.032	2281.45
737.083	2279.5
737.134	2263.71
737.185	2278.74
737.237	2252.92
737.288	2292.04
737.339	2256.13
737.391	2279.19
737.442	2291.03
737.493	2281.37
737.544	2233.06
737.596	2301.98
737.647	2271.55
737.698	2308.86
737.75	2298.21
737.801	2284.61
737.852	2269.36
737.903	2351.88
737.955	2308
738.006	2271.79
738.057	2320.83
738.109	2355.24
738.16	2260.33
738.211	2304.09
738.262	2289.66
738.314	2307.36
738.365	2262.32
738.416	2285.19
738.468	2284.83
738.519	2313.22
738.57	2295.58
738.621	2286.46
738.673	2275.62
738.724	2281
738.775	2308.71
738.826	2249.94
738.878	2323.8
738.929	2300.76
738.98	2221.83
739.031	2285.16
739.083	2270.64
739.134	2270.03
739.185	2229.69
739.237	2246.44
739.288	2244.46
739.339	2235.98
739.39	2223.64
739.442	2196.65
739.493	2180.15
739.544	2211.26
739.595	2199.49
739.647	2178.2
739.698	2162.62
739.749	2181.73
739.8	2152.27
739.852	2169.97
739.903	2204.98
739.954	2183.85
740.005	2149.16
740.057	2191.23
740.108	2134.52
740.159	2144.28
740.211	2137.08
740.262	2164.64
740.313	2163.41
740.364	2117.66
740.416	2143.27
740.467	2108.01
740.518	2125.7
740.569	2116.39
740.621	2100.2
740.672	2123.85
740.723	2140.43
740.774	2103.17
740.826	2088.71
740.877	2059.35
740.928	2084.14
740.979	2099
741.031	2093.42
741.082	2089.17
741.133	2079.34
741.184	2068.63
741.235	2079.21
741.287	2079.99
741.338	2068.53
741.389	2055.68
741.44	2062.74
741.492	2058.57
741.543	2009.18
741.594	2018.49
741.645	2046.74
741.697	2062.54
741.748	2046.88
741.799	2059.05
741.85	2038.24
741.902	2053.94
741.953	2051.85
742.004	2056.74
742.055	2025.25
742.107	2006.42
742.158	2037.51
742.209	1968.57
742.26	2021.78
742.311	1983.32
742.363	2032.62
742.414	1981.79
742.465	2005.26
742.516	2015.95
742.568	1990.42
742.619	1962.18
742.67	1984.1
742.721	1996.28
742.773	1971.52
742.824	1981.67
742.875	1980.48
742.926	1972.76
742.977	1997.82
743.029	1953.43
743.08	1979.75
743.131	1970.93
743.182	1958.62
743.234	1960.7
743.285	1963.5
743.336	1912.17
743.387	1947.33
743.438	1918.98
743.49	1933.72
743.541	1948.34
743.592	1954.8
743.643	1937.41
743.694	1943.92
743.746	1940.62
743.797	1936.58
743.848	1942.29
743.899	1908.57
743.951	1931.15
744.002	1921.18
744.053	1919.15
744.104	1924.15
744.155	1909.15
744.207	1905.34
744.258	1900.7
744.309	1903.06
744.36	1916.44
744.411	1888.87
744.463	1905.99
744.514	1906.78
744.565	1891.75
744.616	1898.72
744.667	1902.85
744.719	1881.95
744.77	1884.12
744.821	1858.53
744.872	1886.33
744.923	1881.68
744.975	1905.41
745.026	1863.44
745.077	1872.16
745.128	1886.02
745.179	1871.92
745.231	1830.12
745.282	1849.89
745.333	1865.88
745.384	1886.89
745.435	1877.01
745.487	1875.26
745.538	1848.33
745.589	1864.63
745.64	1848.78
745.691	1833.16
745.743	1841.95
745.794	1861.39
745.845	1845.38
745.896	1828.94
745.947	1849.47
745.998	1861.66
746.05	1858.25
746.101	1868.11
746.152	1854.7
746.203	1834.89
746.254	1846.72
746.306	1820.33
746.357	1822.17
746.408	1828.97
746.459	1821.94
746.51	1796.73
746.562	1804.19
746.613	1827.93
746.664	1844.17
746.715	1819.64
746.766	1834.07
746.817	1839.63
746.869	1822.47
746.92	1825.81
746.971	1817.19
747.022	1800.21
747.073	1811.12
747.125	1815.15
747.176	1815.39
747.227	1812.47
747.278	1804.61
747.329	1791.34
747.38	1802.64
747.432	1787.82
747.483	1795.82
747.534	1802.01
747.585	1805.19
747.636	1810.6
747.687	1796.86
747.739	1773.79
747.79	1771.59
747.841	1775.13
747.892	1789.69
747.943	1756
747.994	1778.82
748.046	1781.09
748.097	1763.72
748.148	1788.7
748.199	1785.38
748.25	1792.11
748.301	1761.26
748.352	1768.09
748.404	1763.27
748.455	1758.87
748.506	1755.28
748.557	1757.63
748.608	1748.05
748.659	1746.6
748.711	1796.18
748.762	1758.45
748.813	1769.73
748.864	1762.77
748.915	1764.01
748.966	1768.29
749.018	1771.63
749.069	1746.72
749.12	1725.9
749.171	1724.76
749.222	1750.02
749.273	1740.57
749.324	1738.31
749.376	1744.54
749.427	1737.63
749.478	1737.25
749.529	1737.72
749.58	1725.74
749.631	1730.76
749.682	1747.84
749.734	1727.05
749.785	1736.19
749.836	1747.49
749.887	1731.64
749.938	1721.85
749.989	1735.7
750.04	1731.84
750.092	1720.55
750.143	1712.46
750.194	1709.26
750.245	1725.94
750.296	1709.39
750.347	1727.38
750.398	1721.78
750.45	1709.4
750.501	1697.06
750.552	1698.7
750.603	1671.37
750.654	1684.56
750.705	1684.85
750.756	1682.49
750.807	1687.82
750.859	1681.1
750.91	1695.24
750.961	1678.97
751.012	1652.18
751.063	1698.9
751.114	1691.7
751.165	1659.56
751.216	1680.78
751.268	1664.62
751.319	1680.87
751.37	1687.44
751.421	1658.59
751.472	1639.53
751.523	1678.06
751.574	1685.65
751.625	1684.12
751.677	1662.42
751.728	1663.7
751.779	1656.31
751.83	1664.59
751.881	1656.19
751.932	1655.09
751.983	1675.6
752.034	1637.81
752.086	1654.65
752.137	1641.97
752.188	1653.36
752.239	1673.03
752.29	1683.13
752.341	1638.88
752.392	1605.26
752.443	1619.46
752.494	1655.97
752.546	1642.4
752.597	1625.22
752.648	1650.27
752.699	1624.11
752.75	1647.59
752.801	1617.37
752.852	1602.86
752.903	1624.38
752.954	1614.69
753.005	1623.37
753.057	1608.02
753.108	1596.45
753.159	1621.14
753.21	1609.97
753.261	1613.27
753.312	1595.42
753.363	1582.93
753.414	1640.21
753.465	1636.8
753.516	1580.54
753.568	1614.67
753.619	1580.27
753.67	1614.88
753.721	1619.52
753.772	1566.51
753.823	1573.81
753.874	1587.22
753.925	1602.7
753.976	1554.49
754.027	1580.6
754.079	1573.77
754.13	1613.91
754.181	1560.88
754.232	1596.8
754.283	1596.13
754.334	1557.85
754.385	1550.75
754.436	1528.27
754.487	1565.29
754.538	1545.74
754.589	1535.33
754.641	1562.33
754.692	1527.2
754.743	1569.7
754.794	1545.52
754.845	1544.4
754.896	1551.42
754.947	1546.68
754.998	1556.31
755.049	1501.62
755.1	1526.71
755.151	1558.61
755.202	1549.14
755.253	1531.05
755.305	1559.82
755.356	1560.43
755.407	1525.19
755.458	1550.71
755.509	1559.88
755.56	1536.3
755.611	1518
755.662	1510.27
755.713	1527.85
755.764	1528.89
755.815	1476.02
755.866	1534.7
755.917	1523.48
755.968	1530.17
756.02	1491.55
756.071	1525.48
756.122	1531.29
756.173	1515.36
756.224	1506.38
756.275	1545.51
756.326	1516.32
756.377	1516.12
756.428	1511.71
756.479	1523.75
756.53	1494.62
756.581	1520.98
756.632	1492.77
756.683	1486.54
756.734	1490.57
756.785	1506.22
756.837	1484.85
756.888	1519.9
756.939	1508.26
756.99	1450.5
757.041	1479.04
757.092	1509.22
757.143	1479.47
757.194	1472.52
757.245	1456.31
757.296	1460.4
757.347	1479.05
757.398	1445.79
757.449	1457.25
757.5	1448.25
757.551	1474.9
757.602	1462.99
757.653	1453.27
757.704	1477.18
757.755	1444.97
757.807	1458.09
757.858	1475.43
757.909	1464.7
757.917	1462
757.968	1422.03
758.02	1414.11
758.071	1436.23
758.122	1456.05
758.173	1463.69
758.224	1408.31
758.276	1408.72
758.327	1400.91
758.378	1426.8
758.429	1398.97
758.48	1406.45
758.532	1410.56
758.583	1461.84
758.634	1415.45
758.685	1424.78
758.736	1445.66
758.788	1425.99
758.839	1428.83
758.89	1416.5
758.941	1392.87
758.992	1383.12
759.044	1414.83
759.095	1420.27
759.146	1463.49
759.197	1394.8
759.248	1397.61
759.3	1388.42
759.351	1394.45
759.402	1437.6
759.453	1378.31
759.504	1423.64
759.556	1424.59
759.607	1399.59
759.658	1401.12
759.709	1391.25
759.76	1386.01
759.811	1401.65
759.863	1396.79
759.914	1384.07
759.965	1407.01
760.016	1416.15
760.067	1381.39
760.119	1382.35
760.17	1385.74
760.221	1393.9
760.272	1381.11
760.323	1376.03
760.375	1394.33
760.426	1360.45
760.477	1337.82
760.528	1337.4
760.579	1345.31
760.63	1337.87
760.682	1336.02
760.733	1351.1
760.784	1366.74
760.835	1335.58
760.886	1335.4
760.937	1333.09
760.989	1351.29
761.04	1343.14
761.091	1357.72
761.142	1349.52
761.193	1345.99
761.245	1328.4
761.296	1331.02
761.347	1355.33
761.398	1355.25
761.449	1353.72
761.5	1331.58
761.552	1346.99
761.603	1325.08
761.654	1342.21
761.705	1306.93
761.756	1352.05
761.807	1320.74
761.859	1352.07
761.91	1291.86
761.961	1332.89
762.012	1329.85
762.063	1325.73
762.114	1324.57
762.165	1326.15
762.217	1316.05
762.268	1287.72
762.319	1305.82
762.37	1324.01
762.421	1299.19
762.472	1339.2
762.524	1313.24
762.575	1303.08
762.626	1341.64
762.677	1318.48
762.728	1305.98
762.779	1297.11
762.831	1282.45
762.882	1313.03
762.933	1270.41
762.984	1276.19
763.035	1331.5
763.086	1292.67
763.137	1254.99
763.189	1276.09
763.24	1308.95
763.291	1301.68
763.342	1329.5
763.393	1286.28
763.444	1290.71
763.495	1261.91
763.547	1272.64
763.598	1272.32
763.649	1258.28
763.7	1274.59
763.751	1251.48
763.802	1262.93
763.853	1273.22
763.905	1239.9
763.956	1271.61
764.007	1277.54
764.058	1271.13
764.109	1273.81
764.16	1242.23
764.211	1288.69
764.263	1250.19
764.314	1252.98
764.365	1279.62
764.416	1252.16
764.467	1259.86
764.518	1233.66
764.569	1252.83
764.621	1260.34
764.672	1244.3
764.723	1247.65
764.774	1203.72
764.825	1241.38
764.876	1253.87
764.927	1260.32
764.978	1267.36
765.03	1237.31
765.081	1228.43
765.132	1222.67
765.183	1251.92
765.234	1240.78
765.285	1214.03
765.336	1237.98
765.387	1239.88
765.439	1246.46
765.49	1223.69
765.541	1234.86
765.592	1219.49
765.643	1222.85
765.694	1214.15
765.745	1208.15
765.796	1224.54
765.848	1211.83
765.899	1213.91
765.95	1200.54
766.001	1212.62
766.052	1210.95
766.103	1214.7
766.154	1209.29
766.205	1200.46
766.256	1215.73
766.308	1210.53
766.359	1219.72
766.41	1165.43
766.461	1208.66
766.512	1179.96
766.563	1210.46
766.614	1162.94
766.665	1186.8
766.716	1215.43
766.768	1182.84
766.819	1185.84
766.87	1192.92
766.921	1188.89
766.972	1188.55
767.023	1157.46
767.074	1162.52
767.125	1160.2
767.176	1207.67
767.227	1166.06
767.279	1180.59
767.33	1149.34
767.381	1170.9
767.432	1188.59
767.483	1154.18
767.534	1161.02
767.585	1164.69
767.636	1159.7
767.687	1159.88
767.739	1166.21
767.79	1163.08
767.841	1207.27
767.892	1146.62
767.943	1145.09
767.994	1154.56
768.045	1152.87
768.096	1152.09
768.147	1147.81
768.198	1154.14
768.249	1155.76
768.301	1148.81
768.352	1142.28
768.403	1152
768.454	1139.23
768.505	1120.64
768.556	1153.78
768.607	1120.57
768.658	1141.22
768.709	1110.6
768.76	1112.96
768.811	1145.13
768.862	1126.97
768.914	1149.2
768.965	1124.16
769.016	1159.24
769.067	1142.6
769.118	1117.86
769.169	1124.79
769.22	1110.9
769.271	1116.51
769.322	1112.09
769.373	1097.13
769.424	1116.51
769.475	1095.64
769.526	1099.54
769.578	1109.55
769.629	1119.78
769.68	1116.52
769.731	1108.95
769.782	1101.9
769.833	1107.13
769.884	1085.84
769.935	1098.18
769.986	1073.17
770.037	1084.15
770.088	1092.62
770.139	1080.91
770.19	1108.33
770.242	1101.93
770.293	1094.17
770.344	1088.57
770.395	1098.35
770.446	1083.42
770.497	1066.92
770.548	1054.35
770.599	1080.61
770.65	1081.42
770.701	1085.95
770.752	1074.14
770.803	1099.72
770.854	1058.77
770.905	1062.02
770.956	1070.59
771.007	1053.86
771.058	1057.32
771.11	1050.37
771.161	1064.41
771.212	1053.64
771.263	1057.85
771.314	1056.51
771.365	1055.78
771.416	1051.3
771.467	1048.97
771.518	1067.37
771.569	1037.68
771.62	1048.02
771.671	1039.82
771.722	1040.81
771.773	1028.84
771.824	1057.35
771.875	1032.1
771.926	1045.28
771.977	1040.42
772.028	1043.17
772.079	1027.22
772.131	1052.18
772.182	1046.17
772.233	1030.32
772.284	1031.27
772.335	1002.71
772.386	1020.47
772.437	1005.31
772.488	1016.81
772.539	1030.2
772.59	1008.56
772.641	1024.89
772.692	1027.49
772.743	1009.03
772.794	1013.74
772.845	1026.4
772.896	1004.43
772.947	1019.64
772.998	1002.91
773.049	998.578
773.1	992.559
773.151	998.61
773.202	979.572
773.253	995.574
773.304	1006.59
773.355	983.597
773.406	985.857
773.457	994.982
773.508	970.739
773.56	998.561
773.611	973.531
773.662	978.942
773.713	1009.54
773.764	985.247
773.815	982.442
773.866	961.475
773.917	971.744
773.968	978.674
774.019	971.693
774.07	974.746
774.121	976.356
774.172	980.336
774.223	978.144
774.274	978.092
774.325	971.658
774.376	962.748
774.427	952.711
774.478	948.044
774.529	957.879
774.58	963.714
774.631	941.212
774.682	943.555
774.733	950.206
774.784	957.069
774.835	947.695
774.886	969.086
774.937	964.805
774.988	928.13
775.039	948.399
775.09	936.878
775.141	940.428
775.192	958.072
775.243	925.296
775.294	937.475
775.345	950.233
775.396	931.744
775.447	947.087
775.498	936.042
775.549	942.387
775.6	948.668
775.651	938.768
775.702	932.011
775.753	930.871
775.804	943.747
775.855	937.93
775.906	941.531
775.957	925.478
776.008	909.937
776.059	903.562
776.11	916.129
776.161	912.951
776.212	920.486
776.263	925.722
776.314	939.748
776.365	916.782
776.416	908.835
776.467	915.905
776.518	924.073
776.569	921.844
776.62	896.782
776.671	920.439
776.722	909.899
776.773	897.7
776.824	905.263
776.875	909.647
776.926	913.531
776.977	880.544
777.028	887.627
777.079	886.017
777.13	875.902
777.181	891.874
777.232	889.931
777.283	890.633
777.334	897.241
777.385	891.137
777.436	886.828
777.487	875.095
777.538	880.928
777.589	894.12
777.64	878.129
777.691	884.08
777.742	893.512
777.793	888.181
777.844	862.144
777.895	872.351
777.946	876.407
777.997	878.714
778.047	878.926
778.098	887.184
778.149	886.814
778.2	880.744
778.251	856.242
778.302	853.828
778.353	860.585
778.404	866.646
778.455	877.959
778.506	867.784
778.557	853.483
778.608	863.238
778.659	856.492
778.71	855.975
778.761	863.744
778.812	845.815
778.863	847.196
778.914	843.646
778.965	834.769
779.016	842.559
779.067	861.25
779.118	857.871
779.169	846.56
779.22	844.997
779.271	836.496
779.322	842.791
779.373	857.109
779.424	848.483
779.474	848.723
779.525	847.637
779.576	843.894
779.627	832.731
779.678	834.076
779.729	841.779
779.78	841.608
779.831	832.245
779.882	848.786
779.933	849.113
779.984	825.431
780.035	824.658
780.086	824.541
780.137	824.261
780.188	829.653
780.239	825.428
780.29	815.305
780.341	817.794
780.392	821.041
780.442	811.241
780.493	812.932
780.544	827.8
780.595	813.989
780.646	805.966
780.697	820.916
780.748	816.044
780.799	811.269
780.85	796.907
780.901	805.393
780.952	802.042
781.003	806.53
781.054	813.131
781.105	814.793
781.156	822.195
781.207	807.378
781.257	791.317
781.308	811.303
781.359	812.029
781.41	803.801
781.461	796.55
781.512	784.367
781.563	788.956
781.614	799.337
781.665	796.421
781.716	806.073
781.767	792.006
781.818	781.948
781.869	778.188
781.919	789.711
781.97	793.093
782.021	789.742
782.072	791.383
782.123	788.68
782.174	787.449
782.225	795.472
782.276	778.748
782.327	770.458
782.378	765.939
782.429	773.146
782.48	740.721
782.531	749.032
782.581	767.194
782.632	761.408
782.683	758.608
782.734	769.034
782.785	767.937
782.836	763.356
782.887	776.874
782.938	752.822
782.989	754.795
783.04	748.233
783.091	752.509
783.141	747.835
783.192	764.466
783.243	748.343
783.294	756.063
783.345	752.205
783.396	759.377
783.447	727.765
783.498	754.492
783.549	759.273
783.6	766.168
783.651	737.282
783.701	748.658
783.752	743.185
783.803	737.173
783.854	731.117
783.905	733.195
783.956	747.642
784.007	712.263
784.058	732.702
784.1	736
784.151	731.98
784.202	719.99
784.253	725.941
784.304	714.138
784.355	714.249
784.406	731.981
784.458	731.689
784.509	743.218
784.56	721.839
784.611	727.53
784.662	743.178
784.713	724.396
784.764	741.489
784.815	737.952
784.866	725.949
784.917	715.939
784.968	741.012
785.019	725.079
785.07	693.062
785.121	724.552
785.172	721.716
785.223	686.893
785.274	723.133
785.326	719.77
785.377	695.315
785.428	698.065
785.479	700.038
785.53	693.968
785.581	686.855
785.632	701.691
785.683	677.755
785.734	692.495
785.785	709.517
785.836	679.03
785.887	685.588
785.938	682.931
785.989	720.182
786.04	678.246
786.091	704.881
786.142	669.007
786.193	683.131
786.244	695.038
786.295	701.131
786.346	691.537
786.397	706.734
786.448	713.27
786.5	666.852
786.551	673.145
786.602	695.135
786.653	700.965
786.704	676.442
786.755	663.931
786.806	686.533
786.857	696.751
786.908	673.877
786.959	712.024
787.01	678.208
787.061	677.604
787.112	683.583
787.163	683.091
787.214	678.538
787.265	676.882
787.316	673.794
787.367	654.282
787.418	665.024
787.469	674.717
787.52	675.05
787.571	671.001
787.622	677.851
787.673	679.376
787.724	656.621
787.775	662.777
787.826	672.914
787.877	678.818
787.928	658.588
787.979	675.025
788.03	627.037
788.081	646.933
788.132	625.788
788.183	656.538
788.234	665.006
788.285	661.393
788.336	669.058
788.387	663.622
788.438	647.548
788.49	633.548
788.541	653.244
788.591	652.874
788.643	636.969
788.694	650.023
788.745	645.5
788.796	638.454
788.847	626.047
788.898	656.437
788.949	621.784
789	639.141
789.051	641.459
789.102	626.053
789.153	643.323
789.204	607.777
789.255	624.461
789.306	625.894
789.357	642.326
789.408	626.28
789.459	630.129
789.51	629.601
789.561	633.49
789.612	640.486
789.663	620.317
789.714	626.808
789.765	636.504
789.816	634.845
789.867	622.865
789.918	621.278
789.969	639.212
790.02	614.645
790.071	613.561
790.122	634.428
790.173	647.489
790.224	615.054
790.275	606.311
790.326	627.282
790.377	605.388
790.428	613.08
790.479	618.476
790.53	616.423
790.581	604.633
790.632	622.363
790.682	600.552
790.734	619.92
790.784	609.065
790.836	621.606
790.886	619.473
790.937	602.048
790.988	607.966
791.039	600.488
791.09	611.561
791.141	611.847
791.192	607.606
791.243	598.685
791.294	607.753
791.345	604.003
791.396	617.408
791.447	601.124
791.498	594.303
791.549	601.27
791.6	613.493
791.651	587.464
791.702	575.298
791.753	591.039
791.804	601.638
791.855	613.247
791.906	594.451
791.957	589.349
792.008	574.492
792.059	584.681
792.11	585.418
792.161	579.845
792.212	578.929
792.263	585.196
792.314	600.473
792.365	572.452
792.416	595.18
792.467	573.713
792.518	582.242
792.569	585.58
792.62	585.916
792.671	585.925
792.722	568.802
792.773	574.941
792.823	590.948
792.874	565.32
792.925	584.14
792.976	585.655
793.027	564.416
793.078	572.102
793.129	579.765
793.18	571.932
793.231	556.843
793.282	543.209
793.333	573.387
793.384	582.026
793.435	572.362
793.486	565.772
793.537	568.951
793.588	565.242
793.639	562
793.69	556.241
793.741	565.656
793.792	570.415
793.843	574.169
793.894	567.24
793.945	555.442
793.995	558.434
794.046	544.901
794.097	544.564
794.148	553.173
794.199	536.146
794.25	546.634
794.301	551.425
794.352	555.214
794.403	557.807
794.454	540.485
794.505	539.862
794.556	543.477
794.607	536.419
794.658	543.507
794.709	554.616
794.76	541.156
794.811	545.638
794.862	516.187
794.912	527.153
794.963	534.772
795.014	530.246
795.065	540.066
795.116	538.612
795.167	546.599
795.218	536.321
795.269	544.821
795.32	540.77
795.371	534.157
795.422	532.623
795.473	536.36
795.524	539.68
795.575	528.042
795.625	521.135
795.676	533.192
795.727	521.693
795.778	512.669
795.829	529.018
795.88	523.489
795.931	506.094
795.982	535.188
796.033	523.984
796.084	520.873
796.135	520.829
796.186	523.623
796.237	513.069
796.287	504.487
796.338	515.651
796.389	522.661
796.44	528.322
796.491	518.866
796.542	511.886
796.593	518.409
796.644	510.604
796.695	510.092
796.746	512.748
796.797	516.71
796.848	509.028
796.898	510.85
796.949	521.118
797	508.728
797.051	509.582
797.102	516.416
797.153	508.768
797.204	503.449
797.255	508.339
797.306	510.651
797.357	513.534
797.408	506.251
797.458	520.426
797.509	500.001
797.56	501.42
797.611	508.048
797.662	505.767
797.713	485.941
797.764	493.136
797.815	496.863
797.866	487.377
797.917	503.677
797.968	506.374
798.018	499.518
798.069	489.844
798.12	487.991
798.171	499.404
798.222	478.924
798.273	498.941
798.324	494.733
798.375	485.493
798.426	484.683
798.477	501.319
798.527	484.868
798.578	490.685
798.629	485.212
798.68	481.935
798.731	482.279
798.782	478.182
798.833	465.712
798.884	476.969
798.935	494.544
798.985	492.884
799.036	476.053
799.087	486.735
799.138	477.414
799.189	478.343
799.24	480.268
799.291	470.273
799.342	474.919
799.393	476.079
799.443	471.87
799.494	485.073
799.545	473.022
799.596	471.908
799.647	489.889
799.698	470.873
799.749	480.405
799.8	480.991
799.85	463.142
799.901	471.971
799.952	465.851
800.003	468.198
800.054	467.936
800.105	467.623
800.156	468.257
800.207	473.601
800.257	472.153
800.308	472.971
800.359	474.042
800.41	470.831
800.461	460.074
800.512	464.94
800.563	470.361
800.613	457.064
800.664	461.299
800.715	456.398
800.766	451.908
800.817	467.127
800.868	463.383
800.919	452.131
800.97	452.636
801.02	453.315
801.071	453.54
801.122	447.053
801.173	447.237
801.224	458.727
801.275	453.88
801.326	446.422
801.376	434.282
801.427	437.969
801.478	433.069
801.529	455.591
801.58	440.237
801.631	439.11
801.682	441.955
801.732	442.292
801.783	450.848
801.834	471.594
801.885	451.634
801.936	434.491
801.987	430.166
802.038	433.521
802.088	431.56
802.139	447.341
802.19	445.409
802.241	444.992
802.292	433.835
802.343	430.606
802.393	436.994
802.444	433.219
802.495	436.172
802.546	442.883
802.597	451.544
802.648	427.699
802.698	434.345
802.749	430.287
802.8	418.053
802.851	423.307
802.902	444.93
802.953	432.677
803.004	429.292
803.054	427.394
803.105	425.596
803.156	420.612
803.207	432.384
803.258	421.86
803.309	420.553
803.359	444.609
803.41	417.053
803.461	433.103
803.512	418.326
803.563	421.385
803.614	431.874
803.664	412.525
803.715	429.57
803.766	422.473
803.817	412.994
803.868	423.49
803.919	433.177
803.969	420.944
804.02	417.48
804.071	429.605
804.122	428.433
804.173	406.737
804.223	418.128
804.274	426.027
804.325	414.304
804.376	409.694
804.427	385.825
804.478	409.609
804.528	415.623
804.579	410.707
804.63	407.886
804.681	418.728
804.732	416.482
804.782	402.951
804.833	420.455
804.884	419.615
804.935	411.376
804.986	405.271
805.036	396.195
805.087	394.825
805.138	397.626
805.189	397.908
805.24	403.759
805.291	398.313
805.341	386.282
805.392	393.984
805.443	394.979
805.494	412.431
805.545	406.599
805.595	407.5
805.646	403.938
805.697	405.782
805.748	408.415
805.799	399.064
805.849	408.24
805.9	390.689
805.951	380.845
806.002	390.84
806.053	394.71
806.103	402.618
806.154	400.453
806.205	404.798
806.256	382.153
806.307	397.638
806.357	386.906
806.408	379.759
806.459	399.023
806.51	382.567
806.561	388.054
806.611	400.709
806.662	376.035
806.713	405.013
806.764	382.263
806.815	391.037
806.865	385.498
806.916	395.467
806.967	377.855
807.018	374.697
807.068	368.203
807.119	383.949
807.17	387.195
807.221	386.943
807.272	390.144
807.322	383.221
807.373	379.497
807.424	369.069
807.475	386.078
807.526	375.649
807.576	380.978
807.627	388.097
807.678	391.361
807.729	380.69
807.779	387.625
807.83	371.551
807.881	370.232
807.932	371.054
807.982	370.394
808.033	353.405
808.084	380.714
808.135	364.839
808.186	373.196
808.236	385.666
808.287	359.012
808.338	367.4
808.389	379.662
808.439	380.325
808.49	385.759
808.541	373.508
808.592	375.849
808.643	377.423
808.693	363.382
808.744	381.556
808.795	376.812
808.846	370.834
808.896	377.674
808.947	374.671
808.998	354.247
809.049	346.252
809.099	366.43
809.15	365.477
809.201	371.586
809.252	364.745
809.302	359.166
809.353	355.242
809.404	348.004
809.455	359.613
809.505	371.099
809.556	362.982
809.607	358.411
809.658	349.827
809.708	356.804
809.759	344.949
809.81	350.785
809.861	356.714
809.911	351.036
809.962	351.915
810.013	344.901
810.064	345.241
810.114	358.3
810.133	364
810.183	366
810.234	354.002
810.285	371.939
810.336	363.947
810.387	348.073
810.438	367.998
810.489	361.737
810.54	353.689
810.591	346.013
810.642	338.411
810.693	359.8
810.743	348.261
810.794	361.784
810.845	338.208
810.896	357.128
810.947	338.154
810.998	338.696
811.049	346.054
811.1	357.452
811.151	349.87
811.202	346.076
811.253	355.503
811.303	345.403
811.354	350.752
811.405	359.183
811.456	350.73
811.507	337.403
811.558	338.474
811.609	354.973
811.66	339.363
811.711	343.076
811.762	359.098
811.813	352.346
811.863	332.095
811.914	331.799
811.965	340.207
812.016	330.006
812.067	334.025
812.118	333.739
812.169	326.718
812.22	345.536
812.271	352.89
812.321	328.101
812.372	337.615
812.423	324.284
812.474	327.478
812.525	312.89
812.576	323.078
812.627	334.192
812.678	341.439
812.729	321.4
812.779	328.104
812.83	334
812.881	340.388
812.932	319.754
812.983	321.533
813.034	336.994
813.085	334
813.136	327.328
813.187	331.542
813.237	322.699
813.288	341.075
813.339	323.036
813.39	324.394
813.441	325.49
813.492	330.907
813.543	334.881
813.594	342.303
813.644	316.472
813.695	332.612
813.746	319.084
813.797	312.539
813.848	310.983
813.899	317.085
813.95	325.043
814.001	319.417
814.051	331.341
814.102	319.215
814.153	304.901
814.204	316.398
814.255	316.81
814.306	324.534
814.357	312.29
814.408	328.026
814.458	322.693
814.509	315.454
814.56	319.793
814.611	316.034
814.662	302.285
814.713	325.898
814.764	311.663
814.814	305.841
814.865	299.242
814.916	319.697
814.967	296.122
815.018	307.501
815.069	299.26
815.12	318.441
815.17	306.825
815.221	317.816
815.272	306.081
815.323	312.622
815.374	296.782
815.425	301.604
815.476	296.392
815.526	317.317
815.577	293.818
815.628	305.047
815.679	310.547
815.73	317.345
815.781	287.274
815.832	310.887
815.882	307.431
815.933	297.587
815.984	297.733
816.035	306.317
816.086	299.875
816.137	299.021
816.188	297.462
816.238	294.928
816.289	292.983
816.34	284.619
816.391	296.152
816.442	288
816.493	309.233
816.543	303.279
816.594	293.035
816.645	306.322
816.696	293.575
816.747	279.308
816.798	291.199
816.848	297.45
816.899	291.691
816.95	294.488
817.001	287.491
817.052	301.022
817.103	300.593
817.153	287.361
817.204	289.309
817.255	298.929
817.306	284.244
817.357	294.933
817.408	283.959
817.458	291.328
817.509	303.192
817.56	295.787
817.611	292.144
817.662	274.519
817.713	300.113
817.763	279.91
817.814	292.067
817.865	292.748
817.916	280.681
817.967	279.092
818.018	292.266
818.068	285.372
818.119	286.485
818.17	301.39
818.221	281.777
818.272	282.973
818.323	278.666
818.373	290.859
818.424	286.397
818.475	280.29
818.526	273.26
818.577	281.067
818.627	281.423
818.678	287.52
818.729	276.588
818.78	277.978
818.831	277.925
818.881	270.332
818.932	276.671
818.983	274.62
819.034	282.819
819.085	270.094
819.135	282.732
819.186	269.013
819.237	275.934
819.288	286.65
819.339	274.323
819.39	281.168
819.44	285.216
819.491	268.251
819.542	283.565
819.593	269.407
819.644	267.631
819.694	269.984
819.745	264.526
819.796	269.806
819.847	268.787
819.898	265.007
819.948	274.425
819.999	270.904
820.05	284.705
820.101	277.154
820.152	265.831
820.202	258.417
820.253	271.951
820.304	271.004
820.355	279.055
820.406	275.003
820.456	272.669
820.507	273.849
820.558	277.204
820.609	277.423
820.66	270.5
820.71	258.921
820.761	263.582
820.812	272.506
820.863	260.746
820.914	270.294
820.964	266.967
821.015	264.51
821.066	266.071
821.117	265.423
821.167	261.198
821.218	270.342
821.269	270.235
821.32	258.249
821.371	258.47
821.421	259.176
821.472	251.405
821.523	265.769
821.574	267.144
821.624	254.238
821.675	253.88
821.726	253.749
821.777	262.992
821.828	266.383
821.878	251.389
821.929	253.609
821.98	263.986
822.031	264.426
822.081	261.112
822.132	258.356
822.183	248.922
822.234	251.802
822.285	265.555
822.335	253.35
822.386	246.041
822.437	249.002
822.488	260.031
822.538	263.95
822.589	247.438
822.64	256.457
822.691	259.864
822.741	251.069
822.792	244.188
822.843	239.34
822.894	254.31
822.945	237.104
822.995	242.641
823.046	238.193
823.097	246.047
823.148	245.106
823.198	241.396
823.249	254.002
823.3	250.666
823.351	251.866
823.401	240.224
823.452	256.858
823.503	242.96
823.554	244.852
823.604	240.114
823.655	236.037
823.706	245.878
823.757	245.184
823.807	237.166
823.858	249.56
823.909	240.348
823.96	241.837
824.01	240.71
824.061	240.667
824.112	246.225
824.163	245.128
824.213	237.555
824.264	243.699
824.315	250.857
824.366	243.17
824.416	237.917
824.467	235.086
824.518	239.503
824.569	245.592
824.619	242.612
824.67	237.455
824.721	232.835
824.772	247.723
824.822	239.359
824.873	248.23
824.924	229.4
824.974	229
825.025	240.462
825.076	237.913
825.127	225.1
825.177	237.188
825.228	225.351
825.279	228.456
825.33	245.791
825.38	241.28
825.431	227.993
825.482	215.999
825.533	228.437
825.583	229.344
825.634	228.332
825.685	227.352
825.735	233.689
825.786	235.676
825.837	224.085
825.888	229.944
825.938	232.096
825.989	238.535
826.04	232.518
826.091	225.499
826.141	241.611
826.192	228.826
826.243	234.296
826.293	225.227
826.344	228.468
826.395	228.655
826.446	231.539
826.496	229.497
826.547	234.474
826.598	225.384
826.648	231.09
826.699	224.12
826.75	231.669
826.801	224.407
826.851	233.351
826.902	224.022
826.953	231.55
827.003	228.59
827.054	220.924
827.105	230.022
827.156	226.678
827.206	227.314
827.257	225.122
827.308	223.679
827.358	218.686
827.409	224.935
827.46	221.232
827.511	219.441
827.561	214.468
827.612	215.986
827.663	220.909
827.713	212.663
827.764	213.296
827.815	230.297
827.865	220.743
827.916	220.914
827.967	217.822
828.018	224.923
828.068	222.791
828.119	211.287
828.17	217.63
828.22	214.693
828.271	200.942
828.322	214.546
828.372	212.392
828.423	204.789
828.474	217.109
828.525	221.336
828.575	214.867
828.626	215.044
828.677	214.991
828.727	224.125
828.778	220.443
828.829	213.237
828.879	223.511
828.93	217.14
828.981	210.847
829.031	215.527
829.082	227.186
829.133	219.394
829.183	211.909
829.234	214.268
829.285	212.671
829.336	213.624
829.386	212.613
829.437	215.987
829.488	218.353
829.538	216.716
829.589	217.711
829.64	215.906
829.69	207.451
829.741	215.941
829.792	214.75
829.842	212.854
829.893	208.33
829.944	216.673
829.994	211.734
830.045	203.445
830.096	202.66
830.146	202.917
830.197	209.379
830.248	208.747
830.298	199.923
830.349	203.461
830.4	212.686
830.45	212.568
830.501	220.631
830.552	214.108
830.602	208.245
830.653	202.289
830.704	202.609
830.754	206.225
830.805	196.16
830.856	198.561
830.906	207.136
830.957	201.649
831.008	197.459
831.058	202.733
831.109	209.341
831.16	196.09
831.21	197.086
831.261	205.646
831.312	212.257
831.362	212.986
831.413	201.886
831.464	201.133
831.514	204.396
831.565	201.24
831.616	202.382
831.666	206
831.717	204.973
831.767	202.717
831.818	197.852
831.869	201.695
831.919	205.621
831.97	197.255
832.021	200.416
832.071	201.631
832.122	195.76
832.173	191.934
832.223	187.585
832.274	197.651
832.325	196.339
832.375	198.255
832.426	197.567
832.477	203.8
832.527	203.604
832.578	196.395
832.628	192.489
832.679	199.679
832.73	202.528
832.78	200.773
832.831	201.985
832.882	204.004
832.932	203.548
832.983	201.397
833.034	201.673
833.084	196.237
833.135	197.891
833.185	194.853
833.236	190.704
833.287	189.235
833.337	190.038
833.388	192.478
833.439	191.372
833.489	191.428
833.54	198.85
833.59	199.807
833.641	182.947
833.692	180.94
833.742	191.228
833.793	194.351
833.844	184.126
833.894	196.192
833.945	198.351
833.995	201.255
834.046	188.601
834.097	189.003
834.147	197.382
834.198	194.029
834.249	186.316
834.299	185.453
834.35	192.642
834.4	194.002
834.451	192.723
834.502	187.339
834.552	177.152
834.603	175.867
834.653	192.39
834.704	195.637
834.755	189.443
834.805	187.001
834.856	186.84
834.906	190.65
834.957	180.85
835.008	178.478
835.058	188.709
835.109	194.678
835.16	194.439
835.21	193.379
835.261	186.778
835.311	188.129
835.362	186.033
835.413	178.688
835.463	177.439
835.514	182.098
835.564	182.89
835.615	186.164
835.666	187.171
835.716	188.235
835.767	181.672
835.817	182.297
835.868	188.312
835.919	182.409
835.969	185.694
836.02	190.362
836.07	183.62
836.121	182.403
836.161	184
836.212	174
836.263	199.988
836.314	183.997
836.365	197.922
836.415	193.839
836.466	183.945
836.517	168.094
836.568	185.873
836.618	185.995
836.669	187.866
836.72	180.112
836.771	189.959
836.821	174.172
836.872	189.484
836.923	181.995
836.974	179.902
837.024	185.636
837.075	176.238
837.126	189.65
837.177	191.325
837.227	185.701
837.278	172.259
837.329	181.896
837.38	195.296
837.43	172.158
837.481	175.977
837.532	183.299
837.583	180.237
837.633	175.786
837.684	188.745
837.735	181.793
837.786	176.004
837.836	178.721
837.887	174.413
837.938	185.398
837.989	194.281
838.039	179.103
838.09	175.182
838.141	179.461
838.192	179.049
838.242	172.046
838.293	171.865
838.344	171.906
838.395	176.677
838.445	161.54
838.496	178.764
838.547	171.946
838.598	162.783
838.648	179.842
838.699	181.215
838.75	176.617
838.801	168.491
838.851	168.347
838.902	182.694
838.953	173.864
839.003	175.5
839.054	176.986
839.105	166.515
839.156	175.55
839.206	164.008
839.257	171.828
839.308	157.748
839.359	182.701
839.409	169.941
839.46	173.487
839.511	176.755
839.562	179.19
839.612	171.785
839.663	163.701
839.714	166.692
839.764	171.355
839.815	173.69
839.866	170.734
839.917	175.473
839.967	173.602
840.018	178.198
840.069	178.788
840.119	162.663
840.17	185.883
840.221	170.305
840.272	171.378
840.322	171.558
840.373	169.811
840.424	173.946
840.474	184.054
840.525	162.615
840.576	164.723
840.627	174.632
840.677	162.342
840.728	168.298
840.779	169.704
840.829	163.358
840.88	157.81
840.931	166.349
840.982	176.383
841.032	173.215
841.083	169.062
841.134	166.977
841.184	168.368
841.235	162.458
841.286	163.702
841.337	163.813
841.387	165.679
841.438	169.217
841.489	158.191
841.539	160.109
841.59	166.536
841.641	167.067
841.691	159.607
841.742	163.575
841.793	166.975
841.844	167.681
841.894	152.876
841.945	165.12
841.996	169.782
842.046	164.43
842.097	180.346
842.148	169.739
842.198	170.932
842.249	154.204
842.3	171.212
842.351	164.134
842.401	164.074
842.452	152.849
842.503	166.128
842.553	161.217
842.604	172.562
842.655	160.949
842.705	157.945
842.756	160.533
842.807	164.278
842.857	158.389
842.908	164.969
842.959	168.579
843.009	157.636
843.06	157.653
843.111	154.773
843.161	162.611
843.212	157.471
843.263	159.58
843.314	169.03
843.364	152.9
843.415	162.946
843.466	160.397
843.516	160.424
843.567	156.229
843.618	157.543
843.668	159.758
843.719	155.719
843.77	166.519
843.82	172.149
843.871	159.867
843.922	158.503
843.972	156.414
844.023	151.772
844.074	156.372
844.124	153.726
844.175	162.743
844.226	162.889
844.276	155.97
844.327	156.801
844.378	156.011
844.428	163.146
844.479	154.223
844.53	145.813
844.58	147.978
844.631	148.995
844.682	142.996
844.732	151.092
844.783	149.291
844.834	165.582
844.884	149.755
844.935	154.699
844.986	155.62
845.036	154.039
845.087	157.061
845.138	144.178
845.188	152.126
845.239	153.517
845.29	149.043
845.34	151.075
845.391	164.17
845.442	156.755
845.492	149.857
845.543	143.436
845.594	151.316
845.644	149.274
845.695	142.718
845.745	149.999
845.796	154.71
845.847	147.962
845.897	145.97
845.948	155.335
845.999	160.837
846.049	154.5
846.1	152.277
846.151	150.093
846.201	141.593
846.252	144.24
846.303	156.183
846.353	146.609
846.404	154.732
846.455	140.301
846.505	143.476
846.556	140.082
846.606	149.952
846.657	154.783
846.708	151.192
846.758	147.953
846.809	154.046
846.86	148.795
846.91	152.982
846.961	143.827
847.012	142.5
847.062	144.975
847.113	149.366
847.163	135.746
847.214	150.915
847.265	144.256
847.315	144.276
847.366	147.419
847.417	143.431
847.467	149.349
847.518	141.771
847.568	145.045
847.619	145.281
847.67	143.925
847.72	145.188
847.771	139.789
847.822	143.74
847.872	141.681
847.923	149.756
847.973	141.689
848.024	136.911
848.075	138.689
848.125	135.487
848.176	139.331
848.227	150.036
848.277	140.39
848.328	147.386
848.378	135.27
848.429	137.042
848.48	139.044
848.53	141.333
848.581	152.577
848.631	146.163
848.682	139.64
848.733	143.743
848.783	134.741
848.834	134.159
848.885	141.223
848.935	144.188
848.986	136.57
849.036	138.207
849.087	144.131
849.138	149.697
849.188	139.177
849.239	147.753
849.289	143.937
849.34	137.772
849.391	135.081
849.441	136.091
849.492	141.06
849.542	143.77
849.593	133.83
849.644	129.924
849.694	131.076
849.745	140.039
849.795	143.144
849.846	145.752
849.897	146.869
849.947	141.673
849.998	138.107
850.048	133.206
850.099	145.442
850.15	139.221
850.2	141.542
850.251	124.203
850.301	134.549
850.352	148.78
850.403	135.549
850.453	140.52
850.504	136.841
850.554	118.927
850.605	147.228
850.656	130.826
850.706	126.015
850.757	139.644
850.807	133.204
850.858	128.361
850.908	137.721
850.959	133.907
851.01	136.733
851.06	126.559
851.111	145.819
851.161	139.763
851.212	133.382
851.263	131.986
851.313	131.253
851.364	130.678
851.414	141.081
851.465	131.326
851.515	133.023
851.566	129.669
851.617	123.338
851.667	131.652
851.718	130.917
851.768	136.574
851.819	142.799
851.869	131.742
851.92	135.155
851.971	137.283
852.021	133.168
852.072	122.248
852.122	129.39
852.173	131.377
852.223	136.731
852.274	129.125
852.325	125.729
852.375	135.266
852.426	126.237
852.476	132.131
852.527	131.775
852.577	134.57
852.628	130.227
852.678	125.395
852.729	132.243
852.78	127.084
852.83	129.932
852.881	126.175
852.931	127.287
852.982	129.997
853.032	134.921
853.083	139.247
853.133	133.557
853.184	127.389
853.235	123.515
853.285	130.886
853.336	135.11
853.386	131.69
853.437	126.58
853.487	127.048
853.538	124.576
853.588	131.933
853.639	132.608
853.69	128.742
853.74	132.781
853.791	133.284
853.841	126.828
853.892	124.701
853.942	127.431
853.993	126.508
854.043	115.024
854.094	117.716
854.144	129.335
854.195	124.432
854.246	121.783
854.296	125.71
854.347	131.093
854.397	127.514
854.448	126.544
854.498	117.523
854.549	129.135
854.599	126.648
854.65	128.443
854.7	127.695
854.751	128.868
854.801	123.731
854.852	121.559
854.902	128.652
854.953	127.911
855.004	128.091
855.054	126.362
855.105	114.774
855.155	125.68
855.206	121.375
855.256	118.449
855.307	124.365
855.357	120.417
855.408	128.242
855.458	120.62
855.509	117.935
855.559	118.527
855.61	125.376
855.66	120.16
855.711	121.466
855.761	120.374
855.812	117.794
855.862	119.187
855.913	126.162
855.964	128.678
856.014	127.171
856.065	125.535
856.115	121.471
856.166	119.509
856.216	118.28
856.267	115.523
856.317	120.932
856.368	128.546
856.418	123.992
856.469	121.272
856.519	119.056
856.57	116.752
856.62	114.355
856.671	116.026
856.721	116.287
856.772	123.658
856.822	124.961
856.873	117.135
856.923	120.676
856.974	119.026
857.024	116.393
857.075	117.558
857.125	117.646
857.176	119.088
857.226	121.734
857.277	120.401
857.327	116.68
857.378	117.433
857.428	117.003
857.479	116.115
857.529	120.769
857.58	117.09
857.63	118.394
857.681	117.816
857.731	118.689
857.782	121.658
857.832	116.9
857.883	110.429
857.933	118.278
857.984	122.117
858.034	121.815
858.085	118.311
858.135	119.723
858.186	121.672
858.236	120.16
858.287	117.726
858.337	118.475
858.388	115.218
858.438	115.839
858.489	114.348
858.539	116.7
858.589	122.516
858.64	115.868
858.69	109.177
858.741	113.762
858.791	117.458
858.842	115.995
858.892	115.751
858.943	117.957
858.993	119.873
859.044	116.413
859.094	114.482
859.145	110.272
859.195	117.723
859.246	120.551
859.296	118.434
859.347	118.213
859.397	115.63
859.448	113.314
859.498	111.97
859.549	114
859.599	109.859
859.649	106.098
859.7	113.98
859.75	120.293
859.801	111.466
859.851	113.773
859.902	118.133
859.952	120.751
860.003	118.361
860.053	108.516
860.104	116.781
860.154	118.629
860.205	116.946
860.255	115.609
860.305	113.175
860.356	105.586
860.406	112.683
860.457	109.284
860.507	113.811
860.558	125.296
860.608	119.071
860.659	110.788
860.709	112.714
860.76	119.038
860.81	120.804
860.861	115.295
860.911	111.476
860.961	110.576
861.012	114.758
861.062	104.717
861.113	103.415
861.163	108.474
861.214	116.505
861.264	116.683
861.315	113.143
861.365	114.571
861.415	118.762
861.466	106.8
861.516	115.061
861.567	110.693
861.617	102.842
861.668	95.7724
861.718	106.936
861.769	106.268
861.819	110.89
861.869	103.489
861.92	115.161
861.97	112.403
862.021	111.932
862.071	106.42
862.112	115.992
862.162	104.004
862.213	115.96
862.263	117.945
862.314	100.066
862.365	115.853
862.415	107.914
862.466	111.926
862.516	125.755
862.567	113.94
862.618	108.016
862.668	100.152
862.719	94.2631
862.77	109.842
862.82	113.684
862.871	107.783
862.921	104.061
862.972	112.012
863.023	114.126
863.073	115.799
863.124	106.105
863.174	102.033
863.225	109.587
863.276	109.882
863.326	100.423
863.377	109.62
863.427	102.257
863.478	104.416
863.529	107.988
863.579	104.178
863.63	107.869
863.68	100.38
863.731	98.427
863.782	117.096
863.832	115.183
863.883	111.53
863.933	111.034
863.984	111.088
864.034	109.771
864.085	108.248
864.136	111.824
864.186	111.52
864.237	109.323
864.287	103.842
864.338	110.09
864.389	107.638
864.439	98.2742
864.49	108
864.54	106.001
864.591	109.611
864.642	109.417
864.692	101.799
864.743	110.573
864.793	114.215
864.844	102.406
864.894	96.7947
864.945	108.666
864.996	105.327
865.046	102.198
865.097	110.89
865.147	108.566
865.198	98.0205
865.248	108.737
865.299	105.752
865.35	101.687
865.4	102.229
865.451	111.715
865.501	98.8731
865.552	107.65
865.603	100.271
865.653	100.393
865.704	109.164
865.754	98.6085
865.805	108.084
865.855	95.9042
865.906	106.095
865.956	113.192
866.007	103.094
866.058	99.694
866.108	99.8154
866.159	112.306
866.209	105.938
866.26	103.678
866.31	97.2312
866.361	95.4644
866.412	99.795
866.462	104.988
866.513	97.3067
866.563	103.242
866.614	100.261
866.664	104.262
866.715	105.309
866.766	97.1811
866.816	96.1316
866.867	99.8952
866.917	102.265
866.968	104.111
867.018	99.8495
867.069	90.9007
867.119	92.6426
867.17	103.516
867.22	100.555
867.271	95.998
867.322	104.01
867.372	107.78
867.423	103.033
867.473	101.599
867.524	83.0855
867.574	101.595
867.625	95.9743
867.675	104.173
867.726	101.792
867.776	109.426
867.827	95.6581
867.878	90.5457
867.928	103.179
867.979	108.033
868.029	102.862
868.08	98.3941
868.13	106.543
868.181	98.4067
868.231	92.8885
868.282	104.09
868.332	94.963
868.383	96.4854
868.433	99.5107
868.484	97.3583
868.535	95.6426
868.585	97.7498
868.636	92.7588
868.686	97.7475
868.737	97.1005
868.787	100.45
868.838	95.2683
868.888	96.5561
868.939	93.0668
868.989	92.1218
869.04	94.1214
869.09	99.0409
869.141	99.953
869.191	107.285
869.242	91.8817
869.292	94.5676
869.343	98.0887
869.394	101.493
869.444	90.5741
869.495	92.5135
869.545	101.125
869.596	99.7958
869.646	98.5019
869.697	89.7823
869.747	95.9737
869.798	97.0861
869.848	87.7785
869.899	95.791
869.949	92.6677
870	101.157
870.05	96
870.101	97.2823
870.151	95.7707
870.202	103.18
870.252	97.9037
870.303	91.8061
870.353	89.7264
870.404	92.8997
870.454	90.2062
870.505	94.243
870.555	89.306
870.606	87.8853
870.656	92.9315
870.707	94.7471
870.757	100.743
870.808	97.2664
870.858	96.7538
870.909	91.554
870.959	87.6126
871.01	92.6881
871.06	96.2616
871.111	87.0895
871.161	98
871.212	97.6083
871.262	94.2591
871.313	96.2288
871.363	88.423
871.414	87.2944
871.464	88.1115
871.515	95.7118
871.565	90.7934
871.616	92.89
871.666	98.3807
871.717	87.4397
871.767	94.1375
871.818	92.2457
871.868	93.531
871.919	82.5633
871.969	87.9705
872.02	82.2261
872.07	94.7403
872.121	89.0396
872.171	88.7525
872.222	92.9637
872.272	91.059
872.323	89.1381
872.373	87.2723
872.424	85.3103
872.474	85.5928
872.525	93.5481
872.575	87.195
872.626	94.0447
872.676	88.8138
872.727	89.9026
872.777	89.9881
872.828	96.8005
872.878	88.2637
872.929	87.607
872.979	92.1645
873.03	86.4772
873.08	86.2193
873.13	90.0236
873.181	98.0098
873.231	83.2565
873.282	91.3126
873.332	86.0355
873.383	90.4627
873.433	85.9117
873.484	92.5748
873.534	87.58
873.585	92.8292
873.635	90.4579
873.686	89.009
873.736	91.4157
873.787	90.1237
873.837	84.5225
873.888	88.9317
873.938	88.3639
873.988	85.4746
874.039	87.2933
874.089	83.6381
874.14	94.444
874.19	85.9107
874.241	86.4423
874.291	84.4952
874.342	92
874.392	86.3092
874.443	90.8352
874.493	88.7606
874.544	86.9966
874.594	87.8327
874.644	88.2495
874.695	90.2265
874.745	90.6534
874.796	89.4311
874.846	84.8584
874.897	86.1187
874.947	84.5589
874.998	88.1622
875.048	86.3969
875.099	88.5706
875.149	88.3678
875.199	83.6754
875.25	93.4865
875.3	92.0439
875.351	89.452
875.401	88.5465
875.452	87.2752
875.502	80.5826
875.553	91.9907
875.603	74.6707
875.653	84.473
875.704	79.1522
875.754	83.8105
875.805	78.749
875.855	87.9859
875.906	90
875.956	82.8142
876.006	77.8432
876.057	87.6791
876.107	83.8525
876.158	89.8992
876.208	82.2922
876.259	88.7159
876.309	93.8789
876.36	88.5657
876.41	87.315
876.46	88.2518
876.511	90.2739
876.561	84.8327
876.612	91.6671
876.662	89.0362
876.713	85.4282
876.763	86.1309
876.813	83.1813
876.864	78.9378
876.914	81.2726
876.965	78.1414
877.015	81.597
877.065	76.3983
877.116	81.8685
877.166	80.7031
877.217	81.9437
877.267	80.5502
877.318	83.1739
877.368	82.2424
877.418	86.2052
877.469	88.7485
877.519	81.4137
877.57	77.1339
877.62	83.3765
877.671	80.7341
877.721	82.9021
877.771	86.384
877.822	83.1889
877.872	79.5707
877.923	83.8984
877.973	78.3253
878.023	79.7608
878.074	79.4223
878.124	83.1404
878.175	85.2802
878.225	81.1557
878.276	80.3452
878.326	78.8211
878.376	77.865
878.427	78.6822
878.477	84.4746
878.528	79.4993
878.578	81.6943
878.628	87.2768
878.679	81.9922
878.729	80.1312
878.78	78.8851
878.83	74.8423
878.88	80.7553
878.931	81.4373
878.981	78.0877
879.031	81.9147
879.082	82.1704
879.132	81.1101
879.183	77.6353
879.233	78.4277
879.284	82.9459
879.334	81.8635
879.384	76.5705
879.435	79.7208
879.485	83.3138
879.535	77.7108
879.586	72.7018
879.636	81.22
879.687	82.0106
879.737	81.7932
879.787	79.9006
879.838	81.7542
879.888	77.4937
879.939	78.6218
879.989	79.3415
880.039	79.5974
880.09	81.4512
880.14	80.5709
880.19	79.5347
880.241	79.4785
880.291	77.4055
880.342	80.7021
880.392	81.7875
880.442	73.5532
880.493	80.254
880.543	80.1581
880.594	78.2866
880.644	82.4096
880.694	86.8918
880.745	81.5613
880.795	85.2324
880.845	79.4446
880.896	80.9868
880.946	77.0311
880.996	75.9781
881.047	80.4081
881.097	78.2811
881.148	75.0607
881.198	76.7626
881.248	76.1193
881.299	81.9066
881.349	82.114
881.399	79.9078
881.45	81.5414
881.5	83.272
881.551	74.4098
881.601	74.1555
881.651	74.7115
881.702	75.454
881.752	77.81
881.802	75.423
881.853	76.1508
881.903	85.6736
881.953	83.344
882.004	81.9411
882.054	77.987
882.104	75.3247
882.155	75.1158
882.205	68.4883
882.256	73.0354
882.306	81.9162
882.356	80.0685
882.407	78.248
882.457	71.4314
882.507	75.5291
882.558	79.5275
882.608	80.1127
882.658	80.5092
882.709	76.2566
882.759	71.8068
882.809	74.547
882.86	83.4675
882.91	81.764
882.96	77.9782
883.011	70.4114
883.061	73.6809
883.111	79.7683
883.162	74.4718
883.212	75.3525
883.262	76.4679
883.313	79.8519
883.363	78.3591
883.413	71.0883
883.464	78.8831
883.514	73.8784
883.565	73.7984
883.615	70.7588
883.665	83.4749
883.716	81.6123
883.766	80.5949
883.816	73.2303
883.867	77.2681
883.917	79.9576
883.967	69.1983
884.017	68.7672
884.068	77.2582
884.118	74.3915
884.168	71.2333
884.219	71.8868
884.269	78.8685
884.319	77.2467
884.37	73.5791
884.42	70.4971
884.47	77.7085
884.521	69.0902
884.571	69.7433
884.621	71.8031
884.672	78.9857
884.722	75.6504
884.772	72.9377
884.823	71.6575
884.873	72.6498
884.923	73.1193
884.974	68.829
885.024	76.1327
885.074	84.3196
885.125	74.2937
885.175	66.0271
885.225	71.2668
885.276	70.7704
885.326	76.7407
885.376	78.3718
885.426	72.0428
885.477	70.3365
885.527	68.0477
885.577	65.5309
885.628	65.0131
885.678	73.3997
885.728	70.4392
885.779	71.3357
885.829	67.0113
885.879	77.9454
885.93	78.2045
885.98	73.3919
886.03	81.3755
886.08	73.3449
886.131	71.0671
886.181	71.3316
886.231	65.4263
886.282	75.3099
886.332	69.5463
886.382	64.6238
886.432	65.1643
886.483	71.5367
886.533	68.7711
886.583	62.1096
886.634	70.4097
886.684	74.4586
886.734	74.6773
886.785	69.5087
886.835	69.5951
886.885	68.4424
886.935	64.7361
886.986	68.2792
887.036	72.1336
887.086	72.1698
887.137	76.8194
887.187	64.9429
887.237	60.7953
887.287	74.1425
887.338	69.9309
887.388	64.3109
887.438	69.6875
887.489	71.8556
887.539	73.863
887.589	75.8118
887.639	64.2673
887.69	66.1078
887.74	75.7615
887.79	66.2593
887.841	68.0134
887.891	60.2708
887.941	69.688
887.943	70.051
887.993	68.0729
888.044	75.9382
888.094	73.7847
888.144	64.1875
888.195	66.2106
888.245	79.6436
888.296	77.6785
888.346	62.5293
888.397	64.5791
888.447	73.9274
888.498	67.8963
888.548	71.6251
888.599	65.9621
888.649	73.4393
888.699	69.3613
888.75	63.9031
888.8	82.5155
888.851	69.5705
888.901	80.5196
888.952	71.9361
889.002	68.2034
889.053	71.0249
889.103	69.2502
889.153	69.1683
889.204	65.3225
889.254	61.9507
889.305	70.6762
889.355	66.1509
889.406	70.3476
889.456	69.4012
889.507	73.2735
889.557	60.2667
889.607	63.5083
889.658	69.2338
889.708	77.0076
889.759	71.8592
889.809	61.9775
889.86	69.5848
889.91	68.7969
889.96	66.4907
890.011	65.4903
890.061	74.4641
890.112	73.7807
890.162	56.849
890.213	66.2909
890.263	67.5102
890.313	63.9038
890.364	70.0437
890.414	60.544
890.465	70.8763
890.515	71.8216
890.566	62.1451
890.616	70.3817
890.666	72.0561
890.717	70.883
890.767	62.4965
890.818	62.0797
890.868	60.9261
890.919	74.3836
890.969	62.1022
891.019	68.444
891.07	68.4191
891.12	64
891.171	67.4216
891.221	67.3926
891.271	65.7066
891.322	66.264
891.372	67.6929
891.423	60.2841
891.473	67.7541
891.523	71.5934
891.574	62.0285
891.624	69.0144
891.675	60.7946
891.725	66.6842
891.776	65.3568
891.826	70.8394
891.876	68.8717
891.927	67.3361
891.977	66.2169
892.028	69.314
892.078	69.095
892.128	72.6644
892.179	61.7815
892.229	64.0467
892.28	64.0868
892.33	67.0937
892.38	66.8604
892.431	65.7441
892.481	63.8351
892.532	68.8657
892.582	58.6556
892.632	69.2594
892.683	66.033
892.733	64.4333
892.784	55.8554
892.834	61.8156
892.884	67.7357
892.935	62.9963
892.985	68.8972
893.036	65.8095
893.086	59.8382
893.136	66.1152
893.187	62.0165
893.237	64.8294
893.288	65.2112
893.338	67.8532
893.388	59.9096
893.439	64.8727
893.489	70.4481
893.539	63.0125
893.59	66.7167
893.64	63.5551
893.691	63.8988
893.741	67.7271
893.791	61.9258
893.842	61.1056
893.892	66.143
893.943	65
893.993	61.907
894.043	61.0652
894.094	65.9928
894.144	63.0048
894.194	62.9928
894.245	55.0145
894.295	63.9662
894.346	65.0169
894.396	56.0242
894.446	61.029
894.497	62.9275
894.547	65
894.597	58
894.648	63
894.698	66.9698
894.749	61.0326
894.799	66.8551
894.849	59.3587
894.9	59.7391
894.95	64
895	61.901
895.051	62.208
895.101	62.8889
895.151	63.9408
895.202	62.0616
895.252	61.1957
895.303	68.5181
895.353	63.3567
895.403	62.7754
895.454	56.5495
895.504	60.7536
895.554	57.0846
895.605	59.1739
895.655	60.7283
895.706	57.9058
895.756	61.1935
895.806	64.599
895.857	61.7271
895.907	60.468
895.957	62.8901
896.008	59.3406
896.058	63.7678
896.108	64.7609
896.159	56.4885
896.209	62
896.259	62.2585
896.31	57.2636
896.36	59.4589
896.41	61.7243
896.461	62.1425
896.511	58
896.561	58.2975
896.612	56
896.662	62.3809
896.713	60.8418
896.763	61.3216
896.813	63.4928
896.864	56.5042
896.914	58.314
896.964	57.8259
897.015	66.8225
897.065	59.1802
897.115	66.6304
897.166	66.4377
897.216	66.1391
897.266	64.8068
897.317	59.6058
897.367	57.6014
897.417	58.2031
897.468	57
897.518	56.3696
897.568	58.2128
897.619	59.8658
897.669	67.1208
897.719	59.445
897.77	53.7739
897.82	60.6884
897.87	60.0665
897.921	60
897.971	58.7609
898.021	55.2152
898.072	61.5272
898.122	57.7473
898.172	59.9903
898.223	54.5381
898.273	61.4474
898.323	59.0496
898.374	56.2648
898.424	53.808
898.474	59.0955
898.524	60.2757
898.575	59.3906
898.625	56.7183
898.675	59.8634
898.726	56.5756
898.776	57.7077
898.826	56.8851
898.877	56.104
898.927	60.3978
898.977	61
899.028	59.925
899.078	60.3108
899.128	61.6856
899.179	56.318
899.229	53.9613
899.279	58.7316
899.33	56.6385
899.38	57.3374
899.43	57.3337
899.48	60.3253
899.531	58.023
899.581	58.6215
899.631	59.0411
899.682	59
899.732	63
899.782	54
899.833	62.3615
899.883	59.5441
899.933	58.4704
899.984	51.2591
