#Acq. time (s)=	3
#Accumulations=	2
#Range (nm)=	520...900
#Windows=	16
#Auto scanning=	On
#Autofocus=	Off
#AutoExposure=	Off
#Spike filter=	Multiple accum.
#Delay time (s)=	0
#Binning=	1
#Readout mode=	Signal
#DeNoise=	Off
#ICS correction=	Off
#Dark correction=	Off
#Inst. Process=	Off
#Detector temperature (°C)=	-59.98
#Instrument=	LabRAM HR Evol
#Detector=	Syncerity OE
#Objective=	x50_VIS
#Grating=	600 (500nm)
#ND Filter=	10%
#Laser=	514nm_Edge
#Hole=	199.981
#Range=	Auto
#StageXY=	Marzhauser
#StageZ=	Marzhauser
#X (µm)=	-9419.6
#Y (µm)=	-697.2
#Z (µm)=	273.7
#Full time(mm:ss)=	2:39
#Project=	
#Sample=	
#Site=	
#Title=	PL_230124_Amostra_marrom
#Remark=	
#Date=	31.01.2024 11:22
#Acquired=	31.01.2024 11:22:10
520.042	47
520.094	44.1291
520.147	46.9092
520.199	46
520.251	40.1954
520.304	39.8463
520.356	47
520.408	47.8393
520.461	42.2279
520.513	39.8254
520.565	50.0594
520.618	43.1256
520.67	50.8079
520.723	43.1956
520.775	46.865
520.827	49.0698
520.88	45
520.932	46.8533
520.984	46.9243
521.037	47.2305
521.089	47.7628
521.141	44.326
521.194	43.0827
521.246	46
521.298	46.4831
521.351	40.5372
521.403	44.9092
521.455	39.0931
521.508	37.1886
521.56	42.8068
521.612	40
521.665	44.7977
521.717	37.2049
521.769	41.7905
521.822	43.2119
521.874	45.7835
521.926	39.2189
521.979	40.1118
522.031	44.7742
522.083	47.539
522.136	39.8302
522.188	45.4005
522.24	45.1222
522.293	48.7532
522.345	42.2515
522.397	47.3842
522.45	45.6123
522.502	47.1315
522.554	45.1339
522.607	38.7299
522.659	45.8626
522.711	46.8603
522.764	47.2817
522.816	41.1432
522.868	41.4366
522.921	46.2666
522.973	45.447
523.025	46.3946
523.078	43.61
523.13	47.2258
523.182	41.943
523.234	49.8836
523.287	47.3213
523.339	48
523.391	42.3306
523.444	42
523.496	44
523.548	45.3403
523.601	44.3108
523.653	51.4761
523.705	44.4156
523.758	49.2875
523.81	44.7218
523.862	45.2689
523.915	47.3702
523.967	43
524.019	47.6224
524.072	48
524.124	50.6158
524.176	48.3609
524.229	44.213
524.281	50.2037
524.333	45.2028
524.385	46.3923
524.438	47.4098
524.49	46.5856
524.542	43.4191
524.595	46.789
524.647	46
524.699	47.2142
524.752	50.3504
524.804	43.6566
524.856	46.1189
524.909	47.4447
524.961	46.7753
525.013	45
525.066	43.6853
525.118	48.7695
525.17	49.5343
525.222	48.2343
525.275	46
525.327	50.0454
525.379	48.4476
525.432	46.5134
525.484	48.5087
525.536	49.4959
525.589	50.7506
525.641	43.5029
525.693	45.7462
525.745	47.2552
525.798	45.5145
525.85	41.4825
525.902	46.5215
525.955	44.4715
526.007	50.2028
526.059	41.6065
526.112	44.9197
526.164	50.2716
526.216	45.7264
526.268	47
526.321	46
526.373	45.8392
526.425	50.0279
526.478	50.1362
526.53	50
526.582	52.4226
526.635	37.3217
526.687	40.8312
526.739	44.8252
526.791	47.1874
526.844	52.1049
526.896	45.2014
526.948	45.4848
527.001	49.915
527.053	46
527.105	42.383
527.157	47.6888
527.21	45.6263
527.262	50.4266
527.314	45.4959
527.367	41.042
527.419	51.3974
527.471	51.3236
527.523	47.6504
527.576	49.3644
527.628	52.6492
527.68	54.3411
527.733	49.0035
527.785	51.3357
527.837	47.3376
527.889	49.6807
527.942	41.6585
527.994	48.2771
528.046	51.3462
528.099	53.3015
528.151	45.4033
528.203	49.2937
528.255	47.0652
528.308	50.6434
528.36	48.2821
528.412	46
528.464	50.8182
528.517	50.5408
528.569	45.3671
528.621	49.631
528.674	55.8846
528.726	47.4965
528.778	45.8719
528.83	48
528.883	44.7599
528.935	49.6177
528.987	44.6892
529.039	46.9044
529.092	49.9464
529.144	45
529.196	44.4289
529.249	47
529.301	46.1923
529.353	48
529.405	44.5991
529.458	49.1935
529.51	48.2189
529.562	49
529.614	45.1795
529.667	51.4126
529.719	48.5862
529.771	45
529.823	50.4191
529.876	52.8963
529.928	49.1154
529.98	47.8508
530.033	48.289
530.085	46.2867
530.137	47
530.189	51.1329
530.242	51
530.294	49.1259
530.346	52.44
530.398	49.4429
530.451	52
530.503	52.5524
530.555	44.5513
530.607	48.451
530.66	48.5466
530.712	51.9114
530.764	53.542
530.816	48.4604
530.869	49.5385
530.921	57.4639
530.973	47.8648
531.025	46.1888
531.078	48.4709
531.13	50.5268
531.182	55.4266
531.234	47
531.287	51.0793
531.339	49.9301
531.391	49.0326
531.443	45.9708
531.496	48.5641
531.548	46.4476
531.6	53.5571
531.652	51.4709
531.705	48.007
531.757	53.4965
531.809	49.5012
531.861	51.4965
531.914	52.9767
531.966	48.5683
532.018	52.4347
532.07	48.0466
532.123	47.9441
532.175	53.035
532.227	50.4406
532.279	48.0432
532.332	51.4301
532.384	53.5769
532.436	48.0559
532.488	46.9394
532.541	51.4037
532.593	52
532.645	54.289
532.697	46.3019
532.75	52.5414
532.802	50.0862
532.854	51.2727
532.906	53
532.958	54.4504
533.011	53.8671
533.063	52.007
533.115	52.4569
533.167	52.0875
533.22	55.803
533.272	47.7436
533.324	51.6978
533.376	52.8648
533.429	58.2835
533.481	56.294
533.533	55.8256
533.585	54.7109
533.638	54.9022
533.69	52.8095
533.742	52.2901
533.794	50.7292
533.846	56.3275
533.899	53.0106
533.951	57.894
534.003	59.7767
534.055	58.7443
534.108	56.8409
534.16	58.6077
534.212	57.1578
534.264	62.0742
534.316	59.8061
534.369	60.4182
534.421	58.8184
534.473	60.4162
534.525	67.3183
534.578	66.5234
534.63	64.2257
534.682	68.4326
534.734	63.5088
534.786	68.8196
534.839	70.7726
534.891	70.5755
534.943	65.8743
534.995	69.7713
535.047	67.912
535.1	70.9013
535.152	67.1961
535.204	72.1061
535.256	68.7993
535.309	68.733
535.361	66.654
535.413	65.2993
535.465	65.3212
535.517	66.2889
535.57	73.7447
535.622	66.6618
535.674	68.8787
535.726	65.2123
535.778	63.9266
535.831	71.219
535.883	68.0721
535.935	64.0411
535.987	64.064
536.039	61.4776
536.092	68.0418
536.144	62.4149
536.196	62.1271
536.248	58.5893
536.301	65.2574
536.353	63.8858
536.405	64.2488
536.457	58.1889
536.509	63.9179
536.562	57.8775
536.614	53.1045
536.666	52.2329
536.718	56.392
536.77	61.3533
536.823	59.1409
536.875	51.9772
536.927	56.8151
536.979	53.514
537.031	58.9511
537.083	61.0998
537.136	57.6579
537.188	60.2525
537.24	59.6282
537.292	59.5773
537.344	58.141
537.397	57.223
537.449	53.2364
537.501	64.3624
537.553	63.9159
537.605	64.0689
537.658	58.2898
537.71	63.5843
537.762	67.7258
537.814	61.4406
537.866	54.5345
537.919	62.6595
537.971	62.3469
538.023	59.6536
538.075	60.7045
538.127	60.7548
538.18	60.5597
538.232	58
538.284	60.1453
538.336	65.5022
538.388	69.4221
538.44	62.0858
538.493	56.8043
538.545	62.1905
538.597	55.9309
538.649	59.9447
538.701	61.7257
538.754	61.4122
538.806	64.8685
538.858	64.3562
538.91	62.4661
538.962	67.152
539.014	62.7143
539.067	57.771
539.119	69.4305
539.171	62.3333
539.223	69.0731
539.275	61.8257
539.327	58.3142
539.38	64.8071
539.432	60.9139
539.484	59.8842
539.536	66.3062
539.588	65.2167
539.641	68.7147
539.693	65.0071
539.745	59.8318
539.797	68
539.849	69.1177
539.901	65.2318
539.954	65.4931
540.006	66.6086
540.058	72.0962
540.11	67.2082
540.162	70.4912
540.214	69.2375
540.267	63.2346
540.319	67.5286
540.371	64.3629
540.423	67.5284
540.475	66.7721
540.527	71.4438
540.58	74.7893
540.632	72.875
540.684	64.3379
540.736	75.5583
540.788	60.1051
540.84	69.0518
540.892	73.8041
540.945	63.2782
540.997	63.1362
541.049	68.4247
541.101	69.1275
541.153	67.8218
541.205	65.6275
541.258	78.364
541.31	77.6538
541.362	68.8023
541.414	67.8859
541.466	66.1759
541.518	65.5369
541.57	69.7965
541.623	65.815
541.675	70.283
541.727	69.9665
541.779	66.7397
541.831	66.3283
541.883	73.5184
541.936	64.3731
541.988	69.2086
542.04	71.3669
542.092	73.5263
542.144	70.865
542.196	75.7739
542.248	78.4591
542.301	72.8461
542.353	68.5887
542.405	77.2211
542.457	69.8578
542.509	79.8113
542.561	68.4907
542.613	79.8019
542.666	76.6975
542.718	69.4832
542.77	67.2178
542.822	72.0239
542.874	78.266
542.926	74.2861
542.978	73.3992
543.031	72.8278
543.083	71.456
543.135	73.7117
543.187	73.0811
543.239	61.7322
543.291	74.5409
543.343	75.2622
543.396	71.08
543.448	80.4939
543.5	79.0615
543.552	76.7659
543.604	82.0533
543.656	71.3007
543.708	86.484
543.76	82.6665
543.813	85.1901
543.865	72.7945
543.917	81.2298
543.969	76.4819
544.021	84.5089
544.073	83.7058
544.125	76.6158
544.177	77.1389
544.23	81.2785
544.282	84.4249
544.334	88.9109
544.386	77.4333
544.438	81.4198
544.49	76.7568
544.542	74.7957
544.594	80.1823
544.647	83.6896
544.699	79.233
544.751	92.2434
544.803	83.8843
544.855	83.2505
544.907	81.126
544.959	85.8301
545.011	84.5741
545.064	87.3588
545.116	81.0472
545.168	85.4946
545.22	84.5464
545.272	82.3243
545.324	78.7542
545.376	85.285
545.428	91.3952
545.48	81.523
545.533	79.1241
545.585	97.0989
545.637	99.6791
545.689	92.9664
545.741	81.9564
545.793	88.6461
545.845	90.1292
545.897	93.1303
545.949	90.6901
546.002	100.239
546.054	98.4015
546.106	95.8559
546.158	90.9748
546.21	90.0744
546.262	85.1979
546.314	90.7125
546.366	90.2836
546.418	86.7656
546.471	81.1773
546.523	84.9214
546.575	92.5466
546.627	98.9106
546.679	90.2926
546.689	88.1024
546.741	94.0033
546.793	99.9518
546.845	102.015
546.898	99.9726
546.95	107.833
547.002	99.9827
547.054	107.815
547.106	98.0034
547.159	105.846
547.211	109.794
547.263	109.744
547.315	92.3016
547.368	102.087
547.42	92.3912
547.472	109.924
547.524	108.218
547.577	98.3191
547.629	103.861
547.681	104.065
547.733	115.822
547.785	90.697
547.838	107.827
547.89	111.515
547.942	119.159
547.994	102.143
548.047	104.181
548.099	100.356
548.151	108.033
548.203	108.466
548.255	110.051
548.308	100.314
548.36	113.771
548.412	107.565
548.464	111.132
548.517	103.843
548.569	114.65
548.621	109.689
548.673	122.77
548.725	118.942
548.778	110.304
548.83	112.346
548.882	117.333
548.934	108.025
548.987	105.077
549.039	108.744
549.091	101.223
549.143	120.322
549.195	126.721
549.248	108.768
549.3	121.347
549.352	110.531
549.404	117.569
549.456	124.318
549.509	119.56
549.561	129.377
549.613	121.074
549.665	123.166
549.718	123.241
549.77	124.493
549.822	120.089
549.874	125.766
549.926	120.748
549.979	125.3
550.031	127.055
550.083	127.27
550.135	116.56
550.187	131.735
550.24	133.239
550.292	118.766
550.344	126.757
550.396	124.192
550.448	126.294
550.501	134.1
550.553	120.111
550.605	130.205
550.657	121.748
550.709	134
550.762	136.09
550.814	134.977
550.866	132.547
550.918	137.032
550.97	142.379
551.023	141.242
551.075	135.938
551.127	136.746
551.179	147.503
551.231	137.409
551.284	136.102
551.336	153.065
551.388	159.736
551.44	159.524
551.492	160.559
551.545	164.839
551.597	167.949
551.649	168.219
551.701	165.665
551.753	177.825
551.806	176.291
551.858	185.785
551.91	193.007
551.962	185.437
552.014	209.497
552.067	222.797
552.119	239.096
552.171	271.382
552.223	319.754
552.275	407.057
552.327	628.065
552.38	1361.88
552.432	2557.6
552.484	4052.65
552.536	7408.6
552.588	11746
552.641	10453.9
552.693	6164.01
552.745	2816.54
552.797	1172.64
552.849	580.097
552.901	403.705
552.954	312.022
553.006	267.484
553.058	237.826
553.11	232.396
553.162	204.374
553.215	210.168
553.267	198.829
553.319	192.523
553.371	188.337
553.423	188.256
553.475	178.219
553.528	178.499
553.58	169.054
553.632	183.424
553.684	172.186
553.736	166.156
553.788	165.468
553.841	174.647
553.893	162.336
553.945	164.337
553.997	163.308
554.049	176.732
554.102	173.986
554.154	158.385
554.206	173.026
554.258	168.578
554.31	175.364
554.362	166.829
554.414	152.716
554.467	171.934
554.519	168.735
554.571	171.097
554.623	178.982
554.675	176.108
554.727	172.642
554.78	177.086
554.832	166.056
554.884	166.549
554.936	160.724
554.988	175.414
555.04	179.081
555.093	173.078
555.145	166.209
555.197	161.387
555.249	180.921
555.301	177.855
555.353	173.802
555.406	170.164
555.458	181.998
555.51	174.099
555.562	189.19
555.614	167.848
555.666	179.44
555.719	176.264
555.771	172.063
555.823	184.842
555.875	191.284
555.927	189.374
555.979	190.762
556.031	185.104
556.084	191.852
556.136	182.188
556.188	194.534
556.24	188.038
556.292	180.377
556.344	198.47
556.396	197.738
556.449	195.23
556.501	196.874
556.553	199.446
556.605	196.692
556.657	196.415
556.709	204.581
556.762	198.277
556.814	208.526
556.866	202.593
556.918	199.263
556.97	211.914
557.022	215.131
557.074	204.019
557.127	216.977
557.179	199.042
557.231	216.449
557.283	206.003
557.335	207.253
557.387	207.284
557.439	209.296
557.492	218.688
557.544	216.809
557.596	223.804
557.648	211.812
557.7	220.476
557.752	221.841
557.804	207.636
557.856	213.013
557.909	208.439
557.961	235.378
558.013	225.966
558.065	231.165
558.117	226.558
558.169	236.434
558.221	226.244
558.273	234.398
558.326	228.226
558.378	242.327
558.43	241.559
558.482	229.786
558.534	239.992
558.586	242.284
558.638	234.642
558.691	234.492
558.743	242.52
558.795	244.929
558.847	246.905
558.899	230.663
558.951	235.065
559.003	236.861
559.055	239.088
559.108	246.514
559.16	241.087
559.212	238.47
559.264	237.904
559.316	233.426
559.368	245.385
559.42	238.162
559.472	227.218
559.525	229.34
559.577	249.274
559.629	240.742
559.681	227.106
559.733	240.903
559.785	242.877
559.837	244.864
559.889	239.114
559.941	239.01
559.994	256.648
560.046	240.649
560.098	246.462
560.15	245.127
560.202	249.992
560.254	251.759
560.306	251.158
560.358	259.189
560.41	250.648
560.463	245.06
560.515	253.435
560.567	256.757
560.619	256.754
560.671	259.887
560.723	250.37
560.775	258.11
560.827	254.419
560.879	245.384
560.932	259.884
560.984	262.441
561.036	260.212
561.088	268.759
561.14	259.81
561.192	266.672
561.244	272.587
561.296	265.173
561.348	273.446
561.4	275.699
561.453	271.456
561.505	271.802
561.557	268.585
561.609	275.838
561.661	285.04
561.713	277.364
561.765	278.196
561.817	275.711
561.869	272.771
561.921	276.467
561.974	270.881
562.026	275.118
562.078	297.045
562.13	287.06
562.182	298.931
562.234	299.189
562.286	295.511
562.338	280.005
562.39	294.192
562.442	293.524
562.494	296.339
562.547	292.722
562.599	294.304
562.651	285.387
562.703	296.857
562.755	303.281
562.807	296.906
562.859	289.499
562.911	302.217
562.963	288.19
563.015	298.861
563.067	312.907
563.12	313.215
563.172	308.598
563.224	306.717
563.276	311.178
563.328	315.49
563.38	307.716
563.432	309.475
563.484	333.811
563.536	327.438
563.588	316.222
563.64	318.146
563.692	326.455
563.744	315.355
563.797	308.662
563.849	320.593
563.901	326.784
563.953	315.02
564.005	312.452
564.057	314.282
564.109	319.574
564.161	332.297
564.213	336.978
564.265	340.864
564.317	328.945
564.369	333.481
564.421	322.639
564.474	329.072
564.526	328.632
564.578	321.77
564.63	332.333
564.682	337.208
564.734	345.614
564.786	341.135
564.838	337.606
564.89	339.948
564.942	345.471
564.994	345.426
565.046	340.656
565.098	352.437
565.15	352.43
565.202	342.79
565.255	339.758
565.307	346.522
565.359	354.747
565.411	339.413
565.463	343.138
565.515	343.23
565.567	348.361
565.619	353.739
565.671	349.175
565.723	361.859
565.775	362.473
565.827	365.426
565.879	372.592
565.931	374.733
565.983	372.604
566.035	367.307
566.087	361.126
566.139	370.44
566.192	377.621
566.244	382.336
566.296	385.477
566.348	381.186
566.4	372.885
566.452	380.695
566.504	382.366
566.556	383.69
566.608	391.711
566.66	378.881
566.712	396.162
566.764	390.463
566.816	388.439
566.868	396.921
566.92	391.312
566.972	383.784
567.024	397.401
567.076	400.747
567.128	395.504
567.18	394.91
567.232	401.911
567.285	414.069
567.337	415.123
567.389	417.715
567.441	415.641
567.493	398.663
567.545	403.983
567.597	410.409
567.649	407.378
567.701	408.003
567.753	419.486
567.805	423.4
567.857	422.472
567.909	419.694
567.961	422.784
568.013	420.753
568.065	429.065
568.117	430.008
568.169	428.044
568.221	420.773
568.273	421.275
568.325	423.787
568.377	431.343
568.429	440.262
568.481	431.11
568.533	437.772
568.585	435.583
568.637	433.965
568.69	435.126
568.742	438.902
568.794	444.49
568.846	450.382
568.898	452.11
568.95	448.648
569.002	450.889
569.054	444.987
569.106	447.999
569.158	442.515
569.21	447.551
569.262	461.029
569.314	465.798
569.366	467.598
569.418	470.72
569.47	471.526
569.522	482.821
569.574	464.992
569.626	458.976
569.678	475.112
569.73	478.8
569.782	477.072
569.834	469.007
569.886	482.294
569.938	488.863
569.99	470.438
570.042	479.747
570.094	490.869
570.146	500.652
570.198	524.352
570.25	521.792
570.302	511.605
570.354	512.44
570.406	515.084
570.458	527.928
570.51	532.187
570.562	522.483
570.614	521.407
570.666	527.715
570.718	544.178
570.77	545.806
570.822	533.985
570.874	540.934
570.926	540.279
570.978	549.445
571.03	557.53
571.082	567.065
571.134	570.137
571.186	572.072
571.238	579.082
571.29	581.58
571.342	571.35
571.394	569.931
571.446	590.971
571.498	603.725
571.55	601.343
571.602	620.932
571.654	626.664
571.706	632.593
571.758	635.497
571.81	640.997
571.862	647.123
571.914	654.781
571.966	659.014
572.018	650.886
572.07	657.1
572.122	680.136
572.174	675.789
572.226	695.201
572.278	697.005
572.33	683.298
572.382	684.987
572.434	703.046
572.486	716.128
572.538	725.825
572.59	742.167
572.642	740.517
572.694	754.428
572.746	754.887
572.798	763.57
572.85	795.619
572.902	766.002
572.954	779.879
573.006	789.69
573.058	791.973
573.11	833.2
573.162	841.771
573.214	812.594
573.266	839.741
573.302	857.813
573.355	863.894
573.407	885.948
573.459	882.022
573.511	878.167
573.563	914.039
573.615	920.044
573.667	937.765
573.719	971.532
573.772	965.57
573.824	979
573.876	991.452
573.928	1004.17
573.98	1041.39
574.032	1045.32
574.084	1055.08
574.136	1061.7
574.188	1126.47
574.241	1117.16
574.293	1102.11
574.345	1152.84
574.397	1115.24
574.449	1154.16
574.501	1203.46
574.553	1200.58
574.605	1250.96
574.657	1248.83
574.71	1294.38
574.762	1278.97
574.814	1331.61
574.866	1334.39
574.918	1352.3
574.97	1360.63
575.022	1443.15
575.074	1388.26
575.126	1454.48
575.178	1485.34
575.231	1461.5
575.283	1481.29
575.335	1534.43
575.387	1517.65
575.439	1521.21
575.491	1537.66
575.543	1583.46
575.595	1615.63
575.647	1633.83
575.7	1602.17
575.752	1629.95
575.804	1608.11
575.856	1643.08
575.908	1681.35
575.96	1666.9
576.012	1663.46
576.064	1674.57
576.116	1632.23
576.168	1667.57
576.22	1620.15
576.273	1646.82
576.325	1612.75
576.377	1636.75
576.429	1607.12
576.481	1596.47
576.533	1597.5
576.585	1577.84
576.637	1562.6
576.689	1563.53
576.741	1529.18
576.793	1532.76
576.846	1494.52
576.898	1502.74
576.95	1478
577.002	1456.23
577.054	1420.47
577.106	1404.61
577.158	1385.45
577.21	1366.96
577.262	1400.56
577.314	1338.49
577.366	1342.48
577.418	1312.39
577.471	1325.04
577.523	1300.96
577.575	1285.88
577.627	1269.53
577.679	1244.82
577.731	1239.98
577.783	1235.54
577.835	1218.39
577.887	1186.65
577.939	1200.55
577.991	1173.01
578.043	1191.5
578.095	1180.17
578.148	1166.41
578.2	1126.65
578.252	1108.47
578.304	1113.63
578.356	1126.55
578.408	1115.86
578.46	1113.68
578.512	1112.11
578.564	1085.05
578.616	1091.57
578.668	1098.14
578.72	1053.91
578.772	1045.71
578.824	1068.6
578.877	1071.88
578.929	1062.63
578.981	1048.9
579.033	1055.17
579.085	1020.97
579.137	1066.05
579.189	1045.75
579.241	1058.38
579.293	1033.48
579.345	1062.93
579.397	1041.92
579.449	1043.96
579.501	1030.46
579.553	1043.18
579.605	1025.84
579.658	1037.62
579.71	994.551
579.762	1040.89
579.814	1029.09
579.866	1026.74
579.918	1018.38
579.97	1033.78
580.022	1003.17
580.074	1000.37
580.126	1025.44
580.178	984.341
580.23	996.156
580.282	1001.27
580.334	1018.81
580.386	1022.41
580.438	1036.32
580.49	1014.69
580.542	1050.01
580.595	1022.6
580.647	1013.96
580.699	1016.52
580.751	1017.48
580.803	1019.5
580.855	1024.13
580.907	1020.23
580.959	1018.03
581.011	1028.2
581.063	1048.45
581.115	1048.14
581.167	1034.09
581.219	1021.7
581.271	1009.87
581.323	1046.94
581.375	1043.08
581.427	1037.51
581.479	1059.29
581.531	1043.75
581.583	1061.23
581.635	1070.86
581.688	1068.38
581.74	1061.62
581.792	1071.73
581.844	1073.28
581.896	1065.28
581.948	1070.21
582	1057.45
582.052	1065.71
582.104	1048.19
582.156	1081.52
582.208	1087.9
582.26	1069.72
582.312	1060.37
582.364	1079.19
582.416	1060.42
582.468	1094.13
582.52	1086.99
582.572	1076.64
582.624	1106.52
582.676	1100.84
582.728	1103.42
582.78	1106.5
582.832	1106.48
582.884	1117.8
582.936	1106.61
582.988	1107.67
583.04	1123.1
583.092	1114.84
583.144	1129.29
583.196	1117.15
583.249	1116.93
583.301	1120.82
583.353	1129.57
583.405	1144.77
583.457	1118.62
583.509	1123.85
583.561	1143.37
583.613	1140.67
583.665	1135.15
583.717	1124.63
583.769	1147.01
583.821	1182.23
583.873	1187.29
583.925	1144.64
583.977	1184.12
584.029	1188.24
584.081	1194.84
584.133	1186.19
584.185	1177.56
584.237	1196.39
584.289	1178.88
584.341	1194.28
584.393	1167.17
584.445	1196.49
584.497	1213.32
584.549	1256.09
584.601	1232.64
584.653	1210.66
584.705	1259.21
584.757	1239.39
584.809	1247.44
584.861	1241.64
584.913	1249.49
584.965	1254.69
585.017	1279.37
585.069	1260.81
585.121	1275.07
585.173	1272.16
585.225	1255.21
585.277	1267.59
585.329	1271.33
585.381	1283.97
585.433	1292.07
585.485	1309.47
585.537	1302.13
585.589	1303.54
585.641	1318.51
585.693	1313.09
585.745	1325.83
585.797	1312.11
585.849	1327
585.901	1327.14
585.953	1340.58
586.005	1338.42
586.057	1356.83
586.109	1344.42
586.161	1329.25
586.213	1324.86
586.265	1373.24
586.317	1354.9
586.369	1363.04
586.421	1365.83
586.473	1375.6
586.525	1344.58
586.577	1363.57
586.629	1389.59
586.681	1386.01
586.733	1353.61
586.785	1385.36
586.837	1387.08
586.889	1370.47
586.941	1418.89
586.993	1386.63
587.045	1391.34
587.097	1406.96
587.149	1380.31
587.201	1405.29
587.253	1380.44
587.305	1394.38
587.357	1409.95
587.409	1411.41
587.461	1398.85
587.513	1373.39
587.565	1394.33
587.617	1399.58
587.669	1406.13
587.721	1409.87
587.773	1414.94
587.825	1413.25
587.877	1452.61
587.929	1415.07
587.981	1429.4
588.033	1405.56
588.085	1426.33
588.137	1433.78
588.189	1396.2
588.241	1434.59
588.293	1422.36
588.345	1444.9
588.397	1417.16
588.449	1424.84
588.501	1425.73
588.552	1447.15
588.604	1466.05
588.656	1452.83
588.708	1432.31
588.76	1445.03
588.812	1457.56
588.864	1432.56
588.916	1445.65
588.968	1451.46
589.02	1445.84
589.072	1448.99
589.124	1479.96
589.176	1468.16
589.228	1468.19
589.28	1486.71
589.332	1473.39
589.384	1470.46
589.436	1481.1
589.488	1434.6
589.54	1478.72
589.592	1473.69
589.644	1473.94
589.696	1471.6
589.748	1480.68
589.8	1465.13
589.852	1470.01
589.904	1456.7
589.956	1475.63
590.008	1473.29
590.06	1441.46
590.112	1469.78
590.163	1481.64
590.215	1461.76
590.267	1455.86
590.319	1471.48
590.371	1477.83
590.423	1493.54
590.475	1457.63
590.527	1468.85
590.579	1470.57
590.631	1461.96
590.683	1457.03
590.735	1481.19
590.787	1469.74
590.839	1467.36
590.891	1457.29
590.943	1464.69
590.995	1478.31
591.047	1479.46
591.099	1473.04
591.151	1457.35
591.203	1435.26
591.254	1462.23
591.306	1447.54
591.358	1432.77
591.41	1462.94
591.462	1469.02
591.514	1448.03
591.566	1446.67
591.618	1457.77
591.67	1447.89
591.722	1448.52
591.774	1467.37
591.826	1451.11
591.878	1442.79
591.93	1444.7
591.982	1446.66
592.034	1461.58
592.086	1455.96
592.137	1443.26
592.189	1447.21
592.241	1438.4
592.293	1441.64
592.345	1459.04
592.397	1476.48
592.449	1463.28
592.501	1443.17
592.553	1438.02
592.605	1466.3
592.657	1439.39
592.709	1424.52
592.761	1477.42
592.813	1470.58
592.865	1453.47
592.916	1457.57
592.968	1459.65
593.02	1458.23
593.072	1452.09
593.124	1466.75
593.176	1469.8
593.228	1482.4
593.28	1475.62
593.332	1454.72
593.384	1442.09
593.436	1477.35
593.488	1483.03
593.54	1465.27
593.591	1458.47
593.643	1471.75
593.695	1463
593.747	1445.21
593.799	1452.45
593.851	1463.44
593.903	1468.62
593.955	1480.33
594.007	1474.42
594.059	1463.98
594.111	1452.16
594.163	1446.8
594.215	1465.6
594.266	1487.81
594.318	1479.74
594.37	1480.25
594.422	1476.55
594.474	1478.87
594.526	1491.7
594.578	1487.5
594.63	1490.02
594.682	1497.97
594.734	1507.72
594.786	1498.06
594.837	1466.79
594.889	1473.89
594.941	1490.16
594.993	1515.14
595.045	1505.95
595.097	1503.57
595.149	1520.5
595.201	1521.44
595.253	1521.87
595.305	1499.43
595.357	1506.11
595.408	1525.47
595.46	1541.41
595.512	1552.09
595.564	1540.64
595.616	1548.88
595.668	1544.85
595.72	1567.37
595.772	1576.28
595.824	1544.4
595.876	1563.32
595.927	1600.6
595.979	1595.41
596.031	1572.03
596.083	1553.89
596.135	1570.74
596.187	1590.24
596.239	1562.86
596.291	1569.21
596.343	1601.52
596.394	1607.84
596.446	1615.7
596.498	1621.68
596.55	1631.56
596.602	1638.54
596.654	1633.54
596.706	1630.2
596.758	1632.54
596.81	1640.51
596.862	1661.54
596.913	1659.27
596.965	1652.81
597.017	1667.36
597.069	1664.3
597.121	1647.41
597.173	1665.26
597.225	1685.57
597.277	1685.82
597.328	1668.13
597.38	1657.65
597.432	1675.31
597.484	1709.72
597.536	1703.87
597.588	1699.72
597.64	1698.44
597.692	1695.73
597.744	1707.04
597.795	1710.59
597.847	1708.46
597.899	1700.87
597.951	1721.74
598.003	1721.12
598.055	1704
598.107	1684.54
598.159	1708.46
598.21	1738.45
598.262	1718.58
598.314	1688.85
598.366	1709.12
598.418	1722.58
598.47	1713.93
598.522	1706.41
598.574	1704.73
598.625	1690.71
598.677	1718.08
598.729	1728.42
598.781	1705.22
598.833	1703.17
598.885	1699.57
598.937	1709.65
598.988	1743.05
599.04	1757.19
599.092	1764.51
599.144	1744.78
599.196	1716.11
599.248	1725.75
599.3	1740.75
599.352	1731.48
599.403	1748.3
599.455	1718.99
599.507	1703.9
599.559	1728.82
599.611	1702.22
599.663	1686.12
599.715	1692.49
599.766	1700.45
599.803	1706.02
599.855	1666.12
599.907	1731.84
599.959	1703.91
600.011	1765.29
600.063	1715.59
600.115	1747.6
600.167	1710.19
600.219	1719.84
600.271	1731.7
600.323	1740.89
600.375	1729.04
600.427	1694.27
600.479	1717.32
600.531	1712.25
600.583	1746.75
600.635	1731.45
600.686	1738.56
600.738	1692.14
600.79	1773.01
600.842	1745.1
600.894	1710.22
600.946	1728.8
600.998	1750.26
601.05	1698.99
601.102	1745.68
601.154	1710.91
601.206	1735.08
601.258	1738.05
601.31	1715.65
601.362	1732.41
601.414	1719.89
601.466	1758.49
601.518	1738.55
601.57	1725.07
601.622	1736.74
601.674	1715.75
601.726	1758.24
601.778	1739.68
601.83	1701.5
601.882	1722.07
601.934	1757.33
601.986	1744.18
602.038	1731.38
602.09	1741.31
602.142	1755.51
602.194	1727.81
602.246	1711.09
602.298	1750.58
602.35	1751.59
602.402	1746.38
602.454	1772.5
602.506	1764.92
602.558	1766.19
602.61	1781.61
602.662	1744.43
602.714	1759.44
602.766	1777.3
602.818	1736.61
602.87	1745.79
602.922	1724.96
602.974	1728.05
603.026	1765.52
603.078	1762.22
603.13	1767.93
603.182	1748.61
603.234	1774.31
603.285	1832.87
603.337	1757.56
603.389	1758.2
603.441	1777.61
603.493	1779.59
603.545	1726.97
603.597	1788.41
603.649	1767.32
603.701	1811.18
603.753	1784.8
603.805	1799.47
603.857	1776.67
603.909	1794.2
603.961	1781.96
604.013	1797.66
604.065	1848.89
604.117	1794.94
604.169	1803.55
604.221	1830.23
604.273	1827.6
604.325	1797.81
604.377	1804.96
604.429	1800.05
604.481	1811.43
604.533	1844.11
604.584	1811.48
604.636	1782.95
604.688	1807.91
604.74	1839.21
604.792	1829.85
604.844	1809.83
604.896	1815.97
604.948	1822.51
605	1849.54
605.052	1806.14
605.104	1812.05
605.156	1810.45
605.208	1825.73
605.26	1837.58
605.312	1806.65
605.364	1830.88
605.416	1822.61
605.468	1800.12
605.52	1786.11
605.572	1824.08
605.623	1802.46
605.675	1819.12
605.727	1802.26
605.779	1794.36
605.831	1780.79
605.883	1814.62
605.935	1811.9
605.987	1802.62
606.039	1796.75
606.091	1813.99
606.143	1813.04
606.195	1830.08
606.247	1818.77
606.299	1785.41
606.351	1800.53
606.403	1780.61
606.455	1805.05
606.506	1793.4
606.558	1817.44
606.61	1795.05
606.662	1831.4
606.714	1796.81
606.766	1817.88
606.818	1814.12
606.87	1823.84
606.922	1806.75
606.974	1819.89
607.026	1807.44
607.078	1801.44
607.13	1811.23
607.182	1805.51
607.234	1780.53
607.285	1800.54
607.337	1814.63
607.389	1810.03
607.441	1816.13
607.493	1801.1
607.545	1814.57
607.597	1806.62
607.649	1837.78
607.701	1843.27
607.753	1823.43
607.805	1834.32
607.857	1804.79
607.909	1828.16
607.96	1841.07
608.012	1841.99
608.064	1823.09
608.116	1855.29
608.168	1814.65
608.22	1832.26
608.272	1870.96
608.324	1892.78
608.376	1844.11
608.428	1848.76
608.48	1871.57
608.532	1857.41
608.583	1837.84
608.635	1853.66
608.687	1866.93
608.739	1879.8
608.791	1884.62
608.843	1855.89
608.895	1891.58
608.947	1884.44
608.999	1877.53
609.051	1873.73
609.103	1891.76
609.155	1882.92
609.206	1877.33
609.258	1880.02
609.31	1879.77
609.362	1890.64
609.414	1872.41
609.466	1884.51
609.518	1903.7
609.57	1901.27
609.622	1898.53
609.674	1906.44
609.725	1904.79
609.777	1917.44
609.829	1891.44
609.881	1909.61
609.933	1888.54
609.985	1894.46
610.037	1943.95
610.089	1909.28
610.141	1877.82
610.193	1923.55
610.245	1943.61
610.296	1914.29
610.348	1947.46
610.4	1934.84
610.452	1950.1
610.504	1927.39
610.556	1927.03
610.608	1924.68
610.66	1932.48
610.712	1917.43
610.763	1917.73
610.815	1942.2
610.867	1930.99
610.919	1922.75
610.971	1963.26
611.023	1986.26
611.075	1971.87
611.127	1947.06
611.179	1953.47
611.23	1943.91
611.282	1948.46
611.334	1961.48
611.386	1955.15
611.438	1964.39
611.49	1952.49
611.542	1982.11
611.594	1970.23
611.646	1951.85
611.697	1955.23
611.749	1943.95
611.801	1937.27
611.853	1947.6
611.905	1978.18
611.957	1954.59
612.009	1974.11
612.061	1963.37
612.113	1947.66
612.164	1994.56
612.216	1986.19
612.268	1987.29
612.32	1986.4
612.372	1987.27
612.424	1975.69
612.476	1972.98
612.528	1993.39
612.579	1981.64
612.631	1990.73
612.683	1988.96
612.735	2001.42
612.787	2003.14
612.839	2001.27
612.891	1996.95
612.943	2003.14
612.994	2015.83
613.046	2011.11
613.098	1998.1
613.15	2021.81
613.202	2025.25
613.254	2006.93
613.306	2027.61
613.357	2050.49
613.409	2021.6
613.461	2038.63
613.513	2041.02
613.565	2021.65
613.617	2052.97
613.669	2034.81
613.721	2064.71
613.772	2062.23
613.824	2057.21
613.876	2090.48
613.928	2061.85
613.98	2079.72
614.032	2068.79
614.084	2064.14
614.135	2063.41
614.187	2063.4
614.239	2084.64
614.291	2068.38
614.343	2054.65
614.395	2104.52
614.447	2098.88
614.498	2098.13
614.55	2095.22
614.602	2105.54
614.654	2101.27
614.706	2104.06
614.758	2111.35
614.81	2112.94
614.861	2101.96
614.913	2128.4
614.965	2112.61
615.017	2115.13
615.069	2092.97
615.121	2122.74
615.172	2140.99
615.224	2145.49
615.276	2139.55
615.328	2153.85
615.38	2136.69
615.432	2150.06
615.484	2171.81
615.535	2190.68
615.587	2156.69
615.639	2145.54
615.691	2165.9
615.743	2179.13
615.795	2169.86
615.846	2150.32
615.898	2147.94
615.95	2183.44
616.002	2155.85
616.054	2184.97
616.106	2193.96
616.158	2212.46
616.209	2180.97
616.261	2222.26
616.313	2202.9
616.365	2195.51
616.417	2199.43
616.469	2204.19
616.52	2230.04
616.572	2222.56
616.624	2207.11
616.676	2225.82
616.728	2257.81
616.78	2242.76
616.831	2225.11
616.883	2226.09
616.935	2237.61
616.987	2235.95
617.039	2216.99
617.091	2243.36
617.142	2232.02
617.194	2261.79
617.246	2231.02
617.298	2254.03
617.35	2257.01
617.401	2247.77
617.453	2271.96
617.505	2262.42
617.557	2265.56
617.609	2259.06
617.661	2266.83
617.712	2283.23
617.764	2306.92
617.816	2288.53
617.868	2259.83
617.92	2281.82
617.972	2284.19
618.023	2314.02
618.075	2318.78
618.127	2316.35
618.179	2303.3
618.231	2328.68
618.282	2328.37
618.334	2329.86
618.386	2356.65
618.438	2346.76
618.49	2331.19
618.542	2330.38
618.593	2352.33
618.645	2352.11
618.697	2334.44
618.749	2330.87
618.801	2341.41
618.852	2373.07
618.904	2345.49
618.956	2383.93
619.008	2364.26
619.06	2349.35
619.111	2356.44
619.163	2380.7
619.215	2357.93
619.267	2355.53
619.319	2363.85
619.37	2380.47
619.422	2416.05
619.474	2396.02
619.526	2398.04
619.578	2416.8
619.63	2402.47
619.681	2420.74
619.733	2391.39
619.785	2407.03
619.837	2426.93
619.888	2432.66
619.94	2476.53
619.992	2439.83
620.044	2427.93
620.096	2414.89
620.147	2439
620.199	2455.44
620.251	2426.66
620.303	2412.88
620.355	2421.42
620.406	2443.81
620.458	2460.37
620.51	2452.79
620.562	2476.88
620.614	2449.63
620.665	2453.46
620.717	2421.53
620.769	2478.55
620.821	2472.22
620.873	2454.43
620.924	2455.62
620.976	2437.59
621.028	2471.2
621.08	2481.76
621.132	2482.95
621.183	2503.67
621.235	2527.27
621.287	2493.46
621.339	2434.4
621.39	2438.98
621.442	2477.25
621.494	2516.92
621.546	2514.17
621.598	2448.08
621.649	2450.7
621.701	2450.62
621.753	2522.61
621.805	2471.57
621.856	2481.11
621.908	2508.84
621.96	2522.92
622.012	2495.59
622.064	2481.59
622.115	2471.94
622.167	2515.74
622.219	2462.07
622.271	2522.91
622.322	2461.74
622.374	2452.24
622.426	2511.73
622.478	2530.17
622.53	2536.14
622.581	2510.18
622.633	2528.46
622.685	2535.33
622.737	2529.15
622.788	2506.58
622.84	2530.48
622.892	2462.55
622.944	2512.52
622.995	2498.22
623.047	2523.44
623.099	2526.31
623.151	2489.91
623.203	2513.2
623.254	2520.73
623.306	2523.72
623.358	2514.93
623.41	2545.58
623.461	2505.9
623.513	2542.92
623.565	2502.66
623.617	2538.32
623.668	2579.69
623.72	2531.36
623.772	2549.14
623.824	2513.4
623.875	2550.89
623.927	2588.52
623.979	2525.09
624.031	2520.51
624.082	2530.93
624.134	2517.05
624.186	2527.94
624.238	2534.33
624.289	2539.11
624.341	2564.52
624.393	2529.68
624.445	2559.08
624.496	2524
624.548	2515.3
624.6	2536.61
624.652	2565.75
624.703	2607.16
624.755	2544.67
624.807	2581.55
624.859	2538.67
624.91	2585.54
624.962	2549.09
625.014	2607.36
625.066	2601.05
625.117	2577.64
625.169	2579.53
625.221	2558.81
625.273	2544.73
625.324	2621.19
625.376	2538.1
625.428	2520.11
625.48	2566.94
625.531	2586.55
625.583	2566.5
625.635	2562.32
625.687	2600.82
625.738	2579.22
625.79	2548.81
625.842	2642.6
625.893	2603.83
625.945	2635.37
625.997	2583.37
626.049	2566.35
626.1	2611.64
626.152	2642.28
626.204	2646.12
626.256	2611.03
626.307	2660.32
626.316	2671.36
626.368	2639.23
626.42	2609.5
626.472	2623.61
626.523	2652.47
626.575	2641.25
626.627	2591.42
626.679	2658.51
626.731	2627.37
626.783	2677.48
626.835	2646.61
626.887	2673.69
626.938	2681.51
626.99	2686.19
627.042	2620.04
627.094	2644.54
627.146	2663.49
627.198	2658.99
627.25	2657.34
627.302	2641.75
627.353	2727.28
627.405	2646.71
627.457	2673.92
627.509	2687.74
627.561	2674.38
627.613	2641.77
627.665	2666.31
627.716	2637.81
627.768	2673.24
627.82	2672.05
627.872	2662.3
627.924	2672.06
627.976	2693.79
628.028	2667.42
628.079	2686.28
628.131	2771.27
628.183	2646.1
628.235	2706.37
628.287	2657.42
628.339	2651.68
628.391	2746.46
628.443	2712.97
628.494	2718.26
628.546	2708.21
628.598	2727.95
628.65	2690.68
628.702	2735.8
628.754	2727.39
628.805	2720.2
628.857	2713.48
628.909	2743.52
628.961	2722.38
629.013	2731.24
629.065	2716.26
629.117	2712.34
629.168	2720.62
629.22	2757.84
629.272	2810.77
629.324	2733.61
629.376	2765.99
629.428	2768.97
629.479	2746.52
629.531	2756.62
629.583	2776.32
629.635	2781.9
629.687	2776.64
629.739	2762.52
629.791	2757.89
629.842	2770.37
629.894	2767.99
629.946	2787.16
629.998	2739.61
630.05	2766.77
630.102	2791.19
630.153	2787.21
630.205	2810.19
630.257	2796.28
630.309	2827.24
630.361	2799.59
630.413	2818.24
630.464	2812.26
630.516	2804.54
630.568	2832.82
630.62	2812.19
630.672	2794.45
630.724	2838.27
630.776	2802.01
630.827	2803.01
630.879	2834.24
630.931	2867.65
630.983	2831.47
631.035	2846.7
631.086	2824.07
631.138	2837.16
631.19	2863.6
631.242	2894.4
631.294	2868.47
631.346	2915.94
631.397	2881.63
631.449	2913.16
631.501	2888.1
631.553	2882.31
631.605	2874.79
631.657	2895.89
631.708	2920.39
631.76	2902.83
631.812	2908.61
631.864	2904.52
631.916	2861.22
631.967	2905.16
632.019	2935.69
632.071	2891.36
632.123	2923.94
632.175	2892.53
632.227	2958.75
632.278	2925.49
632.33	2919.39
632.382	2986.57
632.434	2940.25
632.486	2948.64
632.537	2945.32
632.589	2945.8
632.641	2974.96
632.693	2951.39
632.745	2951.87
632.797	2972.06
632.848	2971.86
632.9	3001.69
632.952	2980.08
633.004	2955.85
633.056	2989.86
633.107	3012.12
633.159	3020.85
633.211	2999.65
633.263	3002.77
633.315	3016.21
633.366	3044.05
633.418	3053.82
633.47	3034.16
633.522	3033.23
633.574	3089.65
633.625	3069.81
633.677	3031.89
633.729	3050.36
633.781	3071.42
633.833	3031.54
633.885	3073.96
633.936	3070.66
633.988	3083.97
634.04	3074.42
634.092	3103.1
634.143	3064.3
634.195	3117.43
634.247	3139.54
634.299	3133.66
634.351	3071
634.403	3131.68
634.454	3125.42
634.506	3115.92
634.558	3094.08
634.61	3146.83
634.661	3170.77
634.713	3181.8
634.765	3186.05
634.817	3129.1
634.869	3180.6
634.92	3177.4
634.972	3176.65
635.024	3186.81
635.076	3227.57
635.128	3189.89
635.179	3176.31
635.231	3246.66
635.283	3210.69
635.335	3258.27
635.387	3241
635.438	3269.98
635.49	3214.53
635.542	3257.02
635.594	3286.52
635.645	3288.71
635.697	3316.57
635.749	3310.08
635.801	3378.16
635.853	3344.79
635.904	3373.31
635.956	3380.88
636.008	3383.32
636.06	3405.95
636.112	3433.82
636.163	3436.52
636.215	3454.59
636.267	3460.04
636.319	3473.27
636.37	3453.21
636.422	3550.98
636.474	3522.76
636.526	3549.75
636.577	3600.44
636.629	3583.21
636.681	3624.09
636.733	3671.82
636.785	3650.35
636.836	3760.21
636.888	3707.42
636.94	3747.73
636.992	3773.58
637.043	3847.02
637.095	3834.28
637.147	3856.23
637.199	3892.22
637.25	3934.91
637.302	3962.99
637.354	3973.56
637.406	4048.1
637.458	4095.03
637.509	4134.11
637.561	4141.65
637.613	4216.53
637.665	4279.7
637.716	4292.87
637.768	4341.45
637.82	4393.14
637.872	4424.27
637.923	4456.96
637.975	4476.97
638.027	4468.82
638.079	4534.47
638.13	4538.02
638.182	4574.42
638.234	4601.81
638.286	4611.21
638.337	4604.85
638.389	4646.05
638.441	4612.84
638.493	4683.6
638.544	4656.42
638.596	4630.45
638.648	4624.05
638.7	4638.86
638.752	4627.82
638.803	4601.16
638.855	4559.4
638.907	4612.35
638.958	4538.34
639.01	4555.05
639.062	4480.12
639.114	4468.73
639.165	4471.68
639.217	4491.61
639.269	4437.68
639.321	4424.33
639.372	4377.56
639.424	4347.82
639.476	4361.5
639.528	4317.83
639.579	4281.18
639.631	4280.21
639.683	4211.57
639.735	4234.36
639.786	4167.62
639.838	4150.85
639.89	4130.31
639.942	4140.64
639.993	4123.39
640.045	4091.84
640.097	4116.42
640.149	4122.42
640.2	4064.89
640.252	4026.46
640.304	4015.46
640.356	4013.29
640.407	4002.05
640.459	3998.86
640.511	3994.84
640.562	3917.99
640.614	3962.97
640.666	3938.13
640.718	3945.78
640.769	3915.27
640.821	3886.72
640.873	3877.89
640.925	3915.5
640.976	3879.44
641.028	3873.75
641.08	3860.6
641.131	3886.41
641.183	3871.58
641.235	3860.58
641.287	3877.01
641.338	3847.77
641.39	3836.25
641.442	3869.28
641.494	3825.16
641.545	3862.24
641.597	3843.03
641.649	3836.7
641.7	3830.07
641.752	3863.94
641.804	3846.49
641.856	3844.81
641.907	3810.54
641.959	3801.31
642.011	3808.75
642.063	3778.94
642.114	3760.86
642.166	3801.99
642.218	3850.74
642.269	3797.86
642.321	3808.37
642.373	3803.6
642.424	3792.37
642.476	3788.93
642.528	3791.35
642.58	3839.49
642.631	3853.79
642.683	3834.41
642.735	3827.04
642.786	3805.88
642.838	3846.21
642.89	3805.04
642.942	3824.99
642.993	3785.45
643.045	3813.06
643.097	3866.48
643.148	3827.28
643.2	3883.4
643.252	3821.07
643.304	3865.04
643.355	3889.98
643.407	3857.21
643.459	3849.97
643.51	3854.74
643.562	3870.86
643.614	3822.87
643.665	3851.19
643.717	3858.26
643.769	3831.53
643.82	3837.99
643.872	3866.24
643.924	3885.79
643.976	3886.25
644.027	3897.51
644.079	3833.47
644.131	3865.51
644.182	3865.86
644.234	3869.32
644.286	3841.27
644.337	3842.78
644.389	3896.36
644.441	3948.51
644.493	3896.08
644.544	3876.5
644.596	3866.48
644.648	3872.8
644.699	3890.93
644.751	3915.26
644.803	3870.58
644.854	3953.38
644.906	3900.81
644.958	3930.02
645.009	3905.94
645.061	3906.87
645.113	3900.47
645.164	3899.31
645.216	3925.98
645.268	3932.18
645.32	3904.88
645.371	3943.26
645.423	3914.2
645.475	3947.62
645.526	3954.87
645.578	3931.81
645.63	3957.86
645.681	3936.1
645.733	3954.3
645.785	3926.37
645.836	3903.65
645.888	3972.71
645.94	3937.95
645.991	3965.24
646.043	4022.6
646.095	3933.83
646.146	3956.87
646.198	3984.3
646.25	3986
646.301	3979.41
646.353	4000.95
646.405	3973.18
646.456	3986.01
646.508	3951.43
646.56	3955.25
646.611	4034.4
646.663	4004.58
646.715	3991.28
646.766	3986.38
646.818	4047.12
646.87	4030.65
646.921	4032.8
646.973	3993.56
647.025	4031.33
647.076	4064.15
647.128	4038.34
647.18	4029.74
647.231	4062.66
647.283	4067.11
647.335	4033.59
647.386	4032.94
647.438	4014.22
647.49	4011.11
647.541	4080.58
647.593	4018.34
647.645	4020.74
647.696	4081.59
647.748	4061.48
647.8	4044.41
647.851	4059.9
647.903	4106.35
647.955	4059.26
648.006	4069.29
648.058	4092.04
648.109	4002.47
648.161	4019.82
648.213	4100.24
648.264	4152.37
648.316	4143.85
648.368	4130.54
648.419	4153.58
648.471	4145.87
648.523	4153.77
648.574	4102.67
648.626	4111.41
648.678	4142.13
648.729	4113.34
648.781	4126.42
648.833	4149.88
648.884	4152.13
648.936	4167.03
648.987	4175.73
649.039	4208.4
649.091	4217.15
649.142	4167.01
649.194	4164.94
649.246	4151.16
649.297	4162.13
649.349	4169.25
649.401	4192.82
649.452	4195.69
649.504	4213.73
649.555	4232.02
649.607	4228.62
649.659	4251.22
649.71	4254.26
649.762	4209.81
649.814	4191.04
649.865	4181.07
649.917	4273.01
649.969	4267.2
650.02	4226.45
650.072	4270.11
650.123	4251.22
650.175	4295.06
650.227	4302.88
650.278	4321.95
650.33	4290.05
650.382	4323.62
650.433	4351.87
650.485	4351.04
650.536	4296.5
650.588	4260.13
650.64	4314.23
650.691	4361.26
650.743	4357.33
650.795	4347.87
650.846	4332.72
650.898	4354.47
650.949	4347.09
651.001	4385.16
651.053	4345.25
651.104	4397.28
651.156	4345.06
651.208	4399.55
651.259	4397.05
651.311	4395.32
651.362	4437.19
651.414	4438.11
651.466	4421.76
651.517	4397.95
651.569	4439.19
651.62	4389.26
651.672	4418.36
651.724	4460.91
651.775	4416.84
651.827	4410.04
651.878	4447.53
651.93	4474.85
651.982	4502.06
652.033	4446.31
652.085	4378.34
652.137	4464.05
652.188	4504.94
652.24	4472.52
652.291	4497.19
652.343	4466.91
652.395	4484.86
652.446	4487.18
652.498	4484.24
652.549	4466.19
652.601	4479.61
652.653	4500.5
652.704	4502.21
652.756	4515.01
652.772	4521.54
652.824	4553.7
652.876	4521.66
652.927	4430.49
652.979	4565.46
653.031	4602.17
653.083	4605.29
653.134	4593.12
653.186	4579.6
653.238	4607.53
653.29	4637.53
653.341	4521.38
653.393	4523.39
653.445	4562.09
653.497	4549.5
653.548	4639.28
653.6	4642.79
653.652	4613.64
653.704	4610.3
653.755	4582.9
653.807	4682
653.859	4692.36
653.91	4630.56
653.962	4684.92
654.014	4706.95
654.066	4731.4
654.117	4735.53
654.169	4698.36
654.221	4641.37
654.273	4717.34
654.324	4686.35
654.376	4715.45
654.428	4705.48
654.48	4728.74
654.531	4751.49
654.583	4714.04
654.635	4819.45
654.686	4769.64
654.738	4787.26
654.79	4765.94
654.842	4856.94
654.893	4835.08
654.945	4797.11
654.997	4801.82
655.049	4865.82
655.1	4773.08
655.152	4871.67
655.204	4859.36
655.255	4873.87
655.307	4897.21
655.359	4909.05
655.411	4900.54
655.462	4867.54
655.514	4957.64
655.566	4975.35
655.618	4985.33
655.669	4970.62
655.721	4929.67
655.773	4985.91
655.824	4965.08
655.876	5066.82
655.928	4980.65
655.98	4900.52
656.031	5058.81
656.083	5080.61
656.135	5040.57
656.186	5015.23
656.238	5111.46
656.29	5077.24
656.342	5118.76
656.393	5006.5
656.445	5119.86
656.497	5128.28
656.548	5087.53
656.6	5125.95
656.652	5171.56
656.704	5136.96
656.755	5171.46
656.807	5207.03
656.859	5140.54
656.91	5175.82
656.962	5204.45
657.014	5218.55
657.065	5187.13
657.117	5225.36
657.169	5255.1
657.221	5220.51
657.272	5212.96
657.324	5217.27
657.376	5295.43
657.427	5216.41
657.479	5242.9
657.531	5254.2
657.583	5279.06
657.634	5269.81
657.686	5294.91
657.738	5254.9
657.789	5318.98
657.841	5305.08
657.893	5348.1
657.944	5367.35
657.996	5297.86
658.048	5374.93
658.099	5368.23
658.151	5420.19
658.203	5480.89
658.255	5425.3
658.306	5415.44
658.358	5430.18
658.41	5407.28
658.461	5467.41
658.513	5359.3
658.565	5423.03
658.616	5382.42
658.668	5465.71
658.72	5404.88
658.771	5454.2
658.823	5494.77
658.875	5453.88
658.927	5429.97
658.978	5423.87
659.03	5454.99
659.082	5449.37
659.133	5464.15
659.185	5520.44
659.237	5462.8
659.288	5451.43
659.34	5487.7
659.392	5526.32
659.443	5491.36
659.495	5505.42
659.547	5534.19
659.598	5502.77
659.65	5532.6
659.702	5473.58
659.753	5553.11
659.805	5493.05
659.857	5596.25
659.909	5550.18
659.96	5594.63
660.012	5500.57
660.064	5540.89
660.115	5538.78
660.167	5513.1
660.219	5508.77
660.27	5528.91
660.322	5539.22
660.374	5585.05
660.425	5542.27
660.477	5585.77
660.529	5508.19
660.58	5546.75
660.632	5548.61
660.684	5565.56
660.735	5533.02
660.787	5583.19
660.839	5560.9
660.89	5583.82
660.942	5618.16
660.994	5528.56
661.045	5542.84
661.097	5531.97
661.149	5536.54
661.2	5613.74
661.252	5451.65
661.304	5555.65
661.355	5541.14
661.407	5542.36
661.459	5607.08
661.51	5516.82
661.562	5541.03
661.614	5537.34
661.665	5553.85
661.717	5540.93
661.768	5572.82
661.82	5546.11
661.872	5550.71
661.923	5530.44
661.975	5526.7
662.027	5593.05
662.078	5571.17
662.13	5565.22
662.182	5544.17
662.233	5566.76
662.285	5532.63
662.337	5627.32
662.388	5595.36
662.44	5564.3
662.492	5621.75
662.543	5598.2
662.595	5566.98
662.647	5533.11
662.698	5537.05
662.75	5615.49
662.802	5579.92
662.853	5548.51
662.905	5554.99
662.956	5582.78
663.008	5568.05
663.06	5616.81
663.111	5526.97
663.163	5518.78
663.215	5588.46
663.266	5571.06
663.318	5636.06
663.37	5546.06
663.421	5574.72
663.473	5553.54
663.525	5568.54
663.576	5570.54
663.628	5572.17
663.679	5572.85
663.731	5584
663.783	5562.49
663.834	5570.7
663.886	5548.72
663.938	5576.33
663.989	5608
664.041	5558.91
664.093	5582.23
664.144	5572.19
664.196	5549.64
664.247	5614.86
664.299	5596.09
664.351	5554.94
664.402	5588.56
664.454	5567.16
664.506	5540.02
664.557	5573.53
664.609	5587.88
664.66	5578.52
664.712	5522.92
664.764	5524.27
664.815	5546.08
664.867	5534.89
664.919	5599.05
664.97	5607.85
665.022	5535.59
665.073	5595.28
665.125	5551.88
665.177	5565.17
665.228	5565.68
665.28	5592.85
665.332	5598.86
665.383	5543.15
665.435	5581.24
665.486	5516.09
665.538	5566.33
665.59	5552.12
665.641	5554.4
665.693	5566.77
665.745	5544.4
665.796	5544.48
665.848	5548.73
665.899	5523.82
665.951	5496.99
666.003	5561.71
666.054	5583.28
666.106	5556.93
666.157	5520.35
666.209	5554.1
666.261	5503.67
666.312	5536.49
666.364	5553.64
666.415	5560.42
666.467	5529.44
666.519	5545.21
666.57	5548.67
666.622	5580.63
666.673	5536.16
666.725	5533.78
666.777	5555.35
666.828	5517.81
666.88	5535.04
666.931	5543.64
666.983	5560.31
667.035	5559.3
667.086	5560.35
667.138	5513.29
667.189	5518.24
667.241	5532.6
667.293	5545.56
667.344	5563.5
667.396	5515.53
667.447	5494.12
667.499	5490.88
667.551	5447.25
667.602	5514.57
667.654	5518.62
667.705	5479.71
667.757	5515.12
667.809	5509.55
667.86	5503.09
667.912	5538.91
667.963	5576.71
668.015	5538.6
668.067	5481.63
668.118	5502.61
668.17	5480.12
668.221	5499
668.273	5509.65
668.325	5531.3
668.376	5540.18
668.428	5477
668.479	5531.18
668.531	5522.61
668.582	5496.71
668.634	5530.69
668.686	5493.87
668.737	5429.01
668.789	5514.31
668.84	5536.26
668.892	5513.51
668.944	5475.67
668.995	5555.97
669.047	5541.38
669.098	5511.12
669.15	5499.32
669.201	5520.76
669.253	5541.44
669.305	5504.35
669.356	5520.49
669.408	5472.4
669.459	5552.98
669.511	5522
669.562	5476.27
669.614	5528.24
669.666	5484.6
669.717	5490.34
669.769	5479.19
669.82	5494.77
669.872	5474.18
669.923	5481.12
669.975	5512.52
670.027	5547.64
670.078	5522.37
670.13	5497.85
670.181	5492.81
670.233	5447.5
670.284	5453.76
670.336	5520.81
670.388	5515.81
670.439	5478.64
670.491	5510.32
670.542	5449.01
670.594	5485.3
670.645	5454.79
670.697	5505.89
670.748	5494.17
670.8	5484.82
670.852	5541.45
670.903	5465.6
670.955	5478.96
671.006	5478.96
671.058	5470.6
671.109	5535.66
671.161	5531.23
671.212	5525.55
671.264	5508.87
671.316	5502.69
671.367	5487.26
671.419	5527.7
671.47	5518.42
671.522	5435.99
671.573	5439.09
671.625	5487.04
671.676	5483.42
671.728	5459.45
671.78	5490.79
671.831	5493.76
671.883	5468.91
671.934	5506.22
671.986	5487.53
672.037	5464.85
672.089	5521.67
672.14	5505.97
672.192	5510.48
672.243	5539.56
672.295	5539.29
672.347	5544.46
672.398	5492.43
672.45	5489.45
672.501	5505.09
672.553	5511.89
672.604	5557.47
672.656	5540.69
672.707	5533.64
672.759	5551.6
672.81	5547.35
672.862	5524.66
672.913	5571.43
672.965	5582.38
673.017	5566.81
673.068	5554.06
673.12	5566.58
673.171	5613.89
673.223	5630.66
673.274	5625.95
673.326	5568.9
673.377	5583.3
673.429	5550.86
673.48	5577.31
673.532	5628.87
673.583	5609.68
673.635	5628.77
673.686	5638.19
673.738	5623.81
673.789	5645.98
673.841	5668.37
673.893	5638.54
673.944	5633.38
673.996	5647.34
674.047	5635.56
674.099	5689.03
674.15	5660.64
674.202	5668.96
674.253	5655.36
674.305	5706
674.356	5748.46
674.408	5733.56
674.459	5764.24
674.511	5720.83
674.562	5748.9
674.614	5699.24
674.665	5723.03
674.717	5715.51
674.768	5715.8
674.82	5767.17
674.871	5779.76
674.923	5757.87
674.974	5691.32
675.026	5782.13
675.077	5820.57
675.129	5795.04
675.18	5747.19
675.232	5816.97
675.284	5841.2
675.335	5780.08
675.387	5807.74
675.438	5771.49
675.49	5753.41
675.541	5823.78
675.593	5833.5
675.644	5847.46
675.696	5835.49
675.747	5814.03
675.799	5832.32
675.85	5829.68
675.902	5800.79
675.953	5820.26
676.005	5839.61
676.056	5813.54
676.108	5794.5
676.159	5769.94
676.211	5776.85
676.262	5797.57
676.314	5827.78
676.365	5843.09
676.417	5846.79
676.468	5841.68
676.52	5871.04
676.571	5857.15
676.623	5877.52
676.674	5879.99
676.726	5856.85
676.777	5800.15
676.828	5800.24
676.88	5831.94
676.932	5834.97
676.983	5846.58
677.034	5818.94
677.086	5845.44
677.137	5851.75
677.189	5827.66
677.24	5809.07
677.292	5805.46
677.343	5819.86
677.395	5818.72
677.446	5853.07
677.498	5890.08
677.549	5882.79
677.601	5868.81
677.652	5881.69
677.704	5845.24
677.755	5837.53
677.807	5823.9
677.858	5798.74
677.91	5820.75
677.961	5832.87
678.013	5875.35
678.064	5898.92
678.116	5860.27
678.167	5858.49
678.219	5869.53
678.27	5810.27
678.322	5802.53
678.373	5861.16
678.424	5808.48
678.476	5792.53
678.527	5871.43
678.579	5897.34
678.63	5891.16
678.682	5866.31
678.733	5783.57
678.785	5749.39
678.836	5811.14
678.888	5842.87
678.939	5859.56
678.991	5880.04
679.042	5848.35
679.094	5845.88
679.122	5918.18
679.173	5945.92
679.225	5864.37
679.277	5769.48
679.328	5827.6
679.38	5914.75
679.432	5884.35
679.483	5832.66
679.535	5925.5
679.586	5863.88
679.638	5889.03
679.69	5832.75
679.741	5867.28
679.793	5873.78
679.844	5901.25
679.896	5855.39
679.948	5824.83
679.999	5921.49
680.051	5910.92
680.103	5891.73
680.154	5880.3
680.206	5872.3
680.257	5910.69
680.309	5941.53
680.361	5896.8
680.412	5879.5
680.464	5936.26
680.515	5930.79
680.567	5929.9
680.619	5861.97
680.67	5865.94
680.722	6030.57
680.773	5926.25
680.825	6022.66
680.877	5936.76
680.928	5928.72
680.98	5959.77
681.031	5997.82
681.083	6006.95
681.135	5994.58
681.186	5970.02
681.238	6014.51
681.289	5969.28
681.341	6024.32
681.393	6014.6
681.444	6014.29
681.496	5962.45
681.547	5984.14
681.599	5983.12
681.651	5972.23
681.702	5965.57
681.754	6022.73
681.805	5980.16
681.857	6071.07
681.909	6035.1
681.96	6081.74
682.012	6050.3
682.063	6042.54
682.115	5969.66
682.166	6065.5
682.218	6039.35
682.27	6063.79
682.321	6112.1
682.373	6142.55
682.424	6044.02
682.476	6075.75
682.528	6071.69
682.579	6042.58
682.631	6092
682.682	6143.64
682.734	6062.48
682.785	6086.21
682.837	6092.97
682.889	6054.52
682.94	6044.14
682.992	6079.35
683.043	6038.78
683.095	6142.54
683.146	6152.48
683.198	6070.28
683.25	6021.27
683.301	6077.04
683.353	6050.07
683.404	6075.5
683.456	6005.58
683.508	6038.4
683.559	6022.84
683.611	6009.65
683.662	6086.21
683.714	6120.05
683.765	6044.58
683.817	6070.32
683.869	6063.72
683.92	6050.92
683.972	5984.6
684.023	6065.61
684.075	6078.02
684.126	6033.74
684.178	6070.71
684.229	5999.94
684.281	6057.07
684.333	6042.22
684.384	6012.95
684.436	6019.2
684.487	6094.25
684.539	6047.23
684.59	6107.77
684.642	6006.43
684.694	6101.84
684.745	6062.84
684.797	6112.77
684.848	6056.65
684.9	6029.85
684.951	5993.4
685.003	6066.41
685.055	6036.1
685.106	5986.43
685.158	6051.24
685.209	5982.01
685.261	5973.61
685.312	5983.99
685.364	5974.13
685.415	5964.06
685.467	5968.73
685.518	5968.7
685.57	5983.01
685.622	5986.64
685.673	5996.88
685.725	6049.78
685.776	5910.56
685.828	6008.07
685.879	5974.54
685.931	5969.67
685.982	5956.73
686.034	6049.5
686.086	5959.42
686.137	5956.26
686.189	5988.42
686.24	6020.41
686.292	5966.55
686.343	5983
686.395	5892.45
686.446	5962.15
686.498	5978.05
686.549	5971.48
686.601	5968.17
686.652	5997.53
686.704	5982.53
686.756	5929.35
686.807	5928.89
686.859	5984.15
686.91	6010.56
686.962	5900.3
687.013	5915.01
687.065	5888.66
687.116	5929
687.168	5899.69
687.219	5900.82
687.271	5941.97
687.322	5945.34
687.374	5897.57
687.426	5964.93
687.477	5972.8
687.529	5951.73
687.58	5934.19
687.632	5900.45
687.683	5900.21
687.735	5881.12
687.786	5926.09
687.838	5948.39
687.889	5911.41
687.941	5964.11
687.992	5907.2
688.044	5925.67
688.095	5880.67
688.147	5916.53
688.198	5960.9
688.25	5925.49
688.302	5853.94
688.353	5923.68
688.405	5893.41
688.456	5857.56
688.508	5885.74
688.559	5904.7
688.611	5897.66
688.662	5861.29
688.714	5906.75
688.765	5938.04
688.817	5905.5
688.868	5904.18
688.92	5964.42
688.971	5909.38
689.023	5894.21
689.074	5947.1
689.126	5906.79
689.177	5868.56
689.229	5927.22
689.28	5825.27
689.332	5847.11
689.383	5852.95
689.435	5864.53
689.486	5867.6
689.538	5880.92
689.589	5913.64
689.641	5888.02
689.692	5863.3
689.744	5891.36
689.795	5864.08
689.847	5842.75
689.898	5855.92
689.95	5850.94
690.001	5840.64
690.053	5844.14
690.104	5827.21
690.156	5859.88
690.207	5866.32
690.259	5774.8
690.31	5910.53
690.362	5931.28
690.413	5833.77
690.465	5813.97
690.516	5844.48
690.568	5816.07
690.619	5853.59
690.671	5856.19
690.722	5844.01
690.774	5893.6
690.825	5856.37
690.877	5853.77
690.928	5845.63
690.98	5827.16
691.031	5817.16
691.083	5800.27
691.134	5811.4
691.186	5776.28
691.237	5795.48
691.289	5819.04
691.34	5775.21
691.392	5748.31
691.443	5803.19
691.495	5810.82
691.546	5817.03
691.598	5815.58
691.649	5797.58
691.701	5804.79
691.752	5715.17
691.804	5789.93
691.855	5758.11
691.907	5779.14
691.958	5759.74
692.01	5772.47
692.061	5735.29
692.113	5718.06
692.164	5728.92
692.216	5725.41
692.267	5731.41
692.319	5699.18
692.37	5706.24
692.421	5691.29
692.473	5696.41
692.524	5734.78
692.576	5755.6
692.627	5708.71
692.679	5738.87
692.73	5669.98
692.782	5707.45
692.833	5747.12
692.885	5717.69
692.936	5668.31
692.988	5638.77
693.039	5689.05
693.091	5685.47
693.142	5699.31
693.194	5675.59
693.245	5690.21
693.297	5659.93
693.348	5660.1
693.399	5694.69
693.451	5679.38
693.502	5618.94
693.554	5605.39
693.605	5699.05
693.657	5621.35
693.708	5594.95
693.76	5622.56
693.811	5637.19
693.863	5594.65
693.914	5634.79
693.966	5610.12
694.017	5654.68
694.068	5633.6
694.12	5604.52
694.171	5662.55
694.223	5602.89
694.274	5665.34
694.326	5621.15
694.377	5626.29
694.429	5574.52
694.48	5597.79
694.532	5573.55
694.583	5580.18
694.634	5624.84
694.686	5640.35
694.737	5650.56
694.789	5618.22
694.84	5565.59
694.892	5561.69
694.943	5603.49
694.995	5582.98
695.046	5608.37
695.097	5562.69
695.149	5558.3
695.2	5591.35
695.252	5620.7
695.303	5621.49
695.355	5557.81
695.406	5559.7
695.458	5564.07
695.509	5607.71
695.56	5592.53
695.612	5537.05
695.663	5564.82
695.715	5546.76
695.766	5519.18
695.818	5540.26
695.869	5542.74
695.921	5513.33
695.972	5551.7
696.023	5516.8
696.075	5533.91
696.126	5561.26
696.178	5578.53
696.229	5510.35
696.281	5487.25
696.332	5535.45
696.383	5547.74
696.435	5493.14
696.486	5498.34
696.538	5496.46
696.589	5519.02
696.641	5537.72
696.692	5537.19
696.744	5507.33
696.795	5508.42
696.846	5482.71
696.898	5469.55
696.949	5438.44
697.001	5462
697.052	5503.25
697.104	5485.67
697.155	5473.08
697.206	5418.78
697.258	5436.95
697.309	5467.89
697.361	5414.96
697.412	5438.51
697.463	5381.92
697.515	5419.4
697.566	5446.06
697.618	5400.61
697.669	5469.71
697.721	5442.28
697.772	5436.39
697.823	5449.62
697.875	5374.01
697.926	5384.13
697.978	5400.11
698.029	5373.88
698.08	5366.73
698.132	5374.65
698.183	5396.32
698.235	5392.77
698.286	5428.49
698.338	5393.66
698.389	5343.86
698.44	5347.46
698.492	5385.35
698.543	5372.81
698.595	5375.02
698.646	5343.73
698.697	5351.04
698.749	5286.35
698.8	5294.75
698.852	5338.74
698.903	5329.6
698.954	5316.1
699.006	5331.56
699.057	5310.91
699.109	5281.69
699.16	5312.25
699.211	5346.22
699.263	5294.67
699.314	5301.96
699.366	5293.53
699.417	5293.83
699.468	5318.92
699.52	5278.45
699.571	5263.02
699.623	5261.76
699.674	5246.41
699.725	5328.66
699.777	5288.79
699.828	5255.42
699.88	5234.08
699.931	5212.98
699.982	5251.64
700.034	5262.04
700.085	5279.86
700.137	5291.21
700.188	5256.35
700.239	5217.75
700.291	5230.75
700.342	5211.08
700.393	5272.72
700.445	5244.89
700.496	5226.33
700.548	5213.22
700.599	5192.04
700.65	5221.79
700.702	5242.14
700.753	5230.83
700.805	5233.13
700.856	5221.97
700.907	5234.38
700.959	5243.57
701.01	5288.5
701.061	5261.22
701.113	5248.32
701.164	5253.27
701.216	5248.08
701.267	5230.54
701.318	5227.75
701.37	5249.89
701.421	5223.87
701.472	5256.83
701.524	5278.2
701.575	5262.42
701.627	5273.22
701.678	5264.24
701.729	5215.65
701.781	5246.75
701.832	5282.34
701.883	5245.73
701.935	5239.48
701.986	5250.77
702.038	5263.94
702.089	5264.09
702.14	5232.25
702.192	5193.04
702.243	5205.24
702.294	5241.86
702.346	5240.6
702.397	5250.8
702.448	5239.4
702.5	5240.93
702.551	5217.82
702.603	5191.08
702.654	5201.05
702.705	5257.18
702.757	5267.58
702.808	5217.29
702.859	5203.2
702.911	5213.36
702.962	5204.63
703.013	5258.22
703.065	5267.79
703.116	5256.37
703.167	5287.78
703.219	5241.38
703.27	5200.59
703.322	5214.32
703.373	5235.69
703.424	5254.5
703.476	5215.2
703.527	5178.59
703.578	5198.41
703.63	5207.59
703.681	5204.37
703.732	5196.82
703.784	5162.74
703.835	5143.71
703.886	5157.34
703.938	5185.7
703.989	5194.52
704.04	5207.78
704.092	5202.35
704.143	5142.06
704.194	5174.1
704.246	5175.33
704.297	5137.45
704.348	5096.56
704.4	5096.97
704.451	5163.28
704.503	5194.41
704.554	5188.75
704.605	5178.89
704.656	5151.28
704.708	5118.64
704.759	5157.07
704.81	5203.85
704.862	5153.16
704.913	5109.13
704.964	5118.06
705.016	5148.6
705.067	5159.88
705.119	5122.38
705.17	5104.4
705.221	5118.37
705.273	5087.36
705.324	5075.4
705.375	5113.4
705.408	5056
705.459	5074
705.511	5136.03
705.562	5100.28
705.614	5010.93
705.665	5003.02
705.717	5026.61
705.768	5126.01
705.82	5130.38
705.871	5118.39
705.923	5084.93
705.974	5023.43
706.026	5065.21
706.077	5041.68
706.129	5088.33
706.18	4991.05
706.232	5009.29
706.283	5039.86
706.335	4965.98
706.386	5039.09
706.438	5074.85
706.489	5073.47
706.541	4970.79
706.592	5131.98
706.643	4962.87
706.695	4930.08
706.746	5000.94
706.798	4947.72
706.849	4946.08
706.901	5022.54
706.952	4992.12
707.004	5020.24
707.055	4966.19
707.107	4944.21
707.158	4906.64
707.21	4921.96
707.261	4897.92
707.313	4988.26
707.364	4953.36
707.416	4949.18
707.467	4944.78
707.518	4999.45
707.57	4934.46
707.621	4872.33
707.673	4951.44
707.724	4925.72
707.776	4922.9
707.827	4967.39
707.879	4969.16
707.93	4931.26
707.982	4907.74
708.033	4944.57
708.084	4932.63
708.136	4873.81
708.187	4950.75
708.239	4830.65
708.29	4872.21
708.342	4946.91
708.393	4931.22
708.445	4870.46
708.496	4891.9
708.548	4841.34
708.599	4954.67
708.651	4746.25
708.702	4906.61
708.753	4761.86
708.805	4857.51
708.856	4794.81
708.908	4916.06
708.959	4914.81
709.011	4922.63
709.062	4843.58
709.114	4864
709.165	4877.95
709.216	4858.44
709.268	4843.83
709.319	4782.26
709.371	4904.74
709.422	4881.15
709.474	4822.7
709.525	4819.8
709.577	4828.48
709.628	4834.6
709.679	4793.87
709.731	4850.15
709.782	4849.79
709.834	4847.87
709.885	4851.98
709.937	4782.88
709.988	4827.18
710.039	4819.69
710.091	4824.71
710.142	4814.8
710.194	4816.07
710.245	4804.1
710.297	4834.93
710.348	4837.91
710.4	4810.44
710.451	4799.79
710.502	4829.67
710.554	4745.16
710.605	4816.07
710.657	4704.35
710.708	4768.16
710.76	4783.38
710.811	4769.75
710.862	4794.14
710.914	4782.85
710.965	4747.9
711.017	4703.39
711.068	4747.81
711.12	4761.18
711.171	4671.11
711.222	4734.95
711.274	4766.27
711.325	4770.57
711.377	4742.29
711.428	4706.7
711.479	4751.67
711.531	4671.25
711.582	4726.21
711.634	4671.04
711.685	4698.1
711.737	4757.13
711.788	4689.65
711.839	4559.79
711.891	4716.41
711.942	4646.56
711.994	4700.29
712.045	4650.67
712.096	4685.09
712.148	4665.63
712.199	4620.2
712.251	4707.59
712.302	4707.32
712.354	4661.64
712.405	4661.26
712.456	4679.26
712.508	4605.49
712.559	4602.69
712.611	4612.12
712.662	4633.47
712.713	4642.41
712.765	4595
712.816	4588.46
712.868	4632.96
712.919	4609.34
712.97	4568.29
713.022	4571.29
713.073	4555.59
713.125	4576.63
713.176	4573.23
713.227	4549.08
713.279	4530.82
713.33	4571.39
713.382	4560.66
713.433	4545.53
713.484	4566.4
713.536	4512.94
713.587	4520.07
713.639	4538.21
713.69	4537.68
713.741	4567.89
713.793	4441
713.844	4449.11
713.896	4495.54
713.947	4486.13
713.998	4463.76
714.05	4450.12
714.101	4463.08
714.153	4454.33
714.204	4445.57
714.255	4453.8
714.307	4475.41
714.358	4424.77
714.41	4446.45
714.461	4463.46
714.512	4426.12
714.564	4420.92
714.615	4381.44
714.666	4406.93
714.718	4453.14
714.769	4467.33
714.821	4448.07
714.872	4436.11
714.923	4439.04
714.975	4389.81
715.026	4377.19
715.078	4430.93
715.129	4374.05
715.18	4422.3
715.232	4377.43
715.283	4390.27
715.334	4346.77
715.386	4389.52
715.437	4387.39
715.489	4296.7
715.54	4373.45
715.591	4390.8
715.643	4351.96
715.694	4287.76
715.745	4304.89
715.797	4322.27
715.848	4287.24
715.9	4326.01
715.951	4313.58
716.002	4319.32
716.054	4357.82
716.105	4324.12
716.156	4307.17
716.208	4297
716.259	4320.08
716.31	4271.73
716.362	4315.92
716.413	4304.12
716.465	4284.52
716.516	4317.05
716.567	4294.79
716.619	4307.53
716.67	4299.34
716.721	4296.21
716.773	4328.61
716.824	4316.31
716.875	4298.22
716.927	4259.82
716.978	4281.04
717.03	4331.57
717.081	4211.03
717.132	4281.69
717.184	4303.91
717.235	4284.73
717.286	4256.26
717.338	4309.41
717.389	4284.73
717.44	4229.66
717.492	4258.98
717.543	4235.87
717.594	4253.95
717.646	4228.98
717.697	4249.59
717.749	4248.9
717.8	4268.35
717.851	4250.5
717.903	4281.85
717.954	4262.94
718.005	4187.82
718.057	4236.26
718.108	4246.15
718.159	4259.48
718.211	4205.25
718.262	4205.58
718.313	4156.61
718.365	4196.11
718.416	4190
718.467	4219.8
718.519	4169.29
718.57	4194.39
718.621	4214.22
718.673	4171.36
718.724	4178.95
718.775	4184.06
718.827	4128.49
718.878	4195
718.93	4158.58
718.981	4141.63
719.032	4153.51
719.083	4177.06
719.135	4174.62
719.186	4118.64
719.237	4101.8
719.289	4134.24
719.34	4166.84
719.391	4095.75
719.443	4101.36
719.494	4149.18
719.545	4115.49
719.597	4118.4
719.648	4115.2
719.699	4101.97
719.751	4110.41
719.802	4095.52
719.853	4123.28
719.905	4095.6
719.956	4074.89
720.007	4113.42
720.059	4101.62
720.11	4066.73
720.161	4069.27
720.213	4032.64
720.264	4051.4
720.315	4058.7
720.367	4096.11
720.418	4113.72
720.469	4096.02
720.521	4040.53
720.572	4047.65
720.623	4041.86
720.675	4024.01
720.726	4042.27
720.777	4046.82
720.829	3993.77
720.88	4004.15
720.931	4008.98
720.982	4005.76
721.034	3965.3
721.085	4000.76
721.136	3983.05
721.188	3989.89
721.239	3984.81
721.29	4005.73
721.342	3957.23
721.393	3994.75
721.444	4013.04
721.496	4016.78
721.547	3973.78
721.598	3943.97
721.65	3949.79
721.701	3891.77
721.752	3926.58
721.803	3922.03
721.855	3949.75
721.906	3945.27
721.957	3932.13
722.009	3916.2
722.06	3923.55
722.111	3946.23
722.163	3932.71
722.214	3955.63
722.265	3921.85
722.316	3951.2
722.368	3886.78
722.419	3910.99
722.47	3931.08
722.522	3872.45
722.573	3881.53
722.624	3876.11
722.676	3891.37
722.727	3898.17
722.778	3865.82
722.829	3885.12
722.881	3892.95
722.932	3871.45
722.983	3856.95
723.035	3851.31
723.086	3832.21
723.137	3841.16
723.188	3849.08
723.24	3830.53
723.291	3840.35
723.342	3798.84
723.394	3788.54
723.445	3809.42
723.496	3858.78
723.547	3833.26
723.599	3818.32
723.65	3844.41
723.701	3827.37
723.753	3810.63
723.804	3796.77
723.855	3827.82
723.906	3822.93
723.958	3768.53
724.009	3791.14
724.06	3791.21
724.112	3770.48
724.163	3797.55
724.214	3793.61
724.265	3785.89
724.317	3809.8
724.368	3833.41
724.419	3815.12
724.47	3792.82
724.522	3781.79
724.573	3806.25
724.624	3755.5
724.676	3756.36
724.727	3735.23
724.778	3764.82
724.829	3730.79
724.881	3745.79
724.932	3759.66
724.983	3780.35
725.034	3783.33
725.086	3758.66
725.137	3754.9
725.188	3751.45
725.24	3730.56
725.291	3771.19
725.342	3767.95
725.393	3745.61
725.445	3691.6
725.496	3727.28
725.547	3718.53
725.598	3684.83
725.65	3718.32
725.701	3718.92
725.752	3708.35
725.803	3688.85
725.855	3727.9
725.906	3714.21
725.957	3698.18
726.008	3764.77
726.06	3724.1
726.111	3697.72
726.162	3690.18
726.213	3702.36
726.265	3655.17
726.316	3618.97
726.367	3683.38
726.418	3668.76
726.47	3663.63
726.521	3685.63
726.572	3659.23
726.623	3664.24
726.675	3664.23
726.726	3669.55
726.777	3647.73
726.828	3635.44
726.88	3650.31
726.931	3635.72
726.982	3638.82
727.033	3646.81
727.085	3630.5
727.136	3635.66
727.187	3653.12
727.238	3627.36
727.29	3608.38
727.341	3641.11
727.392	3669.43
727.443	3648.37
727.495	3588.86
727.546	3557.5
727.597	3603.5
727.648	3624.18
727.7	3599.72
727.751	3602.42
727.802	3617.83
727.853	3616.31
727.904	3600.19
727.956	3607.99
728.007	3617.89
728.058	3566.56
728.109	3580.37
728.161	3569.37
728.212	3570.14
728.263	3563.4
728.314	3567.89
728.366	3562.68
728.417	3530.31
728.468	3510.81
728.519	3571.81
728.57	3514.91
728.622	3494.62
728.673	3529.03
728.724	3535.36
728.775	3528.27
728.827	3559.79
728.878	3492.26
728.929	3470.17
728.98	3512.16
729.031	3484.94
729.083	3515.26
729.134	3478.56
729.185	3469.9
729.236	3499.29
729.288	3459.59
729.339	3489.79
729.39	3463.56
729.441	3445.58
729.492	3448.66
729.544	3470.95
729.595	3424.62
729.646	3458.24
729.697	3452.07
729.748	3433.41
729.8	3395.83
729.851	3422.76
729.902	3405.84
729.953	3417.83
730.004	3414.17
730.056	3420.66
730.107	3404.76
730.158	3412.45
730.209	3389.95
730.26	3429.74
730.312	3391.7
730.363	3407.36
730.414	3362.58
730.465	3368.25
730.517	3321.52
730.568	3354.43
730.619	3314.96
730.67	3319.13
730.721	3293.92
730.773	3374.15
730.824	3394.04
730.875	3332.94
730.926	3312.79
730.977	3310.46
731.029	3369.79
731.08	3328.91
731.131	3279.13
731.182	3279.07
731.233	3283.28
731.284	3336.25
731.336	3261.19
731.387	3320.36
731.438	3403.98
731.489	3323.08
731.54	3340.44
731.592	3332.43
731.643	3284.36
731.643	3284
731.694	3248
731.746	3276
731.797	3272.12
731.848	3278.47
731.9	3334.49
731.951	3275.1
732.002	3326.6
732.054	3279.03
732.105	3319.16
732.156	3277.45
732.208	3265.93
732.259	3220.95
732.311	3223.48
732.362	3292.42
732.413	3325.5
732.465	3261.54
732.516	3253.57
732.567	3316.71
732.619	3290.76
732.67	3292.36
732.721	3208.37
732.773	3292.46
732.824	3294.53
732.875	3289.48
732.927	3274.72
732.978	3300.25
733.029	3277.11
733.081	3274.66
733.132	3283.88
733.183	3286.58
733.235	3244.21
733.286	3260.32
733.337	3274.12
733.389	3292.07
733.44	3268.61
733.491	3276.17
733.543	3280.73
733.594	3276.87
733.645	3305.35
733.697	3233.63
733.748	3298.34
733.799	3295.39
733.851	3326.96
733.902	3305.63
733.953	3276.6
734.005	3341.92
734.056	3264.4
734.107	3309.8
734.158	3366.92
734.21	3335.75
734.261	3323.32
734.312	3288.62
734.364	3313.9
734.415	3370.41
734.466	3342.95
734.518	3299.79
734.569	3328.14
734.62	3359.71
734.672	3326.51
734.723	3293.04
734.774	3317.28
734.826	3350.95
734.877	3344.41
734.928	3355.56
734.98	3319.82
735.031	3359.04
735.082	3426.64
735.133	3380.61
735.185	3381.18
735.236	3418.24
735.287	3396.03
735.339	3441.06
735.39	3406.09
735.441	3428.86
735.493	3413.01
735.544	3403.2
735.595	3471.69
735.647	3490.8
735.698	3509.9
735.749	3466.24
735.8	3422.17
735.852	3482.02
735.903	3438.06
735.954	3448.21
736.006	3505.36
736.057	3517.65
736.108	3539.46
736.16	3583.31
736.211	3574.64
736.262	3523.66
736.313	3587.76
736.365	3538.63
736.416	3622.35
736.467	3643.3
736.519	3583.34
736.57	3703.94
736.621	3674.36
736.673	3663.26
736.724	3662.8
736.775	3668.84
736.826	3690.05
736.878	3743.69
736.929	3707.51
736.98	3769.15
737.032	3744.71
737.083	3815.05
737.134	3808.75
737.185	3814.97
737.237	3844.92
737.288	3794.9
737.339	3831.34
737.391	3869.49
737.442	3907.74
737.493	3885.63
737.544	3909.5
737.596	3919.54
737.647	3908.71
737.698	3949.44
737.75	3908.19
737.801	3976.36
737.852	3956.67
737.903	3933.88
737.955	3968.44
738.006	3979.16
738.057	3941.01
738.109	3975.96
738.16	4008.95
738.211	3997.96
738.262	3971.67
738.314	4040.45
738.365	4019.91
738.416	3974.2
738.468	3998.87
738.519	3987.71
738.57	3973.75
738.621	3972.84
738.673	3972.82
738.724	3992
738.775	3951.1
738.826	3918.51
738.878	3949.06
738.929	3906.02
738.98	3942.22
739.031	3941.8
739.083	3911.79
739.134	3877.63
739.185	3846.16
739.237	3867.94
739.288	3816.68
739.339	3834.65
739.39	3782.38
739.442	3785.83
739.493	3753.96
739.544	3772.77
739.595	3757.28
739.647	3687.6
739.698	3707.59
739.749	3716.88
739.8	3655.73
739.852	3636
739.903	3666.43
739.954	3627.76
740.005	3533.47
740.057	3625.28
740.108	3529.18
740.159	3566.45
740.211	3547.25
740.262	3542.54
740.313	3494.49
740.364	3475.41
740.416	3474.46
740.467	3477.3
740.518	3440.16
740.569	3405.57
740.621	3439.06
740.672	3408.01
740.723	3394.59
740.774	3389.87
740.826	3363.87
740.877	3392.51
740.928	3314.63
740.979	3316.96
741.031	3317.66
741.082	3326.3
741.133	3302.23
741.184	3275.09
741.235	3323.85
741.287	3247.95
741.338	3297.76
741.389	3261.6
741.44	3273.84
741.492	3220.26
741.543	3213.03
741.594	3206.82
741.645	3196.51
741.697	3208.56
741.748	3191.3
741.799	3167.84
741.85	3166.97
741.902	3161.93
741.953	3144.82
742.004	3127.45
742.055	3141.73
742.107	3107.65
742.158	3132.31
742.209	3132.74
742.26	3102.92
742.311	3108.84
742.363	3089.4
742.414	3108.12
742.465	3059.44
742.516	3065.69
742.568	3060.84
742.619	3043.29
742.67	3023.85
742.721	3064.59
742.773	3029.7
742.824	3060.24
742.875	3032.59
742.926	3023.03
742.977	2951.48
743.029	2967.65
743.08	2981.31
743.131	2961.08
743.182	2976.92
743.234	2953.3
743.285	2967.07
743.336	2958.31
743.387	2967.24
743.438	2945.46
743.49	2915.15
743.541	2922.39
743.592	2925.8
743.643	2909.23
743.694	2933.08
743.746	2912.88
743.797	2938.82
743.848	2923.56
743.899	2936.56
743.951	2914.42
744.002	2894.32
744.053	2899.95
744.104	2905.91
744.155	2894.74
744.207	2899.62
744.258	2884.64
744.309	2908.19
744.36	2867.84
744.411	2872.94
744.463	2857.23
744.514	2824.03
744.565	2809.23
744.616	2823.35
744.667	2832.17
744.719	2823.49
744.77	2802.43
744.821	2844.83
744.872	2851.91
744.923	2856.45
744.975	2826.4
745.026	2814.26
745.077	2809.39
745.128	2776.05
745.179	2774.01
745.231	2813.12
745.282	2780.18
745.333	2775.57
745.384	2734.45
745.435	2778.11
745.487	2802.7
745.538	2748.31
745.589	2738.83
745.64	2772.43
745.691	2765.15
745.743	2770.81
745.794	2745.5
745.845	2763.62
745.896	2753.42
745.947	2755.93
745.998	2774.34
746.05	2762.25
746.101	2754.22
746.152	2726.59
746.203	2726.36
746.254	2692.23
746.306	2722.07
746.357	2739.7
746.408	2697.24
746.459	2729.83
746.51	2700.27
746.562	2723.57
746.613	2702.44
746.664	2678.05
746.715	2705.08
746.766	2670.62
746.817	2686.97
746.869	2676.09
746.92	2683.96
746.971	2709.14
747.022	2664.99
747.073	2681.24
747.125	2649.12
747.176	2654.76
747.227	2664.29
747.278	2691.83
747.329	2645.26
747.38	2627.19
747.432	2637.07
747.483	2647.31
747.534	2624.28
747.585	2627.93
747.636	2627.7
747.687	2629.54
747.739	2647.38
747.79	2671.62
747.841	2645.64
747.892	2630.92
747.943	2621.84
747.994	2639.69
748.046	2619.3
748.097	2631.32
748.148	2631.4
748.199	2634.21
748.25	2643.36
748.301	2634.14
748.352	2634.62
748.404	2628.41
748.455	2638.91
748.506	2612.52
748.557	2580.35
748.608	2546.88
748.659	2579.5
748.711	2604.6
748.762	2601.82
748.813	2626.45
748.864	2606.45
748.915	2579.23
748.966	2580.72
749.018	2606.95
749.069	2576.48
749.12	2572.62
749.171	2567.33
749.222	2577.5
749.273	2575.86
749.324	2541.16
749.376	2532.23
749.427	2574.84
749.478	2584.6
749.529	2575.95
749.58	2566.94
749.631	2569.05
749.682	2558.83
749.734	2556.93
749.785	2541.98
749.836	2559.54
749.887	2564.53
749.938	2536.11
749.989	2521.28
750.04	2528.96
750.092	2541.89
750.143	2542.42
750.194	2518.52
750.245	2507.35
750.296	2530.87
750.347	2535.84
750.398	2528.94
750.45	2502.05
750.501	2520.87
750.552	2538.34
750.603	2521.53
750.654	2520.75
750.705	2513.21
750.756	2516.86
750.807	2504.56
750.859	2513.11
750.91	2495.81
750.961	2512.25
751.012	2516.99
751.063	2481.18
751.114	2473.68
751.165	2441.4
751.216	2493.72
751.268	2465.61
751.319	2459.98
751.37	2477.24
751.421	2455.36
751.472	2482.57
751.523	2506.81
751.574	2476.27
751.625	2455.51
751.677	2457.87
751.728	2450.92
751.779	2442.6
751.83	2448.89
751.881	2403.42
751.932	2422.15
751.983	2424.71
752.034	2430.8
752.086	2388.24
752.137	2441.97
752.188	2481.36
752.239	2424.48
752.29	2390.89
752.341	2436.66
752.392	2410.62
752.443	2378
752.494	2374.85
752.546	2409.65
752.597	2421.2
752.648	2428.83
752.699	2403.74
752.75	2372.1
752.801	2407.16
752.852	2385.74
752.903	2384.86
752.954	2388.65
753.005	2375.69
753.057	2376
753.108	2352.86
753.159	2349.97
753.21	2379.88
753.261	2352.75
753.312	2378.58
753.363	2380.15
753.414	2347.44
753.465	2311.22
753.516	2362.39
753.568	2349.51
753.619	2334.49
753.67	2354.5
753.721	2365
753.772	2343.26
753.823	2380.75
753.874	2350.7
753.925	2315.96
753.976	2307.26
754.027	2322.94
754.079	2352.8
754.13	2279.86
754.181	2304.17
754.232	2335.33
754.283	2351.07
754.334	2315.97
754.385	2304.22
754.436	2289.38
754.487	2259.99
754.538	2313.99
754.589	2325.98
754.641	2303.34
754.692	2330.57
754.743	2309.41
754.794	2306.67
754.845	2309.3
754.896	2250.25
754.947	2257.73
754.998	2266.99
755.049	2250.99
755.1	2241.63
755.151	2293.86
755.202	2245.86
755.253	2228.66
755.305	2255.04
755.356	2267.14
755.407	2278.95
755.458	2256.61
755.509	2287.71
755.56	2216.28
755.611	2234.68
755.662	2217.72
755.713	2250.75
755.764	2263.87
755.815	2270.54
755.866	2252.36
755.917	2224.05
755.968	2230.07
756.02	2204.35
756.071	2261.55
756.122	2243.03
756.173	2244
756.224	2200.79
756.275	2248.4
756.326	2229.06
756.377	2219.39
756.428	2266.68
756.479	2174.51
756.53	2218.58
756.581	2220.55
756.632	2184.96
756.683	2172.11
756.734	2177.11
756.785	2198.44
756.837	2207.08
756.888	2211.96
756.939	2188.96
756.99	2179.5
757.041	2200.3
757.092	2185.01
757.143	2149.53
757.194	2180.08
757.245	2143.07
757.296	2174.62
757.347	2149.47
757.398	2172.4
757.449	2118.75
757.5	2147.88
757.551	2143.38
757.602	2143.91
757.653	2161.18
757.704	2133.84
757.755	2118.45
757.807	2096.28
757.858	2124
757.909	2120.07
757.917	2118
757.968	2122.03
758.02	2152.07
758.071	2112.12
758.122	2167.67
758.173	2060.6
758.224	2110.38
758.276	2126.49
758.327	2128.39
758.378	2085.07
758.429	2090.63
758.48	2131.36
758.532	2171.31
758.583	2123.11
758.634	2097.66
758.685	2083.61
758.736	2075.43
758.788	2094.59
758.839	2098.32
758.89	2084.93
758.941	2090.08
758.992	2109.4
759.044	2111.09
759.095	2060.7
759.146	2074.87
759.197	2078.4
759.248	2090.41
759.3	2050.54
759.351	2069.94
759.402	2035.34
759.453	2047.45
759.504	2069.2
759.556	2043.01
759.607	2096.41
759.658	2078.6
759.709	2050.37
759.76	2055.82
759.811	2010.29
759.863	2086.17
759.914	2079.4
759.965	2056.74
760.016	2004.6
760.067	2040.9
760.119	2047.24
760.17	1987.49
760.221	2018.7
760.272	1991.57
760.323	2002.32
760.375	2021.08
760.426	1992.56
760.477	2010.27
760.528	1954.69
760.579	1961.48
760.63	2005.71
760.682	2008.57
760.733	2002.24
760.784	1977.4
760.835	2008.63
760.886	1981.6
760.937	1992.32
760.989	2029.06
761.04	2011.99
761.091	1981.05
761.142	1991.67
761.193	1973.83
761.245	1945.27
761.296	1956.95
761.347	1974.76
761.398	1953.54
761.449	1943.4
761.5	1982.5
761.552	1997.37
761.603	1944.25
761.654	1954.62
761.705	1940.13
761.756	1959.76
761.807	1930.7
761.859	1975.01
761.91	1976.48
761.961	1937.43
762.012	1979.43
762.063	1941.22
762.114	1911.61
762.165	1972.96
762.217	1960.2
762.268	1898.58
762.319	1972.03
762.37	1924.66
762.421	1923.94
762.472	1943.74
762.524	1937.57
762.575	1949.58
762.626	1915.3
762.677	1912.38
762.728	1903.61
762.779	1942.61
762.831	1912.17
762.882	1937.07
762.933	1926.17
762.984	1917.14
763.035	1903.09
763.086	1871.08
763.137	1893.29
763.189	1878.69
763.24	1867.15
763.291	1918.68
763.342	1893.68
763.393	1888.6
763.444	1875.54
763.495	1889.43
763.547	1865.68
763.598	1909.28
763.649	1866.13
763.7	1872.94
763.751	1888.65
763.802	1892.63
763.853	1832.9
763.905	1869.28
763.956	1825.49
764.007	1894.59
764.058	1850.23
764.109	1892.41
764.16	1875.16
764.211	1851.23
764.263	1860.56
764.314	1865.67
764.365	1865.7
764.416	1817.72
764.467	1841.19
764.518	1864.64
764.569	1826.85
764.621	1816.39
764.672	1835.34
764.723	1840.4
764.774	1857.09
764.825	1830.45
764.876	1846.05
764.927	1832.77
764.978	1827.39
765.03	1865.87
765.081	1834.35
765.132	1844.95
765.183	1850.49
765.234	1853.71
765.285	1836.73
765.336	1789.77
765.387	1831.17
765.439	1824.07
765.49	1827.08
765.541	1794.78
765.592	1809.42
765.643	1821.2
765.694	1804.34
765.745	1805.43
765.796	1809.32
765.848	1793.39
765.899	1808.92
765.95	1828.59
766.001	1793.69
766.052	1827.76
766.103	1761.47
766.154	1812.02
766.205	1793.82
766.256	1785.16
766.308	1763.8
766.359	1789.83
766.41	1743.57
766.461	1749.31
766.512	1765.75
766.563	1757.67
766.614	1779.99
766.665	1763.89
766.716	1769.62
766.768	1768.23
766.819	1760.84
766.87	1752.18
766.921	1750.06
766.972	1710.62
767.023	1772.2
767.074	1736.96
767.125	1737.33
767.176	1741.13
767.227	1740.64
767.279	1767.2
767.33	1723.37
767.381	1771.9
767.432	1741.77
767.483	1719.61
767.534	1721.31
767.585	1723.76
767.636	1720.66
767.687	1762.63
767.739	1726.57
767.79	1705.92
767.841	1717
767.892	1681.93
767.943	1699.49
767.994	1699.03
768.045	1687
768.096	1678.9
768.147	1672.49
768.198	1707.42
768.249	1694.62
768.301	1663.88
768.352	1670.33
768.403	1679.62
768.454	1678.56
768.505	1690.97
768.556	1653.79
768.607	1686.73
768.658	1663.41
768.709	1686.18
768.76	1670.75
768.811	1653.44
768.862	1654.07
768.914	1656.81
768.965	1650.02
769.016	1675.01
769.067	1654.74
769.118	1658.46
769.169	1632.57
769.22	1624.85
769.271	1660.12
769.322	1643.49
769.373	1609.27
769.424	1614.36
769.475	1630.53
769.526	1651.27
769.578	1622.1
769.629	1619.28
769.68	1628.94
769.731	1629.31
769.782	1612.08
769.833	1631.48
769.884	1591.35
769.935	1593.31
769.986	1612.52
770.037	1588.89
770.088	1597.61
770.139	1614.48
770.19	1613.78
770.242	1599.77
770.293	1606.78
770.344	1567.34
770.395	1612.6
770.446	1580.81
770.497	1576.41
770.548	1571.5
770.599	1593.37
770.65	1562.31
770.701	1572.93
770.752	1553.48
770.803	1565.76
770.854	1559.7
770.905	1588.28
770.956	1565.66
771.007	1566.24
771.058	1553.33
771.11	1582.51
771.161	1509.62
771.212	1541.68
771.263	1547.79
771.314	1562.53
771.365	1516.81
771.416	1550.04
771.467	1535.6
771.518	1531.32
771.569	1530.66
771.62	1529.66
771.671	1533.62
771.722	1544.92
771.773	1527.51
771.824	1520.81
771.875	1496.1
771.926	1518.08
771.977	1503.35
772.028	1505.6
772.079	1500.85
772.131	1513.3
772.182	1494.38
772.233	1506.68
772.284	1507.44
772.335	1505.03
772.386	1482.79
772.437	1472.24
772.488	1460.75
772.539	1490.37
772.59	1505.31
772.641	1480.4
772.692	1480.65
772.743	1495.6
772.794	1462.33
772.845	1501.11
772.896	1469.47
772.947	1461.07
772.998	1492.71
773.049	1479.48
773.1	1465.86
773.151	1470.82
773.202	1471.6
773.253	1461.1
773.304	1461.54
773.355	1451.23
773.406	1446.32
773.457	1448.1
773.508	1445.22
773.56	1446.46
773.611	1448.63
773.662	1437.64
773.713	1443.29
773.764	1440.56
773.815	1434.63
773.866	1440.16
773.917	1450.04
773.968	1409.48
774.019	1427.57
774.07	1446.48
774.121	1400.17
774.172	1425.14
774.223	1439.2
774.274	1402.61
774.325	1423.3
774.376	1395.87
774.427	1386.64
774.478	1429.91
774.529	1393.88
774.58	1402.64
774.631	1406.96
774.682	1409.39
774.733	1393.06
774.784	1410.26
774.835	1392.46
774.886	1404.78
774.937	1398.18
774.988	1381.93
775.039	1382.62
775.09	1382.91
775.141	1364.51
775.192	1383.24
775.243	1387.83
775.294	1386.28
775.345	1381.33
775.396	1375.58
775.447	1389.51
775.498	1375.37
775.549	1373.09
775.6	1375.15
775.651	1365.36
775.702	1355.42
775.753	1352.31
775.804	1372.5
775.855	1378.67
775.906	1348.92
775.957	1364.59
776.008	1355.17
776.059	1354.09
776.11	1372.45
776.161	1334.66
776.212	1354.33
776.263	1356.12
776.314	1333.74
776.365	1320
776.416	1307.51
776.467	1324.09
776.518	1319.97
776.569	1329.25
776.62	1329.99
776.671	1321.07
776.722	1321.68
776.773	1327.7
776.824	1311.49
776.875	1311.79
776.926	1334.94
776.977	1342.83
777.028	1329.87
777.079	1303.63
777.13	1312.77
777.181	1308.71
777.232	1280.95
777.283	1292.09
777.334	1302.1
777.385	1297
777.436	1297.79
777.487	1292.82
777.538	1286.59
777.589	1295.22
777.64	1298.81
777.691	1287.08
777.742	1276.65
777.793	1282.81
777.844	1268.84
777.895	1274.19
777.946	1283.26
777.997	1281.45
778.047	1285.69
778.098	1273.92
778.149	1267.29
778.2	1265.81
778.251	1277.95
778.302	1269.41
778.353	1263.65
778.404	1271.25
778.455	1262.04
778.506	1274.5
778.557	1276.17
778.608	1280.52
778.659	1283.39
778.71	1269.82
778.761	1259.74
778.812	1257.17
778.863	1256.8
778.914	1252.78
778.965	1239.96
779.016	1221.93
779.067	1227.49
779.118	1225.68
779.169	1219.75
779.22	1232.73
779.271	1246.02
779.322	1243.74
779.373	1228.7
779.424	1227.23
779.474	1225.05
779.525	1224.25
779.576	1207.39
779.627	1203.82
779.678	1230.89
779.729	1257.96
779.78	1268.23
779.831	1237.55
779.882	1210.77
779.933	1209.08
779.984	1204.83
780.035	1190.78
780.086	1191.47
780.137	1195.57
780.188	1213.82
780.239	1222.4
780.29	1193.9
780.341	1183.8
780.392	1221.38
780.442	1214.16
780.493	1183.81
780.544	1178.5
780.595	1169.59
780.646	1185.96
780.697	1182.38
780.748	1176.24
780.799	1172.49
780.85	1174.65
780.901	1167.13
780.952	1174.58
781.003	1152.3
781.054	1152.87
781.105	1152.63
781.156	1155.77
781.207	1160.09
781.257	1184.16
781.308	1162.6
781.359	1152.92
781.41	1165.85
781.461	1155.87
781.512	1152.09
781.563	1138.8
781.614	1150.13
781.665	1142.69
781.716	1157.24
781.767	1162.39
781.818	1168.61
781.869	1147.95
781.919	1137.37
781.97	1136.09
782.021	1134.68
782.072	1133.45
782.123	1137.29
782.174	1144.94
782.225	1141.24
782.276	1143.47
782.327	1113.27
782.378	1129.64
782.429	1139.48
782.48	1132.17
782.531	1121.18
782.581	1125.65
782.632	1121.77
782.683	1122.43
782.734	1111
782.785	1102.99
782.836	1113.75
782.887	1104.35
782.938	1115.72
782.989	1115.39
783.04	1092.28
783.091	1100.81
783.141	1095.72
783.192	1101.76
783.243	1113.66
783.294	1110.18
783.345	1104.68
783.396	1069.58
783.447	1051.34
783.498	1059.87
783.549	1085.54
783.6	1094.19
783.651	1095.07
783.701	1063.66
783.752	1084.96
783.803	1080.02
783.854	1081.99
783.905	1097.25
783.956	1082.45
784.007	1067.17
784.058	1077.13
784.1	1102
784.151	1054.01
784.202	1091.89
784.253	1097.8
784.304	1035.9
784.355	1065.67
784.406	1091.83
784.458	1054.16
784.509	1040.2
784.56	1059.66
784.611	1044.51
784.662	1047.81
784.713	1047.87
784.764	1044.01
784.815	1024.57
784.866	1038.19
784.917	1005.57
784.968	1012.73
785.019	1052.24
785.07	1057.24
785.121	1046.9
785.172	1049.07
785.223	1068.38
785.274	1062.34
785.326	1033.2
785.377	1083.4
785.428	1038.75
785.479	1015.78
785.53	1024.65
785.581	1055.36
785.632	1051.59
785.683	1042.5
785.734	1051.43
785.785	1020.36
785.836	1003.72
785.887	988.913
785.938	1002.93
785.989	1004.25
786.04	1026.53
786.091	1019.74
786.142	986.357
786.193	992.213
786.244	979.188
786.295	994.349
786.346	1011.19
786.397	1007.09
786.448	990.373
786.5	1000.19
786.551	1001.24
786.602	978.19
786.653	1003.62
786.704	994.989
786.755	975.233
786.806	999.396
786.857	988.154
786.908	929.846
786.959	983.647
787.01	1004.4
787.061	990.312
787.112	957.13
787.163	973.904
787.214	989.833
787.265	1021.58
787.316	958.023
787.367	976.824
787.418	982.463
787.469	983.45
787.52	955.123
787.571	969.054
787.622	939.09
787.673	958.272
787.724	966.418
787.775	966.772
787.826	972.668
787.877	962.822
787.928	975.687
787.979	957.527
788.03	948.348
788.081	940.167
788.132	938.522
788.183	952.787
788.234	916.641
788.285	955.307
788.336	934.607
788.387	942.035
788.438	961.98
788.49	963.182
788.541	972.954
788.591	931.607
788.643	923.777
788.694	942.095
788.745	934.001
788.796	954.821
788.847	936.102
788.898	920.659
788.949	947.829
789	956.739
789.051	926.042
789.102	953.059
789.153	935.219
789.204	934.82
789.255	919.472
789.306	906.2
789.357	903.537
789.408	926.836
789.459	937.865
789.51	927.811
789.561	938.45
789.612	899.706
789.663	913.098
789.714	915.287
789.765	903.234
789.816	896.77
789.867	916.891
789.918	890.273
789.969	909.014
790.02	900.473
790.071	880.436
790.122	894.858
790.173	908.199
790.224	885.73
790.275	904.968
790.326	891.02
790.377	906.128
790.428	884.704
790.479	930.62
790.53	900.227
790.581	894.06
790.632	874.326
790.682	893.268
790.734	901.614
790.784	893.834
790.836	890.316
790.886	882.359
790.937	886.261
790.988	882.933
791.039	870.478
791.09	867.072
791.141	880.746
791.192	867.127
791.243	853.961
791.294	866.261
791.345	863.748
791.396	876.01
791.447	866.197
791.498	875.747
791.549	863.157
791.6	861.24
791.651	844.223
791.702	864.96
791.753	864.638
791.804	867.118
791.855	844.015
791.906	851.098
791.957	847.916
792.008	844.951
792.059	858.651
792.11	860.32
792.161	846.301
792.212	827.456
792.263	845.545
792.314	846.525
792.365	837.109
792.416	845.912
792.467	832.896
792.518	821.199
792.569	821.949
792.62	836.612
792.671	834.361
792.722	843.16
792.773	820.456
792.823	841.042
792.874	844.059
792.925	817.897
792.976	815.477
793.027	851.773
793.078	834.029
793.129	810.282
793.18	843.818
793.231	820.096
793.282	818.81
793.333	821.559
793.384	827.451
793.435	825.95
793.486	824.889
793.537	835.283
793.588	841.8
793.639	811.163
793.69	807.523
793.741	809.739
793.792	810.423
793.843	805.409
793.894	808.891
793.945	817.678
793.995	792.894
794.046	795.813
794.097	800.684
794.148	796.605
794.199	786.324
794.25	800.482
794.301	793.897
794.352	789.188
794.403	805.843
794.454	821.571
794.505	817.85
794.556	797.177
794.607	800.629
794.658	778.19
794.709	805.219
794.76	795.076
794.811	793.245
794.862	789.038
794.912	805.63
794.963	789.968
795.014	798.635
795.065	779.754
795.116	787.075
795.167	790.558
795.218	759.09
795.269	783.56
795.32	795.125
795.371	782.628
795.422	772.308
795.473	754.629
795.524	767.043
795.575	773.068
795.625	775.65
795.676	772.754
795.727	769.358
795.778	763.786
795.829	767.887
795.88	782.678
795.931	770.998
795.982	767.247
796.033	764.485
796.084	768.938
796.135	761.068
796.186	761.737
796.237	754.675
796.287	756.62
796.338	755.556
796.389	735.56
796.44	742.997
796.491	753.618
796.542	737.411
796.593	746.725
796.644	755.166
796.695	749.864
796.746	719.053
796.797	727.082
796.848	732.778
796.898	740.813
796.949	732.049
797	736.562
797.051	742.835
797.102	734.392
797.153	745.153
797.204	732.74
797.255	729.441
797.306	739.421
797.357	731.697
797.408	725.192
797.458	734.321
797.509	728.797
797.56	747.236
797.611	724.345
797.662	728.528
797.713	723.797
797.764	698.307
797.815	714.722
797.866	720.759
797.917	720.129
797.968	728.699
798.018	736.045
798.069	718.599
798.12	721.356
798.171	704.983
798.222	703.62
798.273	713.568
798.324	720.422
798.375	713.618
798.426	703.207
798.477	703.81
798.527	708.304
798.578	716
798.629	712.091
798.68	704.744
798.731	698.405
798.782	699.526
798.833	698.583
798.884	706.751
798.935	714.826
798.985	711.19
799.036	701.563
799.087	684.325
799.138	707.841
799.189	690.115
799.24	690.119
799.291	687.061
799.342	685.199
799.393	687.477
799.443	704.324
799.494	680.423
799.545	672.699
799.596	673.088
799.647	692.941
799.698	691.954
799.749	683.904
799.8	680.896
799.85	689.859
799.901	693.049
799.952	677.448
800.003	673.79
800.054	677.061
800.105	662.533
800.156	685.94
800.207	678.112
800.257	692.323
800.308	673.366
800.359	663.751
800.41	657.829
800.461	665.646
800.512	672.12
800.563	663.178
800.613	664.238
800.664	675.715
800.715	664.894
800.766	663.271
800.817	650.927
800.868	662.154
800.919	660.852
800.97	671.451
801.02	649.379
801.071	657.415
801.122	659.09
801.173	659.223
801.224	645.918
801.275	658.355
801.326	657.725
801.376	656.973
801.427	665.204
801.478	639.202
801.529	651.583
801.58	657.461
801.631	645.646
801.682	652.565
801.732	644.847
801.783	664.37
801.834	658.319
801.885	646.546
801.936	632.807
801.987	640.034
802.038	629.505
802.088	633.253
802.139	635.529
802.19	618.64
802.241	634.804
802.292	610.724
802.343	621.195
802.393	615.22
802.444	618.847
802.495	635.036
802.546	632.227
802.597	632.796
802.648	619.958
802.698	626.244
802.749	600.885
802.8	609.711
802.851	636.529
802.902	618.885
802.953	623.565
803.004	623.149
803.054	614.51
803.105	605.276
803.156	626.029
803.207	617.342
803.258	627.506
803.309	623.21
803.359	606.575
803.41	595.833
803.461	624.695
803.512	612.425
803.563	599.217
803.614	621.299
803.664	612.619
803.715	629.814
803.766	598.984
803.817	615.615
803.868	618.117
803.919	623.363
803.969	619.77
804.02	597.509
804.071	585.783
804.122	589.172
804.173	613.353
804.223	581.897
804.274	602.897
804.325	601.015
804.376	574.11
804.427	597.037
804.478	603.988
804.528	598.393
804.579	592.459
804.63	602.127
804.681	600.63
804.732	584.493
804.782	587.792
804.833	587.406
804.884	580.234
804.935	575.267
804.986	597.935
805.036	588.268
805.087	592.787
805.138	566.274
805.189	580.581
805.24	572.018
805.291	593.351
805.341	592.151
805.392	574.209
805.443	569.785
805.494	596.71
805.545	575.346
805.595	582.907
805.646	589.588
805.697	576.422
805.748	573.822
805.799	578.875
805.849	561.398
805.9	584.086
805.951	560.109
806.002	569.162
806.053	561.206
806.103	561.042
806.154	538.282
806.205	560.077
806.256	559.52
806.307	577.66
806.357	538.485
806.408	558.496
806.459	546.318
806.51	582.861
806.561	563.159
806.611	563.026
806.662	548.463
806.713	550.328
806.764	544.536
806.815	556.882
806.865	538.523
806.916	537.978
806.967	530.826
807.018	520.672
807.068	535.573
807.119	538.976
807.17	554.514
807.221	557.957
807.272	557.413
807.322	555.568
807.373	555.28
807.424	550.011
807.475	541.799
807.526	534.809
807.576	536.983
807.627	540.041
807.678	525.484
807.729	542.923
807.779	527.671
807.83	529.866
807.881	540.123
807.932	544.666
807.982	537.25
808.033	539.673
808.084	546.142
808.135	548.504
808.186	546.394
808.236	533.328
808.287	543.791
808.338	526.795
808.389	535.664
808.439	536.224
808.49	537.333
808.541	550.326
808.592	549.285
808.643	532.991
808.693	523.201
808.744	521.292
808.795	524.334
808.846	541.003
808.896	541.995
808.947	516.392
808.998	541.299
809.049	538.553
809.099	525.083
809.15	540.082
809.201	531.112
809.252	509.76
809.302	529.861
809.353	524.982
809.404	519.229
809.455	522.786
809.505	514.747
809.556	512.304
809.607	522.1
809.658	511.536
809.708	505.554
809.759	500.912
809.81	524.356
809.861	525.028
809.911	532.276
809.962	529.433
810.013	504.538
810.064	510.85
810.114	514.842
810.133	512
810.183	488
810.234	507.992
810.285	502.022
810.336	508.004
810.387	525.855
810.438	499.994
810.489	501.974
810.54	517.81
810.591	486.242
810.642	533.417
810.693	505.823
810.743	498.115
810.794	498.18
810.845	503.865
810.896	482.568
810.947	501.774
810.998	501.591
811.049	501.26
811.1	517.271
811.151	487.886
811.202	506.855
811.253	507.559
811.303	494.237
811.354	504.882
811.405	491.504
811.456	493.382
811.507	494.231
811.558	477.704
811.609	498.263
811.66	489.688
811.711	500.94
811.762	472.08
811.813	493.348
811.863	491.607
811.914	493.072
811.965	488.07
812.016	483.065
812.067	463.437
812.118	476.687
812.169	473.568
812.22	506.653
812.271	508.042
812.321	467.771
812.372	465.836
812.423	469.149
812.474	472.548
812.525	480.334
812.576	482.602
812.627	464.923
812.678	464.395
812.729	464.63
812.779	492.79
812.83	473.912
812.881	461.884
812.932	467.754
812.983	494.201
813.034	483.784
813.085	476.558
813.136	452.561
813.187	480.224
813.237	477.277
813.288	490.221
813.339	467.423
813.39	446.18
813.441	457.751
813.492	456.614
813.543	465.279
813.594	453.581
813.644	459.573
813.695	465.572
813.746	470.64
813.797	452.171
813.848	464.917
813.899	458.284
813.95	468.729
814.001	471.555
814.051	460.708
814.102	463.273
814.153	480.015
814.204	454.83
814.255	458.73
814.306	455.795
814.357	454.342
814.408	442.793
814.458	466.342
814.509	456.941
814.56	441.569
814.611	451.345
814.662	459.185
814.713	452.536
814.764	461.348
814.814	453.819
814.865	439.858
814.916	438.493
814.967	450.419
815.018	451.795
815.069	445.204
815.12	443.722
815.17	440.092
815.221	459.799
815.272	450.587
815.323	458.05
815.374	440.613
815.425	438.201
815.476	434.999
815.526	435.562
815.577	440.624
815.628	435.667
815.679	443.528
815.73	431.4
815.781	444.106
815.832	468.465
815.882	447.284
815.933	434.931
815.984	443.007
816.035	428.56
816.086	427.373
816.137	432.988
816.188	439.357
816.238	436.068
816.289	432.048
816.34	433.057
816.391	431.785
816.442	408.033
816.493	433.768
816.543	442.441
816.594	426.491
816.645	448.432
816.696	423.913
816.747	418.633
816.798	410.132
816.848	429.112
816.899	411.948
816.95	423.467
817.001	423.844
817.052	440.956
817.103	412.728
817.153	413.135
817.204	418.7
817.255	426.862
817.306	413.478
817.357	423.445
817.408	414.002
817.458	442.046
817.509	405.753
817.56	389.058
817.611	415.2
817.662	424.853
817.713	415.193
817.763	419.556
817.814	421.074
817.865	416.611
817.916	419.457
817.967	422.453
818.018	417.84
818.068	406.372
818.119	400.875
818.17	417.863
818.221	394.696
818.272	418.275
818.323	407.71
818.373	427.804
818.424	406.541
818.475	419.089
818.526	414.445
818.577	409.425
818.627	411.574
818.678	408.753
818.729	402.991
818.78	405.048
818.831	403.894
818.881	408.198
818.932	412.705
818.983	401.328
819.034	397.677
819.085	394.094
819.135	414.416
819.186	399.063
819.237	395.053
819.288	390.193
819.339	393.442
819.39	388.961
819.44	378.739
819.491	378.766
819.542	403.595
819.593	397.426
819.644	388.703
819.694	389.431
819.745	385.24
819.796	389.087
819.847	387.957
819.898	382.853
819.948	385.731
819.999	387.349
820.05	399.214
820.101	383.6
820.152	389.66
820.202	387.678
820.253	382.418
820.304	389.158
820.355	380.497
820.406	376.746
820.456	379.606
820.507	374.99
820.558	381.062
820.609	381.613
820.66	373.789
820.71	379.196
820.761	383.617
820.812	380.573
820.863	374.189
820.914	364.067
820.964	372.954
821.015	387.884
821.066	364.092
821.117	380.461
821.167	380
821.218	388.068
821.269	374.551
821.32	366.946
821.371	358.036
821.421	370.614
821.472	372.663
821.523	377.259
821.574	371.132
821.624	361.67
821.675	374.597
821.726	367.003
821.777	380.427
821.828	372.031
821.878	368.874
821.929	365.367
821.98	374.353
822.031	357.566
822.081	361.631
822.132	355.193
822.183	344.796
822.234	355.785
822.285	356.525
822.335	355.884
822.386	368.236
822.437	365.387
822.488	349.399
822.538	355.991
822.589	360.324
822.64	349.382
822.691	365.258
822.741	366.17
822.792	353.721
822.843	357.959
822.894	367.734
822.945	356.445
822.995	350.021
823.046	358.435
823.097	356.265
823.148	343.09
823.198	348.158
823.249	348.908
823.3	349.412
823.351	353.938
823.401	358.474
823.452	338.029
823.503	341.167
823.554	350.922
823.604	355.875
823.655	355.909
823.706	348.409
823.757	346.982
823.807	342.556
823.858	350.847
823.909	341.694
823.96	355.485
824.01	344.847
824.061	349.01
824.112	348.387
824.163	347.521
824.213	340.83
824.264	341.138
824.315	350.047
824.366	332.973
824.416	324.383
824.467	343.257
824.518	348.024
824.569	355.608
824.619	346.977
824.67	352
824.721	344.231
824.772	330.418
824.822	329.682
824.873	347.469
824.924	346.152
824.974	341.863
825.025	340.839
825.076	345.058
825.127	334.364
825.177	350.883
825.228	330.987
825.279	335.35
825.33	339.626
825.38	338.606
825.431	337.775
825.482	333.409
825.533	321.942
825.583	326
825.634	329.978
825.685	329.08
825.735	346.241
825.786	332.269
825.837	323.582
825.888	335.072
825.938	324
825.989	326.302
826.04	334.973
826.091	337.233
826.141	326.11
826.192	328.151
826.243	327.419
826.293	341.363
826.344	320.945
826.395	335.899
826.446	332.269
826.496	324.094
826.547	330.929
826.598	328.528
826.648	314.725
826.699	325.323
826.75	320.149
826.801	322.191
826.851	323.845
826.902	323.982
826.953	317.894
827.003	326.706
827.054	321.818
827.105	318.24
827.156	324.61
827.206	323.508
827.257	322.781
827.308	327.442
827.358	325.913
827.409	323.42
827.46	323.273
827.511	323.335
827.561	316.872
827.612	316.839
827.663	325.476
827.713	323.872
827.764	320.865
827.815	321.795
827.865	316.64
827.916	323.243
827.967	316.896
828.018	316.32
828.068	316.641
828.119	315.716
828.17	307.017
828.22	313.372
828.271	320.783
828.322	307.913
828.372	315.805
828.423	312.224
828.474	318.938
828.525	306.64
828.575	310.235
828.626	312.667
828.677	311.132
828.727	310.438
828.778	309.128
828.829	307.95
828.879	307.932
828.93	310.167
828.981	307.88
829.031	300.17
829.082	304.264
829.133	309.088
829.183	299.662
829.234	308.391
829.285	297.558
829.336	310.977
829.386	313.69
829.437	305.564
829.488	302.089
829.538	299.623
829.589	307.731
829.64	301.678
829.69	297.06
829.741	297.479
829.792	306.259
829.842	300.992
829.893	302.197
829.944	295.84
829.994	301.172
830.045	290.8
830.096	291.137
830.146	294.475
830.197	303.984
830.248	297.644
830.298	295.818
830.349	302.81
830.4	298.545
830.45	300.895
830.501	303.175
830.552	293.443
830.602	292.469
830.653	300.171
830.704	288.407
830.754	292.468
830.805	294.413
830.856	287.075
830.906	296.123
830.957	289.486
831.008	282.384
831.058	272.026
831.109	275.956
831.16	296.938
831.21	296.554
831.261	297.03
831.312	293.396
831.362	290.836
831.413	294.227
831.464	290.529
831.514	292.433
831.565	300.306
831.616	303.75
831.666	299.164
831.717	289.877
831.767	288.863
831.818	279.637
831.869	276.866
831.919	278.732
831.97	286.36
832.021	293.757
832.071	285.69
832.122	284.739
832.173	288.841
832.223	283.144
832.274	286.405
832.325	286.309
832.375	292.287
832.426	294.065
832.477	293.414
832.527	285.34
832.578	277.443
832.628	270.346
832.679	278.567
832.73	292.152
832.78	281.531
832.831	278.46
832.882	285.495
832.932	286.497
832.983	283.826
833.034	276.317
833.084	279.021
833.135	288.124
833.185	288.124
833.236	280.905
833.287	279.023
833.337	283.174
833.388	277.651
833.439	263.638
833.489	271.233
833.54	271.756
833.59	280.372
833.641	282.173
833.692	274.361
833.742	279.366
833.793	271.905
833.844	268.674
833.894	268.458
833.945	264.112
833.995	283.637
834.046	278.759
834.097	264.802
834.147	262.618
834.198	268.565
834.249	274.238
834.299	273.949
834.35	283.99
834.4	284.924
834.451	265.459
834.502	253.579
834.552	254.49
834.603	260.597
834.653	260.577
834.704	262.246
834.755	267.691
834.805	277.894
834.856	283.123
834.906	264.436
834.957	265.48
835.008	265.564
835.058	251.699
835.109	278.163
835.16	269.561
835.21	272.512
835.261	280.429
835.311	270.681
835.362	265.662
835.413	263.255
835.463	274.008
835.514	259.639
835.564	249.121
835.615	261.856
835.666	271.798
835.716	265.732
835.767	273.605
835.817	276.208
835.868	261.317
835.919	254.203
835.969	261.959
836.02	264.554
836.07	274.404
836.121	273.973
836.161	266
836.212	264
836.263	265.99
836.314	249.989
836.365	269.969
836.415	265.913
836.466	258.044
836.517	252.028
836.568	267.796
836.618	260.119
836.669	252.199
836.72	265.866
836.771	271.515
836.821	253.534
836.872	244.239
836.923	257.552
836.974	263.563
837.024	260.138
837.075	260.006
837.126	251.939
837.177	244.313
837.227	242.694
837.278	250.543
837.329	261.117
837.38	264.995
837.43	263.172
837.481	256.175
837.532	259.446
837.583	260.988
837.633	261.327
837.684	247.973
837.735	251.224
837.786	261.244
837.836	258.994
837.887	255.825
837.938	249.468
837.989	255.143
838.039	247.154
838.09	246.136
838.141	254
838.192	243.878
838.242	266.871
838.293	251.151
838.344	244.545
838.395	242.471
838.445	252.461
838.496	270.168
838.547	238.407
838.598	250.623
838.648	240.028
838.699	246.203
838.75	233.344
838.801	256.481
838.851	236.331
838.902	239.795
838.953	250.958
839.003	261.867
839.054	245.201
839.105	245.349
839.156	247.744
839.206	245.612
839.257	253.61
839.308	222.734
839.359	237.058
839.409	241.683
839.46	250.902
839.511	227.264
839.562	247.528
839.612	255.743
839.663	255.68
839.714	235.605
839.764	232.031
839.815	250.173
839.866	251.229
839.917	233.391
839.967	236.11
840.018	239.515
840.069	241.06
840.119	240.268
840.17	244.427
840.221	242.738
840.272	237
840.322	225.151
840.373	227.228
840.424	244.771
840.474	237.325
840.525	227.598
840.576	241.938
840.627	234.593
840.677	248.732
840.728	228.345
840.779	233.444
840.829	251.214
840.88	235.505
840.931	229.841
840.982	251.651
841.032	236.646
841.083	239.611
841.134	221.044
841.184	236.138
841.235	247.125
841.286	232.92
841.337	226.058
841.387	231.273
841.438	226.117
841.489	229.923
841.539	227.73
841.59	219.377
841.641	232.154
841.691	228.448
841.742	231.334
841.793	224.218
841.844	234.276
841.894	228.9
841.945	231.359
841.996	222.666
842.046	237.085
842.097	234.85
842.148	237.858
842.198	222.371
842.249	238.659
842.3	223.387
842.351	228.033
842.401	224.629
842.452	222.061
842.503	225.836
842.553	216.26
842.604	232
842.655	229.113
842.705	222.637
842.756	232.093
842.807	223.749
842.857	228.856
842.908	227.427
842.959	228.888
843.009	230.8
843.06	227.044
843.111	214.292
843.161	231.313
843.212	228.006
843.263	222.228
843.314	212.113
843.364	216.821
843.415	223.799
843.466	228.812
843.516	230.98
843.567	222.445
843.618	228.583
843.668	229.247
843.719	226.457
843.77	220.346
843.82	229.498
843.871	217.838
843.922	210.918
843.972	226.806
844.023	222.827
844.074	223.175
844.124	228.293
844.175	230.647
844.226	220.767
844.276	220.115
844.327	218.557
844.378	215.348
844.428	215.975
844.479	223.462
844.53	221.529
844.58	222.137
844.631	212.869
844.682	213.523
844.732	215.311
844.783	226.946
844.834	215.118
844.884	213.085
844.935	222.216
844.986	223.353
845.036	223.069
845.087	211.621
845.138	215.087
845.188	216.809
845.239	211.046
845.29	214.469
845.34	215.27
845.391	207.452
845.442	216.918
845.492	213.158
845.543	218.974
845.594	217.699
845.644	211.679
845.695	220.149
845.745	209.067
845.796	210.989
845.847	215.497
845.897	210.666
845.948	199.911
845.999	211.889
846.049	214.664
846.1	225.151
846.151	207.235
846.201	207.142
846.252	208.224
846.303	216.747
846.353	210
846.404	211.033
846.455	208.125
846.505	205.712
846.556	203.092
846.606	198.838
846.657	210.063
846.708	205.56
846.758	191.842
846.809	196.467
846.86	205.522
846.91	212.307
846.961	201.015
847.012	198.313
847.062	202.702
847.113	195.109
847.163	200.061
847.214	206.078
847.265	212.041
847.315	204.755
847.366	205.172
847.417	221.222
847.467	211.331
847.518	202.401
847.568	206.642
847.619	192.51
847.67	202.372
847.72	208.507
847.771	217.11
847.822	217.171
847.872	209.788
847.923	197.279
847.973	207.295
848.024	210.976
848.075	196.332
848.125	202.676
848.176	202.02
848.227	213.365
848.277	197.677
848.328	193.948
848.378	186.328
848.429	209.495
848.48	209.615
848.53	200.486
848.581	208.47
848.631	204.881
848.682	187.12
848.733	199.84
848.783	195.527
848.834	199.597
848.885	201.252
848.935	194.487
848.986	202.79
849.036	195.403
849.087	200.745
849.138	193.253
849.188	197.764
849.239	196.737
849.289	205.276
849.34	186.228
849.391	201.017
849.441	196.033
849.492	192.183
849.542	195.956
849.593	189.202
849.644	197.774
849.694	189.88
849.745	196.534
849.795	182.823
849.846	195.205
849.897	190.924
849.947	198.695
849.998	195.776
850.048	201.734
850.099	197.065
850.15	192.151
850.2	191.241
850.251	195.476
850.301	196.883
850.352	183.011
850.403	200.224
850.453	194.173
850.504	189.017
850.554	179.275
850.605	192.558
850.656	186.531
850.706	191.64
850.757	188.069
850.807	196.228
850.858	184.457
850.908	198.545
850.959	188.762
851.01	187.971
851.06	189.01
851.111	191.532
851.161	185.075
851.212	187.528
851.263	188.154
851.313	187.848
851.364	197.601
851.414	188.034
851.465	184.842
851.515	193.067
851.566	184.541
851.617	188.061
851.667	187.774
851.718	190.6
851.768	186.754
851.819	198.023
851.869	186.189
851.92	198.469
851.971	186.504
852.021	190.683
852.072	190.732
852.122	196.893
852.173	176.765
852.223	190.751
852.274	191.376
852.325	186.116
852.375	177.694
852.426	181.782
852.476	190.71
852.527	190.906
852.577	192.13
852.628	187.47
852.678	186.748
852.729	189.731
852.78	181.179
852.83	192.529
852.881	189.788
852.931	196.355
852.982	190.948
853.032	188.726
853.083	179.26
853.133	180.418
853.184	173.613
853.235	186.367
853.285	188.48
853.336	174.371
853.386	183.124
853.437	184.493
853.487	184.179
853.538	181.659
853.588	182.252
853.639	182.3
853.69	179.677
853.74	181.895
853.791	174.277
853.841	178.28
853.892	176.414
853.942	180.847
853.993	173.191
854.043	183.312
854.094	176.25
854.144	180.821
854.195	180.432
854.246	182.694
854.296	173.188
854.347	179.937
854.397	176.805
854.448	176.364
854.498	170.112
854.549	172.3
854.599	167.28
854.65	175.692
854.7	166.917
854.751	168.87
854.801	168.477
854.852	184.601
854.902	173.444
854.953	178.529
855.004	181.457
855.054	174.561
855.105	175.577
855.155	174.324
855.206	166.528
855.256	170.49
855.307	172.916
855.357	169.573
855.408	170.476
855.458	173.429
855.509	167.801
855.559	169.783
855.61	173.036
855.66	171.538
855.711	170.464
855.761	167.579
855.812	172.91
855.862	176.098
855.913	174.971
855.964	173.414
856.014	165.63
856.065	171.562
856.115	174.88
856.166	165.299
856.216	173.868
856.267	171.238
856.317	170.601
856.368	175.4
856.418	169.833
856.469	168.313
856.519	166.663
856.57	165.195
856.62	167.209
856.671	173.07
856.721	169.697
856.772	161.729
856.822	161.095
856.873	160.438
856.923	169.951
856.974	176.694
857.024	171.267
857.075	167.907
857.125	160.658
857.176	162.855
857.226	165.968
857.277	166.858
857.327	171.131
857.378	171.02
857.428	168.564
857.479	166.678
857.529	165.741
857.58	165.994
857.63	165.695
857.681	173.626
857.731	172.16
857.782	163.363
857.832	160.13
857.883	168.884
857.933	164.886
857.984	157.303
858.034	158.011
858.085	164.05
858.135	163.626
858.186	167.097
858.236	172.309
858.287	169.724
858.337	159.194
858.388	157.784
858.438	159.864
858.489	161.478
858.539	164.531
858.589	160.452
858.64	156.993
858.69	165.514
858.741	165.194
858.791	161.008
858.842	156.014
858.892	156.471
858.943	155.309
858.993	162.254
859.044	166.052
859.094	158.421
859.145	159.3
859.195	155.738
859.246	156.078
859.296	159.788
859.347	153.192
859.397	152.119
859.448	160.484
859.498	158.386
859.549	154.033
859.599	160.214
859.649	169.156
859.7	168.984
859.75	155.09
859.801	153.495
859.851	151.756
859.902	157.797
859.952	148.723
860.003	155.378
860.053	165.846
860.104	154.419
860.154	152.767
860.205	162.065
860.255	161.391
860.305	158.424
860.356	157.595
860.406	163.005
860.457	166.551
860.507	155.265
860.558	162.74
860.608	157.769
860.659	156.647
860.709	155.36
860.76	160.242
860.81	159.853
860.861	156.288
860.911	157.444
860.961	155.918
861.012	149.41
861.062	155.315
861.113	149.856
861.163	153.636
861.214	154.662
861.264	160.553
861.315	158.683
861.365	158.918
861.415	150.587
861.466	152.817
861.516	153.685
861.567	152.95
861.617	154.415
861.668	166.028
861.718	153.409
861.769	149.885
861.819	146.859
861.869	163.009
861.92	158.199
861.97	151.971
862.021	152.847
862.071	155.994
862.112	156
862.162	146.003
862.213	147.952
862.263	159.922
862.314	155.956
862.365	148.013
862.415	161.77
862.466	144.122
862.516	152.133
862.567	146.169
862.618	144.288
862.668	155.999
862.719	155.815
862.77	155.737
862.82	163.357
862.871	143.998
862.921	153.731
862.972	146.052
863.023	151.97
863.073	147.975
863.124	151.68
863.174	155.545
863.225	142.226
863.276	151.817
863.326	157.143
863.377	157.087
863.427	151.355
863.478	155.346
863.529	147.556
863.579	145.639
863.63	147.751
863.68	142
863.731	143.804
863.782	140.282
863.832	149.793
863.883	145.926
863.933	157.382
863.984	154.771
864.034	128.874
864.085	158.741
864.136	140.504
864.186	149.901
864.237	151.172
864.287	130.931
864.338	136.611
864.389	149.824
864.439	152.001
864.49	138.742
864.54	136.095
864.591	148.839
864.642	151.012
864.692	145.897
864.743	149.789
864.793	144.626
864.844	156.947
864.894	147.578
864.945	147.652
864.996	136.609
865.046	153.491
865.097	142.84
865.147	148.547
865.198	147.5
865.248	138.643
865.299	147.01
865.35	153.65
865.4	139.348
865.451	137.396
865.501	140.652
865.552	142.781
865.603	151.679
865.653	152.038
865.704	143.244
865.754	136.795
865.805	146.377
865.855	138.507
865.906	137.511
865.956	137.421
866.007	146.791
866.058	152.231
866.108	150.193
866.159	143.929
866.209	136.189
866.26	146.781
866.31	130.92
866.361	132.256
866.412	130.743
866.462	140.83
866.513	131.813
866.563	134.106
866.614	151.166
866.664	137.687
866.715	148.609
866.766	147.639
866.816	155.155
866.867	138.999
866.917	139.439
866.968	145.204
867.018	138.86
867.069	142.08
867.119	143.939
867.17	142.424
867.22	130.796
867.271	134.266
867.322	141.577
867.372	126.832
867.423	134.689
867.473	133.17
867.524	136.725
867.574	145.329
867.625	138.987
867.675	131.955
867.726	142.146
867.776	135.045
867.827	133.903
867.878	140.048
867.928	140.517
867.979	133.116
868.029	149.377
868.08	131.737
868.13	135.802
868.181	140.712
868.231	142.954
868.282	139.352
868.332	138.833
868.383	131.91
868.433	144.988
868.484	135.676
868.535	138.663
868.585	135.745
868.636	142.847
868.686	132.769
868.737	131.091
868.787	130.674
868.838	129.772
868.888	124.553
868.939	140.119
868.989	130.744
869.04	126.385
869.09	134.934
869.141	141.456
869.191	128.881
869.242	126.403
869.292	125.463
869.343	132.792
869.394	133.459
869.444	138.298
869.495	126.399
869.545	128.962
869.596	134.882
869.646	125.86
869.697	137.218
869.747	124.541
869.798	135.513
869.848	130.843
869.899	130.017
869.949	129.508
870	132.17
870.05	130.772
870.101	125.735
870.151	129.731
870.202	133.78
870.252	123.667
870.303	134.255
870.353	138.994
870.404	127.191
870.454	138.297
870.505	119.144
870.555	123.655
870.606	127.285
870.656	128.137
870.707	132.171
870.757	129.293
870.808	131.808
870.858	128.329
870.909	136.825
870.959	129.124
871.01	121.296
871.06	127.499
871.111	126.964
871.161	124.599
871.212	122.9
871.262	116.887
871.313	126.947
871.363	122.559
871.414	122.918
871.464	122.23
871.515	136.782
871.565	127.218
871.616	120.205
871.666	123.858
871.717	127.029
871.767	120.307
871.818	125.206
871.868	132.179
871.919	114.073
871.969	126.733
872.02	120.734
872.07	123.512
872.121	116.835
872.171	124.778
872.222	127.286
872.272	130.64
872.323	125.372
872.373	116.613
872.424	119.689
872.474	122.006
872.525	125.626
872.575	129.603
872.626	123.622
872.676	128.73
872.727	128.62
872.777	123.633
872.828	130.686
872.878	117.481
872.929	116.419
872.979	118.46
873.03	120.514
873.08	127.132
873.13	124.852
873.181	122.171
873.231	117.843
873.282	121.149
873.332	121.946
873.383	128.993
873.433	125.078
873.484	128.048
873.534	121.442
873.585	125.774
873.635	116.887
873.686	118.359
873.736	117.865
873.787	117.876
873.837	123.478
873.888	117.48
873.938	120.623
873.988	129.816
874.039	123.475
874.089	122.083
874.14	115.932
874.19	117.199
874.241	125.847
874.291	115.748
874.342	117.064
874.392	115.255
874.443	114.343
874.493	121.632
874.544	112.114
874.594	125.178
874.644	121.764
874.695	118.234
874.745	116.397
874.796	117.299
874.846	117.802
874.897	124.837
874.947	109.454
874.998	123.839
875.048	129.397
875.099	112.544
875.149	112.549
875.199	114.44
875.25	115.638
875.3	125.371
875.351	119.364
875.401	120.291
875.452	113.031
875.502	118.593
875.553	114.381
875.603	116.653
875.653	122.66
875.704	124.747
875.754	116.218
875.805	117.175
875.855	117.187
875.906	114.746
875.956	116.312
876.006	120.926
876.057	114.698
876.107	123.108
876.158	114.101
876.208	112.159
876.259	115.025
876.309	117.656
876.36	114.121
876.41	114.734
876.46	117.479
876.511	114
876.561	119.036
876.612	113.262
876.662	116.862
876.713	111.242
876.763	121.254
876.813	116.197
876.864	125.74
876.914	115.143
876.965	116.669
877.015	120.625
877.065	113.646
877.116	116.7
877.166	120.65
877.217	116.531
877.267	116.825
877.318	118.828
877.368	112.106
877.418	107.534
877.469	112.144
877.519	109.588
877.57	119.053
877.62	118.697
877.671	113.203
877.721	112.373
877.771	117.217
877.822	115.97
877.872	110.465
877.923	115.465
877.973	113.546
878.023	110.645
878.074	109.347
878.124	108.485
878.175	111.195
878.225	105.554
878.276	112.942
878.326	107.979
878.376	119.73
878.427	116.239
878.477	110.167
878.528	106.096
878.578	108.904
878.628	114.061
878.679	112.087
878.729	106.262
878.78	112.375
878.83	107.292
878.88	111.026
878.931	106.347
878.981	107.809
879.031	107.545
879.082	108
879.132	108.604
879.183	107.361
879.233	111.066
879.284	112.569
879.334	107.816
879.384	109.817
879.435	110.489
879.485	108.501
879.535	108.041
879.586	104.99
879.636	104.735
879.687	116.522
879.737	113.363
879.787	113.899
879.838	109.684
879.888	111.937
879.939	107.617
879.989	109.016
880.039	110.316
880.09	112.996
880.14	114.861
880.19	112.768
880.241	105.683
880.291	109.196
880.342	110.088
880.392	114.281
880.442	110
880.493	108.147
880.543	107.542
880.594	103.244
880.644	104.151
880.694	100.684
880.745	104.117
880.795	104.061
880.845	111.57
880.896	105.091
880.946	103.567
880.996	108.957
881.047	106.161
881.097	102.41
881.148	99.5895
881.198	101.712
881.248	109.987
881.299	99.1778
881.349	102.373
881.399	110.96
881.45	103.408
881.5	101.46
881.551	101.085
881.601	104.305
881.651	107.012
881.702	108.383
881.752	111.04
881.802	112.784
881.853	112.09
881.903	106.963
881.953	105.832
882.004	108.425
882.054	107.918
882.104	105.174
882.155	110.157
882.205	109.226
882.256	102.395
882.306	104.71
882.356	109.037
882.407	105.553
882.457	106.062
882.507	102.471
882.558	98.6488
882.608	102.006
882.658	99.946
882.709	97.5867
882.759	104.423
882.809	111.019
882.86	111.889
882.91	98.2645
882.96	103.195
883.011	100.472
883.061	96.1476
883.111	101.676
883.162	103.079
883.212	97.3784
883.262	95.6245
883.313	102.315
883.363	106.383
883.413	100.313
883.464	108.904
883.514	102.405
883.565	101.743
883.615	104.804
883.665	110.141
883.716	101.382
883.766	106.236
883.816	98.0853
883.867	105.528
883.917	97.2237
883.967	102
884.017	104.814
884.068	103.608
884.118	100.894
884.168	99.8166
884.219	106.272
884.269	106.008
884.319	102.813
884.37	109.76
884.42	100.524
884.47	104.793
884.521	97.3682
884.571	104.598
884.621	101.663
884.672	98.3471
884.722	91.6572
884.772	98
884.823	101.313
884.873	100.263
884.923	88.9482
884.974	105.171
885.024	99.6387
885.074	96.6216
885.125	88.7288
885.175	104.884
885.225	97.4142
885.276	95.769
885.326	94.1834
885.376	103.012
885.426	106.055
885.477	100.178
885.527	94.0643
885.577	101.198
885.628	99.6724
885.678	101.175
885.728	101.138
885.779	101.71
885.829	98.97
885.879	91.7826
885.93	100.167
885.98	95.3151
886.03	99.9313
886.08	95.1313
886.131	96.5191
886.181	101.164
886.231	93.0133
886.282	89.9386
886.332	97.4575
886.382	102.38
886.432	96.0636
886.483	94.5276
886.533	97.5936
886.583	103.851
886.634	94.019
886.684	99.8969
886.734	101.627
886.785	96.8537
886.835	97.5951
886.885	95.2403
886.935	95.9935
886.986	92.2089
887.036	101.347
887.086	93.8727
887.137	93.9747
887.187	97.7556
887.237	91.638
887.287	84.3101
887.338	98.3291
887.388	101.433
887.438	86.9501
887.489	99.4842
887.539	97.8724
887.589	99.5765
887.639	86.2347
887.69	93.7738
887.74	93.747
887.79	107.461
887.841	104.014
887.891	90.3998
887.941	93.8617
887.943	93.9775
887.993	94.1037
888.044	105.873
888.094	95.8967
888.144	94.007
888.195	86.1131
888.245	93.9548
888.296	82.2058
888.346	97.5326
888.397	95.8622
888.447	97.8992
888.498	82.5548
888.548	95.888
888.599	86.4401
888.649	91.5193
888.699	85.2719
888.75	91.7577
888.8	103.131
888.851	91.5737
888.901	95.0806
888.952	95.8282
889.002	82.9847
889.053	95.4573
889.103	86.9579
889.153	93.2191
889.204	100.865
889.254	90.7248
889.305	89.6924
889.355	98.3593
889.406	96.8834
889.456	84.5897
889.507	87.3877
889.557	103.817
889.607	96.1203
889.658	98.889
889.708	88.9356
889.759	97.6888
889.809	89.1053
889.86	92.2622
889.91	74.4399
889.96	85.2874
890.011	97.9634
890.061	95.3811
890.112	84.2832
890.162	97.4338
890.213	100.26
890.263	88.7166
890.313	85.16
890.364	95.2964
890.414	97.3874
890.465	90.8163
890.515	86.7325
890.566	90.4895
890.616	96.9339
890.666	89.3381
890.717	90.4282
890.767	92.7417
890.818	90.261
890.868	87.7963
890.919	84.1019
890.969	84.9192
891.019	95.3793
891.07	92
891.12	83.4157
891.171	85.4997
891.221	84.9426
891.271	86.6877
891.322	88.3045
891.372	95.2215
891.423	91.1139
891.473	86.9135
891.523	82.3027
891.574	85.5744
891.624	93.3496
891.675	87.5081
891.725	87.556
891.776	89.3402
891.826	90.5038
891.876	86.6805
891.927	86.759
891.977	90.3467
892.028	87.9986
892.078	85.4774
892.128	83.6219
892.179	86.8505
892.229	85.7998
892.28	84.8082
892.33	84.0314
892.38	85.2573
892.431	93.5745
892.481	78.4639
892.532	88.8974
892.582	82.5926
892.632	88.9831
892.683	84.2656
892.733	86.6147
892.784	87.9342
892.834	94.6146
892.884	82.9683
892.935	84.834
892.985	89.6032
893.036	90.8364
893.086	83.6639
893.136	83.5841
893.187	91.7758
893.237	87.3485
893.288	81.9909
893.338	91.7553
893.388	80.9548
893.439	83.0056
893.489	86.9253
893.539	90.0933
893.59	89.0617
893.64	81.1186
893.691	84.0324
893.741	88.0944
893.791	92.0254
893.842	87.0153
893.892	82.0881
893.943	81.0507
893.993	85.9734
894.043	79.8913
894.094	73.1014
894.144	87.9855
894.194	91.9964
894.245	83.0072
894.295	85.9758
894.346	87.0085
894.396	77.0845
894.446	87.8551
894.497	73.1449
894.547	82.9565
894.597	88.9034
894.648	86.9468
894.698	76.2717
894.749	82.7717
894.799	78.1812
894.849	74.8804
894.9	81.087
894.95	82.9541
895	82.2971
895.051	84.584
895.101	92.2222
895.151	84.8816
895.202	84.7536
895.252	80.1956
895.303	85.1377
895.353	83.8573
895.403	84.2246
895.454	83
895.504	84.5894
895.554	77.5079
895.605	75.913
895.655	84.6377
895.706	81.1884
895.756	83.9033
895.806	81.3007
895.857	73.9348
895.907	74.6808
895.957	79.2307
896.008	82
896.058	75.8839
896.108	82.7609
896.159	83.2443
896.209	84.1256
896.259	77.1292
896.31	79
896.36	85.4589
896.41	80.8622
896.461	76.9976
896.511	81
896.561	87.5538
896.612	83.5435
896.662	77.1548
896.713	85.8418
896.763	80
896.813	74.1498
896.864	76.8319
896.914	78.314
896.964	80.3483
897.015	78.3551
897.065	70.1802
897.115	76.4456
897.166	78.1874
897.216	80.8102
897.266	75.5797
897.317	86.2261
897.367	80.4034
897.417	80.578
897.468	73.0677
897.518	83.3188
897.568	82.8513
897.619	77
897.669	74.5387
897.719	74.3325
897.77	79.8694
897.82	74.6884
897.87	73.2999
897.921	81.0568
897.971	82.7174
898.021	80.757
898.072	74.9819
898.122	77
898.172	78.2428
898.223	78.2563
898.273	75.2588
898.323	81.2624
898.374	77.7352
898.424	72.5387
898.474	72
898.524	82
898.575	74.8875
898.625	76.2817
898.675	77.2842
898.726	78
898.776	82.7077
898.826	79.1149
898.877	78
898.927	81.6022
898.977	86.4764
899.028	73.3168
899.078	76.8247
899.128	80.3144
899.179	85.7279
899.229	74.9613
899.279	76.9444
899.33	81.3954
899.38	81.6626
899.43	74.6699
899.48	71.9879
899.531	75
899.581	76.3446
899.631	72
899.682	82.896
899.732	80.0629
899.782	80.9262
899.833	75.1693
899.883	71.636
899.933	77.2648
899.984	72.7409
