#Acq. time (s)=	3
#Accumulations=	2
#Range (nm)=	520...900
#Windows=	16
#Auto scanning=	On
#Autofocus=	Off
#AutoExposure=	Off
#Spike filter=	Multiple accum.
#Delay time (s)=	0
#Binning=	1
#Readout mode=	Signal
#DeNoise=	Off
#ICS correction=	Off
#Dark correction=	Off
#Inst. Process=	Off
#Detector temperature (°C)=	-59.98
#Instrument=	LabRAM HR Evol
#Detector=	Syncerity OE
#Objective=	x50_VIS
#Grating=	600 (500nm)
#ND Filter=	10%
#Laser=	514nm_Edge
#Hole=	199.981
#Range=	Auto
#StageXY=	Marzhauser
#StageZ=	Marzhauser
#X (µm)=	-3464.4
#Y (µm)=	-659.6
#Z (µm)=	304.6
#Full time(mm:ss)=	2:39
#Project=	
#Sample=	
#Site=	
#Title=	PL_230124_Amostra_branca_sem_semente_CVD
#Remark=	
#Date=	31.01.2024 11:30
#Acquired=	31.01.2024 11:30:54
520.042	39
520.094	33.1721
520.147	40.9092
520.199	38.0466
520.251	39
520.304	35.0512
520.356	40
520.408	32.1071
520.461	36.7151
520.513	33.1746
520.565	40.8219
520.618	39.0628
520.67	35.1281
520.723	37.8044
520.775	36.0675
520.827	36
520.88	32.2165
520.932	33.8533
520.984	39.9243
521.037	40.0768
521.089	34
521.141	36.9185
521.194	39.752
521.246	38.5099
521.298	35.9139
521.351	37.1791
521.403	39.546
521.455	38
521.508	30.5658
521.56	34.7101
521.612	40.7066
521.665	36.5058
521.717	37.5902
521.769	36.2095
521.822	36
521.874	37.8917
521.926	32.2189
521.979	36.6647
522.031	38.8871
522.083	40.8848
522.136	35.4744
522.188	39.5204
522.24	38.6112
522.293	40.5064
522.345	38.3772
522.397	36
522.45	41.7416
522.502	37.1315
522.554	32.2678
522.607	39.3248
522.659	33.9616
522.711	40.0221
522.764	34.5634
522.816	40.7136
522.868	37.5821
522.921	43.6799
522.973	35.0431
523.025	39.6973
523.078	38.4575
523.13	38.6065
523.182	38.943
523.234	40.681
523.287	38.482
523.339	35.5111
523.391	37.3306
523.444	39.6647
523.496	32.1816
523.548	39.3193
523.601	34.3446
523.653	41.1269
523.705	37.7078
523.758	37.8219
523.81	37.8196
523.862	43
523.915	37.1851
523.967	43.2503
524.019	37.9441
524.072	41.2363
524.124	43.5763
524.176	38.6112
524.229	37.1967
524.281	44.6019
524.333	35.8019
524.385	38.1898
524.438	36.0244
524.49	39.9639
524.542	36.8382
524.595	36.1562
524.647	35.6356
524.699	42.5716
524.752	35.8661
524.804	38.9057
524.856	37.2203
524.909	44.7776
524.961	43.4494
525.013	43.319
525.066	38.9138
525.118	37
525.17	41.603
525.222	42.7028
525.275	41
525.327	39.716
525.379	37.7587
525.432	38
525.484	42.2456
525.536	42.2561
525.589	37.4988
525.641	40.4971
525.693	36.7614
525.745	40.979
525.798	40.8009
525.85	37.2238
525.902	37.7392
525.955	42.7357
526.007	41.2657
526.059	43.1967
526.112	42.5402
526.164	40.7284
526.216	44.5471
526.268	39.4476
526.321	45.4435
526.373	47.5594
526.425	41.7183
526.478	40.5681
526.53	40.4266
526.582	41.5774
526.635	46.4196
526.687	42.5844
526.739	39.4126
526.791	42.5937
526.844	41.8065
526.896	41.901
526.948	44.697
527.001	40.22
527.053	39.0804
527.105	37.617
527.157	42.7552
527.21	39.8789
527.262	42.4825
527.314	37.5891
527.367	39.2774
527.419	38.359
527.471	38.0291
527.523	38.3252
527.576	41.3457
527.628	39.6492
527.68	40.3411
527.733	40.338
527.785	40.6643
527.837	41.6624
527.889	46.3193
527.942	41
527.994	41.3108
528.046	45.7692
528.099	41.8568
528.151	33.1573
528.203	42.2343
528.255	36.7101
528.308	43.2867
528.36	38.7949
528.412	40.8347
528.464	41.0909
528.517	38.5408
528.569	38.4685
528.621	45.8929
528.674	45
528.726	44.6259
528.778	41.2561
528.83	43.4848
528.883	40.38
528.935	42.2354
528.987	42.3842
529.039	44.3869
529.092	45.4429
529.144	37.5618
529.196	38
529.249	43.4214
529.301	48.1923
529.353	40.8007
529.405	40.8065
529.458	42.3869
529.51	43.5937
529.562	45
529.614	38.4103
529.667	41.5874
529.719	44.8275
529.771	41
529.823	42.7427
529.876	44.2622
529.928	42.7308
529.98	43.7016
530.033	43.5723
530.085	43.5711
530.137	45.1375
530.189	42.4336
530.242	42.5641
530.294	45.7483
530.346	44.7998
530.398	45.8858
530.451	38.5548
530.503	42.3427
530.555	49.6538
530.607	44.451
530.66	42.0932
530.712	49.8228
530.764	42.6259
530.816	42.8415
530.869	43.6154
530.921	44.9277
530.973	46.4662
531.025	38.5315
531.078	44.704
531.13	49.4196
531.182	48
531.234	43.9114
531.287	48.5594
531.339	48.965
531.391	45.0326
531.443	42.4562
531.496	46.5385
531.548	49
531.6	43.0163
531.652	42.4592
531.705	49.5245
531.757	49.9977
531.809	47
531.861	42.014
531.914	45.4709
531.966	50.5228
532.018	46.472
532.07	41.0699
532.123	44.9161
532.175	47.5524
532.227	47.0793
532.279	44.3921
532.332	45.9068
532.384	45.1026
532.436	46.0559
532.488	38.4697
532.541	40.6604
532.593	38.3986
532.645	48.711
532.697	48.7774
532.75	46.8343
532.802	45.6294
532.854	45.8182
532.906	44.6434
532.958	50.9008
533.011	47.4476
533.063	49.1096
533.115	48
533.167	46.2357
533.22	46.0758
533.272	47.2564
533.324	43.5659
533.376	48.7296
533.429	48.1326
533.481	44.2991
533.533	50.8128
533.585	47.3201
533.638	50.9453
533.69	47.5251
533.742	50.3179
533.794	50.7074
533.846	45.1793
533.899	43.1985
533.951	40.3643
534.003	49.8353
534.055	51.783
534.108	45.7808
534.16	43.0401
534.212	44.0454
534.264	46.3479
534.316	47.2558
534.369	40.8365
534.421	47.6869
534.473	49.8377
534.525	47.9216
534.578	42.1525
534.63	49.2896
534.682	51.4936
534.734	50.279
534.786	49.3041
534.839	52.2621
534.891	52.84
534.943	50.8826
534.995	52.5676
535.047	52.7868
535.1	52.2888
535.152	52
535.204	51.1987
535.256	50.6359
535.309	51.2396
535.361	49.4611
535.413	45.6718
535.465	54.5303
535.517	53.2855
535.57	51.2283
535.622	53.2225
535.674	56.0949
535.726	49.6226
535.778	48.5333
535.831	49.1638
535.883	59.2403
535.935	55.3246
535.987	49.2492
536.039	46.6355
536.092	56.1134
536.144	50.7941
536.196	48.7405
536.248	53.374
536.301	57.8104
536.353	50.9169
536.405	53.9894
536.457	46.4043
536.509	48.1904
536.562	54.2669
536.614	55.0789
536.666	52.743
536.718	53.7821
536.77	49.6595
536.823	50.3595
536.875	52.957
536.927	49.7984
536.979	56.6945
537.031	52.2917
537.083	48.0999
537.136	57.2829
537.188	49.736
537.24	51.1917
537.292	48.6204
537.344	48.0743
537.397	53.7251
537.449	57.1562
537.501	50.9453
537.553	54.3993
537.605	48.7174
537.658	50.042
537.71	56.6909
537.762	54.3397
537.814	56.6693
537.866	56.3766
537.919	54.8323
537.971	59.6198
538.023	57.517
538.075	48
538.127	52.1637
538.18	51.2798
538.232	55.3402
538.284	53.81
538.336	57.0954
538.388	55.214
538.44	57.9083
538.493	55.3663
538.545	57.0626
538.597	57.9309
538.649	56.707
538.701	49.3715
538.754	59.5721
538.806	55.234
538.858	56.0894
538.91	55.1289
538.962	58.9009
539.014	59.4638
539.067	56.6947
539.119	53.8864
539.171	58.2734
539.223	54.2466
539.275	53.9869
539.327	55.0121
539.38	62.3299
539.432	55.7845
539.484	59.1274
539.536	54.9237
539.588	58.8987
539.641	61.6313
539.693	59.9209
539.745	51.9278
539.797	58.8332
539.849	54.6395
539.901	61.0215
539.954	61.7279
540.006	62.6973
540.058	55.9961
540.11	56.9706
540.162	57.632
540.214	57.8431
540.267	59.141
540.319	57.4384
540.371	56.657
540.423	58.8287
540.475	65.216
540.527	57.6831
540.58	56.2243
540.632	65.751
540.684	55.3982
540.736	62.6139
540.788	53.7448
540.84	59.8288
540.892	55.4981
540.945	59.1528
540.997	60.9917
541.049	65.1618
541.101	62.7938
541.153	61.9392
541.205	59.7794
541.258	59.7547
541.31	59.3195
541.362	63.5368
541.414	57.534
541.466	62.4605
541.518	58.9368
541.57	58.1527
541.623	58.6776
541.675	58.9278
541.727	62.7642
541.779	56.7442
541.831	65.4323
541.883	70.403
541.936	62.2244
541.988	65.8748
542.04	68.0805
542.092	63.3721
542.144	68.6849
542.196	68.2261
542.248	65.1051
542.301	67.4258
542.353	58.6966
542.405	60.2838
542.457	61.0131
542.509	50.3942
542.561	62.4636
542.613	59.5599
542.666	61.2133
542.718	60.9261
542.77	65.1462
542.822	59.2083
542.874	72.849
542.926	59.4468
542.978	75.3861
543.031	66.3263
543.083	61.1365
543.135	62.1448
543.187	63.9513
543.239	64.7808
543.291	65.5382
543.343	56.4558
543.396	61.1139
543.448	66.1031
543.5	72.0927
543.552	69.3452
543.604	61.1537
543.656	59.6027
543.708	65.7263
543.76	59.6257
543.813	61.2242
543.865	59.7899
543.917	63.0806
543.969	68.34
544.021	74.3148
544.073	62.091
544.125	66.8459
544.177	70.915
544.23	72.4412
544.282	65.7582
544.334	69.9794
544.386	63.9138
544.438	70.475
544.49	63.3972
544.542	68.5366
544.594	63.8784
544.647	68.1527
544.699	57.7127
544.751	67.1595
544.803	64.085
544.855	66.6204
544.907	69.9084
544.959	70.6556
545.011	65.8496
545.064	76.6188
545.116	66.1311
545.168	67.817
545.22	71.7995
545.272	70.9701
545.324	72.4008
545.376	70.8275
545.428	74.2041
545.48	72.4225
545.533	70.6838
545.585	72.1723
545.637	75.8943
545.689	72.7503
545.741	73.8067
545.793	64.2411
545.845	67.9474
545.897	74.3819
545.949	74.7991
546.002	74.5284
546.054	69.5318
546.106	73.2619
546.158	74.1644
546.21	74.4834
546.262	72.4547
546.314	68.9226
546.366	66.6398
546.418	71.1529
546.471	81.9272
546.523	79.1334
546.575	73.1698
546.627	76.9282
546.679	71.4473
546.689	69.9781
546.741	72
546.793	79.8941
546.845	77.8139
546.898	69.8523
546.95	73.848
547.002	77.9705
547.054	72.153
547.106	77.8451
547.159	68.0262
547.211	83.6039
547.263	64.1951
547.315	83.5832
547.368	75.8885
547.42	83.6729
547.472	81.5681
547.524	87.1478
547.577	83.291
547.629	83.7301
547.681	72.2057
547.733	89.3263
547.785	76.1193
547.838	79.7023
547.89	66.4571
547.942	85.3727
547.994	77.7626
548.047	81.7046
548.099	77.6976
548.151	73.9251
548.203	83.6607
548.255	75.3782
548.308	71.2625
548.36	88.6525
548.412	87.1232
548.464	83.5623
548.517	83.5506
548.569	85.51
548.621	74.4389
548.673	81.1244
548.725	80.578
548.778	90.0698
548.83	68.5195
548.882	88.8635
548.934	81.5034
548.987	88.4727
549.039	82.22
549.091	76.7079
549.143	82.9117
549.195	91.9318
549.248	80.3597
549.3	91.0597
549.352	88.7276
549.404	87.082
549.456	76.7414
549.509	88.7477
549.561	75.5689
549.613	86.6109
549.665	81.2079
549.718	94.0602
549.77	84.7296
549.822	91.8414
549.874	95.0515
549.926	90.5449
549.979	84.8738
550.031	91.9126
550.083	87.8492
550.135	91.9804
550.187	90.8083
550.24	92.9966
550.292	95.521
550.344	85.7097
550.396	95.3911
550.448	97.4544
550.501	101.619
550.553	90.899
550.605	100.63
550.657	94.7699
550.709	93.8162
550.762	97.0205
550.814	106.571
550.866	101.623
550.918	95.0992
550.97	90.9981
551.023	104.317
551.075	97.5546
551.127	96.182
551.179	106.029
551.231	106.107
551.284	97.9945
551.336	113.173
551.388	110.733
551.44	104.637
551.492	112.596
551.545	117.769
551.597	117.949
551.649	119.616
551.701	123.943
551.753	128.843
551.806	138.071
551.858	143.454
551.91	151.175
551.962	152.892
552.014	156.47
552.067	160.933
552.119	182.19
552.171	229.781
552.223	262.768
552.275	326.497
552.327	523.362
552.38	1074.02
552.432	2169.92
552.484	4074.03
552.536	6897.52
552.588	10823.6
552.641	10873.8
552.693	7003.71
552.745	3532.6
552.797	1460.32
552.849	645.286
552.901	400.728
552.954	271.484
553.006	233.997
553.058	202.343
553.11	173.204
553.162	167.615
553.215	151.446
553.267	142.659
553.319	129.413
553.371	132.553
553.423	129.128
553.475	124.11
553.528	130.922
553.58	116.021
553.632	122.611
553.684	118.504
553.736	118.596
553.788	112.591
553.841	114.28
553.893	108.2
553.945	114.004
553.997	111.463
554.049	110.14
554.102	114.458
554.154	118.94
554.206	113.912
554.258	114.325
554.31	111.928
554.362	109.38
554.414	110.617
554.467	104
554.519	115.222
554.571	116.789
554.623	115.074
554.675	113.778
554.727	104.676
554.78	111.358
554.832	107.282
554.884	110.877
554.936	115.068
554.988	114.395
555.04	106.898
555.093	110.067
555.145	121.696
555.197	111.271
555.249	121.329
555.301	117.523
555.353	115.048
555.406	105.31
555.458	116.513
555.51	118.401
555.562	122.911
555.614	111.008
555.666	118.041
555.719	124.527
555.771	116.996
555.823	113.754
555.875	119.932
555.927	115.969
555.979	126.862
556.031	119.963
556.084	113.995
556.136	121.693
556.188	109.807
556.24	115.816
556.292	121.691
556.344	114.801
556.396	123.509
556.449	124.058
556.501	119.682
556.553	114.756
556.605	113.527
556.657	115.433
556.709	117.334
556.762	121.82
556.814	125.366
556.866	112.888
556.918	120.632
556.97	124.011
557.022	114.097
557.074	122.992
557.127	125.208
557.179	125.16
557.231	128.133
557.283	127.959
557.335	124.887
557.387	138.094
557.439	126.331
557.492	123.507
557.544	131.082
557.596	120.042
557.648	123.538
557.7	124.444
557.752	134.487
557.804	124.97
557.856	130.406
557.909	119.7
557.961	127.71
558.013	129.136
558.065	124.522
558.117	118.334
558.169	136.106
558.221	124.175
558.273	131.002
558.326	130.217
558.378	130.033
558.43	123.341
558.482	136.856
558.534	127.522
558.586	131.69
558.638	128.578
558.691	129.257
558.743	128.361
558.795	137.727
558.847	130.16
558.899	134.455
558.951	143.19
559.003	126.877
559.055	132.457
559.108	130.241
559.16	128.113
559.212	127.697
559.264	125.574
559.316	121.134
559.368	136.142
559.42	142.178
559.472	133.399
559.525	130.014
559.577	135.911
559.629	142.171
559.681	121.738
559.733	138.625
559.785	135.982
559.837	137.171
559.889	137.954
559.941	138.226
559.994	136.636
560.046	132.99
560.098	138.86
560.15	139.072
560.202	144.315
560.254	142.119
560.306	137.754
560.358	138.356
560.41	144.285
560.463	139.022
560.515	144.046
560.567	142.272
560.619	139.679
560.671	147.149
560.723	141.958
560.775	135.899
560.827	148.617
560.879	148.754
560.932	140.095
560.984	135.641
561.036	145.151
561.088	152.148
561.14	150.245
561.192	145.546
561.244	152.361
561.296	152.897
561.348	146.805
561.4	150.403
561.453	140.424
561.505	154.484
561.557	153.604
561.609	156.555
561.661	152.526
561.713	150.108
561.765	148.313
561.817	147.382
561.869	149.202
561.921	150.18
561.974	158.841
562.026	150.811
562.078	164.1
562.13	150.003
562.182	168.115
562.234	160.154
562.286	160.516
562.338	156.318
562.39	166.526
562.442	162.504
562.494	161.483
562.547	156.479
562.599	164.719
562.651	156.394
562.703	165.942
562.755	155.335
562.807	158.037
562.859	164.522
562.911	161.75
562.963	161.336
563.015	171.358
563.067	164.725
563.12	161.976
563.172	169.073
563.224	161.084
563.276	166.683
563.328	169.884
563.38	167.02
563.432	158.391
563.484	167.545
563.536	172.817
563.588	162.833
563.64	160.331
563.692	175.665
563.744	173.221
563.797	166.114
563.849	174.475
563.901	175.469
563.953	161.521
564.005	162.778
564.057	163.533
564.109	175.808
564.161	171.744
564.213	175.089
564.265	170.139
564.317	170.185
564.369	180.315
564.421	172.763
564.474	179.5
564.526	171.854
564.578	178.377
564.63	177.871
564.682	175.716
564.734	180.282
564.786	178.499
564.838	172.394
564.89	177.248
564.942	180.032
564.994	179.451
565.046	176.357
565.098	177.181
565.15	176.089
565.202	173.025
565.255	179.285
565.307	176.826
565.359	183.915
565.411	184.377
565.463	185.649
565.515	181.292
565.567	190.989
565.619	184.318
565.671	192.152
565.723	183.955
565.775	189.384
565.827	190.472
565.879	187.524
565.931	181.949
565.983	195.022
566.035	184.614
566.087	179.333
566.139	185.278
566.192	203.292
566.244	198.279
566.296	196.807
566.348	198.99
566.4	197.917
566.452	196.731
566.504	201.656
566.556	196
566.608	197.326
566.66	198.908
566.712	202.706
566.764	202.946
566.816	200.014
566.868	195.416
566.92	197.892
566.972	195.325
567.024	199.945
567.076	194.429
567.128	200.634
567.18	201.803
567.232	207.422
567.285	206.875
567.337	213.571
567.389	206.777
567.441	212.421
567.493	208.698
567.545	214.245
567.597	207.878
567.649	210.532
567.701	212.436
567.753	211.141
567.805	212.6
567.857	213.935
567.909	212.89
567.961	212.586
568.013	204.381
568.065	212.726
568.117	214.239
568.169	213.153
568.221	213.682
568.273	219.87
568.325	220.942
568.377	224.496
568.429	222.78
568.481	215.308
568.533	218.726
568.585	220.073
568.637	220.527
568.69	220.022
568.742	230.504
568.794	231.251
568.846	228.2
568.898	235.233
568.95	229.182
569.002	221.367
569.054	238.082
569.106	240.4
569.158	223.719
569.21	220.899
569.262	232.662
569.314	235.203
569.366	238.257
569.418	235.881
569.47	231.07
569.522	238.701
569.574	238.166
569.626	232.881
569.678	233.336
569.73	235.437
569.782	243.621
569.834	247.407
569.886	247.529
569.938	240.871
569.99	238.096
570.042	232.496
570.094	240.641
570.146	249.141
570.198	242.593
570.25	245.516
570.302	257.694
570.354	263.028
570.406	256.007
570.458	252.907
570.51	253.874
570.562	258.278
570.614	259.214
570.666	246.993
570.718	254.809
570.77	258.093
570.822	250.421
570.874	256.165
570.926	267.387
570.978	268.037
571.03	268.095
571.082	276.331
571.134	279.592
571.186	285.175
571.238	284.303
571.29	278.025
571.342	280.291
571.394	288.78
571.446	291.475
571.498	286.334
571.55	294.705
571.602	303.026
571.654	297.745
571.706	296.55
571.758	291.832
571.81	299.962
571.862	301.648
571.914	305.632
571.966	310.372
572.018	318.158
572.07	314.259
572.122	313.48
572.174	326.513
572.226	313.679
572.278	331.168
572.33	340.906
572.382	334.261
572.434	337.708
572.486	333.418
572.538	337.195
572.59	348.434
572.642	343.818
572.694	360.743
572.746	366.84
572.798	367.142
572.85	362.676
572.902	367.339
572.954	383.205
573.006	378.084
573.058	379.584
573.11	379.709
573.162	388.485
573.214	383.733
573.266	388.538
573.302	380.189
573.355	410.042
573.407	441.725
573.459	411.959
573.511	421.873
573.563	418.033
573.615	443.751
573.667	437.719
573.719	478.896
573.772	457.62
573.824	447.803
573.876	469.263
573.928	469.661
573.98	461.97
574.032	499.126
574.084	490.034
574.136	507.636
574.188	494.194
574.241	519.35
574.293	515.957
574.345	533.975
574.397	532.608
574.449	553.418
574.501	565.052
574.553	546.793
574.605	563.211
574.657	575.324
574.71	594.407
574.762	618.976
574.814	611.803
574.866	619.375
574.918	625.185
574.97	652.886
575.022	647.804
575.074	662.614
575.126	675.965
575.178	687.971
575.231	682.456
575.283	702.227
575.335	712.091
575.387	716.762
575.439	723.055
575.491	720.923
575.543	719.199
575.595	708.617
575.647	752.75
575.7	725
575.752	715.547
575.804	712.814
575.856	748.552
575.908	740.783
575.96	737.708
576.012	736.908
576.064	746.744
576.116	730.966
576.168	746.765
576.22	708.633
576.273	735.408
576.325	718.369
576.377	709.723
576.429	708.487
576.481	696.812
576.533	697.68
576.585	681.752
576.637	667.649
576.689	673.836
576.741	658.205
576.793	669.952
576.846	647.981
576.898	667.359
576.95	626.802
577.002	634.805
577.054	599.819
577.106	614.93
577.158	627.938
577.21	598.701
577.262	590.19
577.314	598.104
577.366	585.54
577.418	580.764
577.471	579.33
577.523	561.703
577.575	547.786
577.627	553.844
577.679	553.828
577.731	556.398
577.783	543.151
577.835	548.944
577.887	512.919
577.939	521.344
577.991	525.501
578.043	512.661
578.095	510.778
578.148	505.383
578.2	505.868
578.252	505.582
578.304	498
578.356	477.551
578.408	512.305
578.46	489.669
578.512	509.511
578.564	484.689
578.616	487.89
578.668	489.121
578.72	482.051
578.772	488.112
578.824	461.305
578.877	461.583
578.929	475.793
578.981	469.794
579.033	479.295
579.085	465.557
579.137	475.264
579.189	467.295
579.241	454.594
579.293	456.633
579.345	444.908
579.397	462.442
579.449	460.895
579.501	469.556
579.553	467.292
579.605	468.294
579.658	480.416
579.71	469.914
579.762	476.776
579.814	456.134
579.866	445.643
579.918	460.451
579.97	455.794
580.022	465.452
580.074	463.934
580.126	462.35
580.178	455.528
580.23	457.76
580.282	460.501
580.334	464.644
580.386	479.989
580.438	460.558
580.49	463.537
580.542	445.093
580.595	457.473
580.647	473.342
580.699	458.298
580.751	464.885
580.803	471.676
580.855	470.68
580.907	464.486
580.959	471.566
581.011	463.105
581.063	470.43
581.115	462.59
581.167	479.759
581.219	489.845
581.271	491.028
581.323	455.798
581.375	475.087
581.427	462.906
581.479	483.849
581.531	464.74
581.583	463.184
581.635	472.46
581.688	489.694
581.74	477.527
581.792	475.251
581.844	473.803
581.896	470.359
581.948	484.952
582	485.393
582.052	467.532
582.104	470.377
582.156	486.755
582.208	482.066
582.26	498.711
582.312	501.558
582.364	501.55
582.416	481.984
582.468	494.758
582.52	497.181
582.572	489.641
582.624	493.642
582.676	506.635
582.728	507.595
582.78	499.608
582.832	508.503
582.884	514.983
582.936	491.285
582.988	499.31
583.04	512.024
583.092	505.475
583.144	494.844
583.196	515.493
583.249	509.732
583.301	518.075
583.353	501.831
583.405	500.086
583.457	524.669
583.509	520.617
583.561	512.871
583.613	531.475
583.665	524.503
583.717	522.12
583.769	531.106
583.821	525.08
583.873	528.501
583.925	525.095
583.977	515.914
584.029	525.64
584.081	547.124
584.133	530.293
584.185	539.622
584.237	543.144
584.289	545.867
584.341	547.865
584.393	561.25
584.445	544.668
584.497	543.699
584.549	560.816
584.601	542.506
584.653	553.596
584.705	558.191
584.757	560.649
584.809	564.755
584.861	561.78
584.913	570.291
584.965	571.251
585.017	579.673
585.069	580.497
585.121	583.932
585.173	584.912
585.225	581.492
585.277	582.956
585.329	575.941
585.381	590.362
585.433	580.279
585.485	574.925
585.537	581.475
585.589	580.364
585.641	583.622
585.693	578.91
585.745	594.466
585.797	598.523
585.849	602.371
585.901	610.973
585.953	602.123
586.005	583.186
586.057	593.334
586.109	611.881
586.161	609.739
586.213	616.371
586.265	609.194
586.317	607.635
586.369	614.684
586.421	616.191
586.473	610.555
586.525	609.779
586.577	616.089
586.629	617.97
586.681	605.203
586.733	619.179
586.785	619.982
586.837	632.149
586.889	615.764
586.941	617.644
586.993	623.788
587.045	623.674
587.097	633.876
587.149	629.497
587.201	634.58
587.253	640.893
587.305	619.53
587.357	642.59
587.409	631.992
587.461	629.472
587.513	630.985
587.565	646.852
587.617	633.887
587.669	627.237
587.721	619.563
587.773	636.083
587.825	627.826
587.877	638.275
587.929	648.663
587.981	650.116
588.033	639.019
588.085	636.313
588.137	638.514
588.189	651.299
588.241	626.968
588.293	654.93
588.345	645.536
588.397	633.294
588.449	650.353
588.501	639.802
588.552	650.377
588.604	645.884
588.656	635.722
588.708	650.203
588.76	647.506
588.812	637.706
588.864	648.594
588.916	650.827
588.968	651.547
589.02	656.339
589.072	666.183
589.124	667.514
589.176	675.251
589.228	675.765
589.28	669.424
589.332	679.348
589.384	663.133
589.436	668.149
589.488	663.643
589.54	672.971
589.592	669.472
589.644	659.601
589.696	656.777
589.748	667.181
589.8	655.63
589.852	652.574
589.904	681.451
589.956	659.991
590.008	648.946
590.06	661.507
590.112	653.737
590.163	666.145
590.215	659.306
590.267	658.389
590.319	673.969
590.371	657.27
590.423	667.59
590.475	662.228
590.527	659.517
590.579	654.279
590.631	653.143
590.683	657.593
590.735	670.907
590.787	655.533
590.839	641.981
590.891	642.018
590.943	648.342
590.995	663.966
591.047	651.602
591.099	647.822
591.151	648.66
591.203	646.924
591.254	661.296
591.306	650.075
591.358	637.731
591.41	646.729
591.462	643.768
591.514	625.018
591.566	636.299
591.618	647.357
591.67	654.966
591.722	646.591
591.774	631.74
591.826	635.853
591.878	629.177
591.93	629.773
591.982	635.349
592.034	649.939
592.086	635.716
592.137	639.989
592.189	639.491
592.241	632.281
592.293	623.393
592.345	615.634
592.397	637.716
592.449	642.719
592.501	642.818
592.553	638.609
592.605	631.057
592.657	617.261
592.709	620.126
592.761	631.395
592.813	645.2
592.865	641.62
592.916	633.923
592.968	638.284
593.02	640.282
593.072	641.872
593.124	656.139
593.176	657.09
593.228	638.697
593.28	646.304
593.332	629.79
593.384	640.378
593.436	641.76
593.488	644.26
593.54	641.38
593.591	633.816
593.643	631.302
593.695	641.046
593.747	636.94
593.799	640.212
593.851	636.895
593.903	635.615
593.955	639.631
594.007	640.969
594.059	645.706
594.111	655.595
594.163	649.172
594.215	646.489
594.266	641.319
594.318	648.299
594.37	650.975
594.422	646.221
594.474	665.469
594.526	674.852
594.578	663.492
594.63	639.502
594.682	637.399
594.734	645.298
594.786	667.264
594.837	661.523
594.889	640.057
594.941	636.374
594.993	636.724
595.045	653.006
595.097	652.539
595.149	654.071
595.201	662.549
595.253	665.578
595.305	674.753
595.357	667.007
595.408	677.037
595.46	668.92
595.512	655.311
595.564	670.206
595.616	670.855
595.668	668.72
595.72	672.297
595.772	685.726
595.824	687.888
595.876	681.526
595.927	689.711
595.979	687.411
596.031	672.578
596.083	669.627
596.135	683.836
596.187	694.937
596.239	692.422
596.291	684.528
596.343	683.841
596.394	687.697
596.446	697.204
596.498	706.237
596.55	696.53
596.602	694.373
596.654	693.421
596.706	690.259
596.758	691.922
596.81	680.311
596.862	672.378
596.913	685.394
596.965	698.37
597.017	698.001
597.069	695.635
597.121	701.794
597.173	706.976
597.225	715.803
597.277	698.455
597.328	692.108
597.38	694.436
597.432	700.984
597.484	700.258
597.536	696.718
597.588	703.232
597.64	702.142
597.692	711.65
597.744	707.646
597.795	700.074
597.847	692.856
597.899	691.105
597.951	706.449
598.003	707.119
598.055	718.873
598.107	714.631
598.159	709.851
598.21	705.311
598.262	703.246
598.314	707.567
598.366	719.317
598.418	713.06
598.47	710.543
598.522	718.021
598.574	719.438
598.625	719.662
598.677	717.787
598.729	701.216
598.781	700.185
598.833	720.583
598.885	719.82
598.937	735.003
598.988	729.525
599.04	714.897
599.092	735.883
599.144	731.722
599.196	720.084
599.248	722.883
599.3	717.157
599.352	724.391
599.403	711.181
599.455	736.64
599.507	729.125
599.559	736.485
599.611	725.318
599.663	713.015
599.715	749.025
599.766	753.541
599.803	747.968
599.855	714.045
599.907	720.109
599.959	728.086
600.011	743.53
600.063	712.274
600.115	710.26
600.167	727.831
600.219	726.251
600.271	745.304
600.323	717.946
600.375	726.138
600.427	733.983
600.479	714.214
600.531	721.305
600.583	729.625
600.635	721.662
600.686	752.348
600.738	739.694
600.79	748.964
600.842	742.314
600.894	734.54
600.946	724.013
600.998	743.327
601.05	710.326
601.102	756.822
601.154	711.622
601.206	750.657
601.258	729.267
601.31	729.348
601.362	743.592
601.414	721.446
601.466	747.909
601.518	754.745
601.57	719.614
601.622	725.098
601.674	743.171
601.726	735.292
601.778	739.233
601.83	749.245
601.882	723.252
601.934	747.588
601.986	746.321
602.038	733.497
602.09	744.695
602.142	740.889
602.194	740.721
602.246	761.818
602.298	718.78
602.35	784.387
602.402	730.048
602.454	741.93
602.506	763.977
602.558	752.158
602.61	755.905
602.662	735.793
602.714	743.055
602.766	761.096
602.818	763.302
602.87	757.967
602.922	771.754
602.974	777.603
603.026	762.41
603.078	766.958
603.13	748.546
603.182	747.289
603.234	749.194
603.285	764.375
603.337	759.945
603.389	751.1
603.441	751.882
603.493	751.429
603.545	778.738
603.597	742.941
603.649	723.962
603.701	762.359
603.753	779.113
603.805	746.997
603.857	771.626
603.909	749.062
603.961	766.412
604.013	759.592
604.065	758.525
604.117	754.783
604.169	750.128
604.221	773.773
604.273	773.079
604.325	767.5
604.377	738.281
604.429	756.034
604.481	745.374
604.533	756.858
604.584	757.038
604.636	753.712
604.688	756.83
604.74	766.062
604.792	770.925
604.844	776.902
604.896	768.01
604.948	744.376
605	771.438
605.052	770.609
605.104	744.553
605.156	755.46
605.208	785.687
605.26	762.496
605.312	775.098
605.364	760.604
605.416	763.674
605.468	762.888
605.52	738.856
605.572	784.56
605.623	776.086
605.675	752.145
605.727	768.765
605.779	779.669
605.831	764.325
605.883	756.958
605.935	772.362
605.987	736.095
606.039	760.892
606.091	766.362
606.143	764.244
606.195	776.07
606.247	769.687
606.299	774.793
606.351	760.086
606.403	761.973
606.455	761.99
606.506	767.541
606.558	765.755
606.61	782.914
606.662	775.105
606.714	754.265
606.766	757.799
606.818	772.475
606.87	783.336
606.922	756.432
606.974	768.239
607.026	748.971
607.078	766.118
607.13	778.787
607.182	789.414
607.234	767.112
607.285	764.914
607.337	780.464
607.389	769.663
607.441	782.636
607.493	768.868
607.545	784.947
607.597	765.757
607.649	748.372
607.701	766.91
607.753	789.776
607.805	791.703
607.857	764.674
607.909	767.591
607.96	769.077
608.012	793.252
608.064	781.55
608.116	792.454
608.168	776.592
608.22	786.12
608.272	798.002
608.324	773.444
608.376	804.943
608.428	798.932
608.48	776.828
608.532	792.062
608.583	800.249
608.635	815.618
608.687	774.693
608.739	815.752
608.791	819.276
608.843	790.816
608.895	796.517
608.947	819.289
608.999	800.784
609.051	811.099
609.103	801.911
609.155	793.921
609.206	792.689
609.258	807.092
609.31	801.508
609.362	815.163
609.414	823.402
609.466	825.078
609.518	799.468
609.57	804.449
609.622	798.254
609.674	826.824
609.725	811.487
609.777	803.762
609.829	799.642
609.881	838.245
609.933	815.785
609.985	806.117
610.037	814.907
610.089	832.607
610.141	818.93
610.193	815.548
610.245	829.577
610.296	825.771
610.348	815.291
610.4	824.162
610.452	829.658
610.504	827.58
610.556	845.92
610.608	815.164
610.66	825.41
610.712	826.841
610.763	824
610.815	837.816
610.867	837.894
610.919	848.268
610.971	825.658
611.023	836.195
611.075	823.786
611.127	841.086
611.179	834.107
611.23	807.171
611.282	814.208
611.334	823.13
611.386	853.513
611.438	829.04
611.49	824.596
611.542	828.995
611.594	829.366
611.646	836.616
611.697	839.301
611.749	854.381
611.801	838.239
611.853	846.589
611.905	848.392
611.957	845.013
612.009	843.802
612.061	844.191
612.113	851.119
612.164	856.689
612.216	851.032
612.268	843.086
612.32	850.43
612.372	845.453
612.424	847.074
612.476	846.596
612.528	865.897
612.579	862.286
612.631	859.026
612.683	859.437
612.735	878.658
612.787	871.476
612.839	868.79
612.891	858.719
612.943	864.599
612.994	868.049
613.046	878.092
613.098	866.316
613.15	858.117
613.202	870.904
613.254	869.39
613.306	871.895
613.357	859.986
613.409	870.312
613.461	870.464
613.513	863.078
613.565	881.334
613.617	890.283
613.669	885.573
613.721	888.359
613.772	889.38
613.824	878.893
613.876	889.135
613.928	880.493
613.98	890.412
614.032	892.641
614.084	901.136
614.135	905.888
614.187	894.949
614.239	910.239
614.291	891.054
614.343	912.624
614.395	921.954
614.447	912.556
614.498	903.483
614.55	908.166
614.602	917.041
614.654	916.969
614.706	935.971
614.758	915.144
614.81	924.047
614.861	914.631
614.913	912.227
614.965	915.017
615.017	913.28
615.069	942.529
615.121	925.712
615.172	941.769
615.224	950.173
615.276	918.34
615.328	926.132
615.38	934.367
615.432	948.825
615.484	937.601
615.535	929.3
615.587	923.074
615.639	945.567
615.691	933.372
615.743	918.163
615.795	933.091
615.846	921.183
615.898	940.507
615.95	965.837
616.002	946.088
616.054	953.915
616.106	950.57
616.158	944.284
616.209	942.034
616.261	949.912
616.313	955.382
616.365	950.933
616.417	968.448
616.469	972.124
616.52	958.384
616.572	974.288
616.624	971.847
616.676	959.237
616.728	958.684
616.78	990.077
616.831	964.439
616.883	973.078
616.935	967.583
616.987	981.221
617.039	973.268
617.091	979.056
617.142	985.827
617.194	978.803
617.246	960.516
617.298	981.898
617.35	975.727
617.401	998.663
617.453	983.2
617.505	997.123
617.557	995.184
617.609	1003.13
617.661	986.608
617.712	1019.8
617.764	1006.28
617.816	1008.8
617.868	1021.62
617.92	991.005
617.972	1002.8
618.023	1026.28
618.075	1038.7
618.127	1006.78
618.179	1017.38
618.231	1011.48
618.282	1026.2
618.334	1015.68
618.386	1024.58
618.438	1027.88
618.49	1020.96
618.542	1037.06
618.593	1024.88
618.645	1034.7
618.697	1039.21
618.749	1039.24
618.801	1050.98
618.852	1053.55
618.904	1050.69
618.956	1035.74
619.008	1062.33
619.06	1051.05
619.111	1045.96
619.163	1048.9
619.215	1059.3
619.267	1058.8
619.319	1064.58
619.37	1066.37
619.422	1064.9
619.474	1083.13
619.526	1053.36
619.578	1049.28
619.63	1063.14
619.681	1072.03
619.733	1061
619.785	1074.06
619.837	1049.58
619.888	1066.15
619.94	1058.84
619.992	1063.58
620.044	1068.54
620.096	1089.41
620.147	1088.7
620.199	1090.62
620.251	1085.45
620.303	1086.7
620.355	1087.99
620.406	1087.94
620.458	1077.3
620.51	1075.38
620.562	1085.52
620.614	1093.31
620.665	1099.35
620.717	1100.32
620.769	1106.38
620.821	1115.55
620.873	1104.71
620.924	1096.22
620.976	1112
621.028	1094.7
621.08	1085.1
621.132	1100.74
621.183	1111.09
621.235	1094.01
621.287	1092.44
621.339	1081.57
621.39	1111.8
621.442	1111.76
621.494	1108.08
621.546	1090.44
621.598	1097.36
621.649	1121.22
621.701	1104.41
621.753	1097.77
621.805	1103.58
621.856	1114.23
621.908	1123.56
621.96	1126.05
622.012	1118.49
622.064	1123.79
622.115	1143.5
622.167	1113.2
622.219	1129.99
622.271	1133.42
622.322	1123.11
622.374	1119.39
622.426	1116.31
622.478	1150.49
622.53	1150
622.581	1136.41
622.633	1131.62
622.685	1134.54
622.737	1119.24
622.788	1119.3
622.84	1131.78
622.892	1141.83
622.944	1134.18
622.995	1137.56
623.047	1143.47
623.099	1145.05
623.151	1126.68
623.203	1109.31
623.254	1129.35
623.306	1116.88
623.358	1121.03
623.41	1122.9
623.461	1130.04
623.513	1140.19
623.565	1137.71
623.617	1116.99
623.668	1142.69
623.72	1110.26
623.772	1121.03
623.824	1150.05
623.875	1137.39
623.927	1165.35
623.979	1130.36
624.031	1137.85
624.082	1126.64
624.134	1126.49
624.186	1137.85
624.238	1141.38
624.289	1161.82
624.341	1141.48
624.393	1142.35
624.445	1173.21
624.496	1133.61
624.548	1152.4
624.6	1129.12
624.652	1141.55
624.703	1173.64
624.755	1164.07
624.807	1169.6
624.859	1142.76
624.91	1178.93
624.962	1141.66
625.014	1182.31
625.066	1166
625.117	1182.51
625.169	1171.53
625.221	1177.8
625.273	1202.11
625.324	1182.09
625.376	1162.68
625.428	1156.66
625.48	1190.21
625.531	1164.54
625.583	1195.06
625.635	1150.89
625.687	1177.4
625.738	1203.01
625.79	1171.97
625.842	1172.85
625.893	1167.96
625.945	1163.55
625.997	1149.4
626.049	1186.65
626.1	1197.51
626.152	1213.09
626.204	1199.11
626.256	1204.48
626.307	1200.97
626.316	1199.92
626.368	1219.75
626.42	1207.84
626.472	1225.74
626.523	1211.43
626.575	1183.96
626.627	1217.28
626.679	1195.49
626.731	1219.37
626.783	1190.34
626.835	1191.97
626.887	1190.3
626.938	1223.11
626.99	1197.59
627.042	1213.47
627.094	1209.46
627.146	1236.76
627.198	1211.48
627.25	1229.18
627.302	1261.9
627.353	1223.83
627.405	1184.91
627.457	1247.64
627.509	1234.21
627.561	1228.55
627.613	1228.8
627.665	1264.88
627.716	1221.64
627.768	1217.2
627.82	1260.45
627.872	1250.91
627.924	1214.15
627.976	1243.15
628.028	1229.23
628.079	1227.76
628.131	1260.8
628.183	1226
628.235	1253.63
628.287	1261.97
628.339	1232.86
628.391	1235.38
628.443	1277.03
628.494	1256.94
628.546	1251.4
628.598	1233.13
628.65	1247.34
628.702	1271.86
628.754	1318.76
628.805	1300.48
628.857	1219.77
628.909	1263.41
628.961	1282
629.013	1231.11
629.065	1247.43
629.117	1294.44
629.168	1247.03
629.22	1268.63
629.272	1286.06
629.324	1276.06
629.376	1276.06
629.428	1287.34
629.479	1288.87
629.531	1290.89
629.583	1270.28
629.635	1295.18
629.687	1251.6
629.739	1323.2
629.791	1297.98
629.842	1317.89
629.894	1290.85
629.946	1308.85
629.998	1303.4
630.05	1274.69
630.102	1282.3
630.153	1262.52
630.205	1282.44
630.257	1265.82
630.309	1329.9
630.361	1325.7
630.413	1292
630.464	1365.76
630.516	1296.33
630.568	1298.54
630.62	1320.2
630.672	1328.33
630.724	1301.7
630.776	1295.33
630.827	1344.5
630.879	1353.81
630.931	1341.07
630.983	1312.58
631.035	1349.11
631.086	1329.51
631.138	1345.73
631.19	1334.27
631.242	1378.91
631.294	1373.74
631.346	1350.23
631.397	1348.8
631.449	1335.84
631.501	1383.75
631.553	1371.01
631.605	1351.65
631.657	1349.63
631.708	1338.76
631.76	1351.41
631.812	1368.16
631.864	1389.26
631.916	1359.48
631.967	1370.91
632.019	1389.58
632.071	1385.67
632.123	1381.68
632.175	1383.51
632.227	1390.94
632.278	1401.17
632.33	1406.7
632.382	1400.22
632.434	1386.12
632.486	1360.15
632.537	1384.57
632.589	1388.25
632.641	1397.22
632.693	1385.41
632.745	1397.58
632.797	1414.78
632.848	1411.8
632.9	1403.11
632.952	1431.48
633.004	1407.49
633.056	1419.71
633.107	1441.87
633.159	1429.43
633.211	1439.31
633.263	1435.71
633.315	1420.85
633.366	1442.7
633.418	1463.16
633.47	1430.55
633.522	1437.51
633.574	1450.32
633.625	1465.41
633.677	1473.92
633.729	1454.7
633.781	1477
633.833	1464.41
633.885	1468.36
633.936	1471.19
633.988	1481.96
634.04	1495.64
634.092	1499.63
634.143	1481.81
634.195	1512.89
634.247	1469.52
634.299	1488.22
634.351	1486.83
634.403	1506.84
634.454	1520.5
634.506	1498.27
634.558	1527.4
634.61	1503.52
634.661	1523.47
634.713	1502.84
634.765	1546.27
634.817	1539.85
634.869	1564.91
634.92	1568.69
634.972	1554.86
635.024	1547.25
635.076	1584.27
635.128	1581.04
635.179	1607.74
635.231	1591.44
635.283	1605.51
635.335	1618.4
635.387	1615.93
635.438	1586.56
635.49	1614.56
635.542	1624.78
635.594	1634.76
635.645	1609.48
635.697	1624.27
635.749	1643.06
635.801	1658.47
635.853	1672.02
635.904	1657.84
635.956	1723.58
636.008	1724.82
636.06	1712.53
636.112	1743.81
636.163	1696.06
636.215	1726.92
636.267	1774.24
636.319	1783.12
636.37	1789.61
636.422	1813.32
636.474	1831.34
636.526	1829.85
636.577	1845
636.629	1861.72
636.681	1883.43
636.733	1910.78
636.785	1903.45
636.836	1924.54
636.888	1972.46
636.94	1978.85
636.992	2017.75
637.043	2042.41
637.095	2033.18
637.147	2065.47
637.199	2110.22
637.25	2139.22
637.302	2136.9
637.354	2161.3
637.406	2203.41
637.458	2234.29
637.509	2260.76
637.561	2264.48
637.613	2263.89
637.665	2292.45
637.716	2288.92
637.768	2307.28
637.82	2338.19
637.872	2382.06
637.923	2365.17
637.975	2404.38
638.027	2382.03
638.079	2401.46
638.13	2386.39
638.182	2411.03
638.234	2426.95
638.286	2380.83
638.337	2384.55
638.389	2371.49
638.441	2395.17
638.493	2398.75
638.544	2378.85
638.596	2377.01
638.648	2348.73
638.7	2351.9
638.752	2342.3
638.803	2288.42
638.855	2330.2
638.907	2259.98
638.958	2285.33
639.01	2280
639.062	2252.73
639.114	2233.59
639.165	2228.5
639.217	2194.5
639.269	2194.52
639.321	2181.28
639.372	2168.36
639.424	2166.04
639.476	2163.4
639.528	2132.23
639.579	2094.41
639.631	2114.69
639.683	2103.05
639.735	2091.7
639.786	2067.04
639.838	2044.68
639.89	2063.12
639.942	2034.87
639.993	2050.21
640.045	2045.09
640.097	2022.57
640.149	2022.2
640.2	2044.82
640.252	2002.15
640.304	2002.3
640.356	1971.8
640.407	2006.47
640.459	1988.57
640.511	1976.83
640.562	1973.35
640.614	1975.4
640.666	1977.97
640.718	1977.61
640.769	1932.68
640.821	1961.93
640.873	1956.6
640.925	1942.52
640.976	1967.15
641.028	1934.08
641.08	1935.89
641.131	1924.21
641.183	1914.12
641.235	1917.48
641.287	1920.88
641.338	1941.05
641.39	1944.51
641.442	1924.56
641.494	1922.93
641.545	1927.49
641.597	1941.55
641.649	1926.53
641.7	1937.32
641.752	1901
641.804	1931
641.856	1916.44
641.907	1898.83
641.959	1900.27
642.011	1912.41
642.063	1911.17
642.114	1938.13
642.166	1927.14
642.218	1918.77
642.269	1950.79
642.321	1910.71
642.373	1930.42
642.424	1904.23
642.476	1937.81
642.528	1917.25
642.58	1925.61
642.631	1908.51
642.683	1908.92
642.735	1915.98
642.786	1885.28
642.838	1905.93
642.89	1932.31
642.942	1931.45
642.993	1929.23
643.045	1940.28
643.097	1921.36
643.148	1922.68
643.2	1903.2
643.252	1908.57
643.304	1932.95
643.355	1925.27
643.407	1939.96
643.459	1969.33
643.51	1945.72
643.562	1911.55
643.614	1945.6
643.665	1963.85
643.717	1957.29
643.769	1929.06
643.82	1956.4
643.872	1938.26
643.924	1973.67
643.976	1953.46
644.027	1960.14
644.079	1964.04
644.131	1954.16
644.182	1988.17
644.234	1955.13
644.286	1959.21
644.337	1958.59
644.389	1973.71
644.441	1986.43
644.493	1979.49
644.544	1977.51
644.596	1980.27
644.648	1969.7
644.699	1991.53
644.751	2019.79
644.803	1973.29
644.854	1971.65
644.906	1997.42
644.958	2011.69
645.009	1978.08
645.061	1995.46
645.113	1993.12
645.164	2009.2
645.216	2019.37
645.268	2010.19
645.32	1977.51
645.371	2010.99
645.423	2018.35
645.475	2019.67
645.526	2004.51
645.578	1997.24
645.63	1999.8
645.681	2013.2
645.733	2010.16
645.785	1993.85
645.836	2022.18
645.888	1999.17
645.94	1992.88
645.991	2072.6
646.043	2071.45
646.095	2062.9
646.146	2026.96
646.198	2040.32
646.25	2078.06
646.301	2007.32
646.353	2044.69
646.405	2055.91
646.456	2013.18
646.508	2056.46
646.56	2030.47
646.611	2055.95
646.663	2042.96
646.715	2064.43
646.766	2035.42
646.818	2060.87
646.87	2041.75
646.921	2061.59
646.973	2065
647.025	2055.05
647.076	2117.92
647.128	2063.31
647.18	2081.1
647.231	2046.9
647.283	2048.97
647.335	2078.36
647.386	2071.49
647.438	2087.42
647.49	2085.86
647.541	2064.09
647.593	2065.01
647.645	2094.73
647.696	2085.42
647.748	2041.77
647.8	2066.88
647.851	2067.25
647.903	2087.97
647.955	2122.91
648.006	2128.38
648.058	2113.3
648.109	2095.11
648.161	2046.75
648.213	2131.24
648.264	2115.92
648.316	2092.94
648.368	2117.83
648.419	2147.98
648.471	2150.8
648.523	2129.87
648.574	2119.21
648.626	2133.75
648.678	2118.67
648.729	2113.98
648.781	2126.09
648.833	2141.97
648.884	2182.82
648.936	2168.56
648.987	2169.52
649.039	2171.26
649.091	2163.32
649.142	2164.82
649.194	2157.47
649.246	2152.37
649.297	2195.7
649.349	2188.45
649.401	2174.25
649.452	2159.65
649.504	2136.54
649.555	2177.72
649.607	2200.96
649.659	2190.58
649.71	2198.9
649.762	2191.14
649.814	2197.32
649.865	2208.43
649.917	2221.54
649.969	2184.6
650.02	2255.07
650.072	2220.04
650.123	2199.54
650.175	2198.47
650.227	2226.21
650.278	2234.32
650.33	2266.11
650.382	2243.59
650.433	2256.34
650.485	2230.3
650.536	2217.46
650.588	2243.3
650.64	2235.54
650.691	2239.72
650.743	2272.8
650.795	2268.72
650.846	2283.97
650.898	2274.44
650.949	2250.32
651.001	2264.96
651.053	2271.82
651.104	2321.24
651.156	2341.27
651.208	2262.73
651.259	2283.21
651.311	2302.77
651.362	2306.51
651.414	2272.24
651.466	2260.66
651.517	2346.83
651.569	2355.14
651.62	2340.8
651.672	2337.32
651.724	2296.18
651.775	2296.86
651.827	2318.99
651.878	2339.05
651.93	2370.73
651.982	2351.52
652.033	2333.64
652.085	2372.06
652.137	2407.57
652.188	2366.2
652.24	2370.54
652.291	2383.71
652.343	2368.1
652.395	2397.21
652.446	2365.22
652.498	2369.74
652.549	2388.36
652.601	2374.38
652.653	2410.01
652.704	2397.09
652.756	2380.76
652.772	2380.16
652.824	2408.08
652.876	2386.36
652.927	2352.36
652.979	2425.78
653.031	2422.12
653.083	2418.73
653.134	2406.96
653.186	2449.39
653.238	2449.31
653.29	2430.55
653.341	2441.96
653.393	2495.32
653.445	2439.8
653.497	2502.86
653.548	2475.44
653.6	2447.1
653.652	2448.44
653.704	2407.66
653.755	2500.47
653.807	2539.93
653.859	2510.86
653.91	2540.23
653.962	2461.51
654.014	2521.45
654.066	2477.41
654.117	2456.04
654.169	2511.79
654.221	2487.71
654.273	2528.15
654.324	2537
654.376	2523.89
654.428	2538.16
654.48	2537.08
654.531	2566.35
654.583	2603.33
654.635	2575.61
654.686	2568.11
654.738	2557.06
654.79	2551.88
654.842	2578.08
654.893	2573.49
654.945	2604.29
654.997	2572.03
655.049	2579.12
655.1	2634.31
655.152	2646.64
655.204	2611.97
655.255	2658.9
655.307	2624.74
655.359	2611.63
655.411	2609.96
655.462	2598.88
655.514	2603.89
655.566	2612.74
655.618	2679.34
655.669	2702.7
655.721	2667.96
655.773	2648.58
655.824	2696.75
655.876	2739.95
655.928	2729.8
655.98	2687.87
656.031	2727.75
656.083	2732.96
656.135	2739
656.186	2723
656.238	2746.88
656.29	2714.73
656.342	2754.14
656.393	2713.2
656.445	2771.82
656.497	2777.15
656.548	2775.9
656.6	2791.9
656.652	2791.26
656.704	2818.23
656.755	2725.98
656.807	2794.6
656.859	2856.43
656.91	2790.37
656.962	2852.39
657.014	2823.25
657.065	2814.63
657.117	2845.23
657.169	2863.06
657.221	2873.43
657.272	2862.7
657.324	2874.84
657.376	2868.08
657.427	2880.48
657.479	2842.12
657.531	2830.31
657.583	2885.34
657.634	2888.7
657.686	2869.98
657.738	2915.8
657.789	2901.23
657.841	2928.61
657.893	2894.95
657.944	2946.05
657.996	2922.51
658.048	2947.97
658.099	2933.45
658.151	2970.98
658.203	2979.79
658.255	2928.44
658.306	2949.27
658.358	2962.95
658.41	2916.73
658.461	2983.58
658.513	2980.6
658.565	2949.76
658.616	3009.97
658.668	2923.82
658.72	2972.52
658.771	2986.85
658.823	3018.08
658.875	3008.11
658.927	2971.92
658.978	3002.41
659.03	2940.93
659.082	2989.5
659.133	3022.54
659.185	2971.98
659.237	3006.28
659.288	2962.73
659.34	3014.51
659.392	3067.88
659.443	2977.14
659.495	3006.48
659.547	3032.8
659.598	2990.89
659.65	2992.55
659.702	3032.77
659.753	3039.35
659.805	3080.29
659.857	3036.46
659.909	3013.34
659.96	3023.54
660.012	3039.26
660.064	3016.28
660.115	3042.81
660.167	3021.78
660.219	3022.06
660.27	3033.31
660.322	3015.27
660.374	2995.72
660.425	3044.37
660.477	3013.95
660.529	3017.48
660.58	3057.85
660.632	3034.6
660.684	3005.19
660.735	3045.32
660.787	3037.61
660.839	3033.46
660.89	3031.2
660.942	3027.33
660.994	3047.81
661.045	3067.45
661.097	3025.94
661.149	3049.72
661.2	3019.81
661.252	3023.04
661.304	3011
661.355	2999.18
661.407	3044.51
661.459	3052.61
661.51	3027.59
661.562	3086.86
661.614	2993.22
661.665	3016.71
661.717	3010.5
661.768	3042.82
661.82	3069.55
661.872	3054.43
661.923	2998.34
661.975	2990.79
662.027	3060.78
662.078	3011.58
662.13	3011.87
662.182	3039.24
662.233	3037.57
662.285	3040.47
662.337	3005.83
662.388	3066.88
662.44	3017.88
662.492	3006.85
662.543	3037.36
662.595	3055.5
662.647	3053.03
662.698	3020.83
662.75	3010.35
662.802	3038.92
662.853	3021.8
662.905	3048.63
662.956	3067.07
663.008	3075.97
663.06	3069.5
663.111	3087.86
663.163	3041.86
663.215	3038.72
663.266	3055.09
663.318	3016.24
663.37	3047.71
663.421	3043.72
663.473	3036.7
663.525	3075.5
663.576	3033.78
663.628	3039.27
663.679	3030.37
663.731	3063.56
663.783	3057.93
663.834	3061.83
663.886	3056.65
663.938	3051.11
663.989	3058.58
664.041	3030.98
664.093	3038.85
664.144	3042.93
664.196	3067.42
664.247	3050
664.299	3016.26
664.351	3044.47
664.402	3019.33
664.454	3037.86
664.506	3064.67
664.557	3069.82
664.609	3027.88
664.66	3043.96
664.712	3030.29
664.764	3090.36
664.815	3079.65
664.867	3081.42
664.919	3053.57
664.97	3047.32
665.022	3022.53
665.073	3077.4
665.125	3088.06
665.177	3074.1
665.228	3041.53
665.28	3044.18
665.332	3042.23
665.383	3027.15
665.435	3007.93
665.486	3032.62
665.538	3042.62
665.59	3035.19
665.641	3061.67
665.693	3029.66
665.745	3046.7
665.796	3025.79
665.848	3033.91
665.899	3044.17
665.951	3039.03
666.003	3037.91
666.054	3019.07
666.106	3020.41
666.157	3031.9
666.209	3016.31
666.261	3041.31
666.312	3049.83
666.364	3024.75
666.415	3073.36
666.467	3019.17
666.519	3035.79
666.57	3025.96
666.622	3001.98
666.673	3027.03
666.725	3020.41
666.777	3053.36
666.828	3032.33
666.88	2994.33
666.931	3014.29
666.983	3027.73
667.035	3026.18
667.086	3034.08
667.138	3050.66
667.189	3048.03
667.241	3039.58
667.293	3073.7
667.344	3001.65
667.396	3007.4
667.447	3051.41
667.499	3020.22
667.551	2994.42
667.602	3048.68
667.654	3019.61
667.705	3034.92
667.757	3026.64
667.809	3048.02
667.86	2987.3
667.912	3067.22
667.963	3041.19
668.015	3054.94
668.067	3056.76
668.118	3019.53
668.17	3065.31
668.221	3007.68
668.273	3054.7
668.325	3042.83
668.376	3047.57
668.428	2999.67
668.479	3004.58
668.531	3017.13
668.582	3023.56
668.634	3032.37
668.686	3057.63
668.737	2994.24
668.789	3044.9
668.84	3023.99
668.892	3049.09
668.944	3019.47
668.995	3041.77
669.047	3031.78
669.098	3049.2
669.15	3044.86
669.201	3069.2
669.253	3063.8
669.305	3025.95
669.356	3011.97
669.408	3041.74
669.459	3007.94
669.511	3053.28
669.562	2986.74
669.614	3045.98
669.666	3042.89
669.717	3015.39
669.769	3062.3
669.82	3053.83
669.872	2995.74
669.923	3047.8
669.975	3057.29
670.027	3021.08
670.078	3069.27
670.13	3035.88
670.181	3042.46
670.233	3038.47
670.284	3043.85
670.336	3019.04
670.388	3021.72
670.439	3017.06
670.491	3014.42
670.542	3059.45
670.594	3011.99
670.645	3051.4
670.697	3037.84
670.748	3063.07
670.8	3040.5
670.852	3033.98
670.903	3034.87
670.955	2998.61
671.006	3015.37
671.058	3061.29
671.109	3045.07
671.161	3035.88
671.212	3041.89
671.264	3045.21
671.316	3065.27
671.367	3063.97
671.419	3057.44
671.47	3048.94
671.522	3039.5
671.573	3036
671.625	3034.21
671.676	3045.29
671.728	3046.96
671.78	3025.91
671.831	3038.95
671.883	3038.19
671.934	3047.41
671.986	3046.5
672.037	3051.55
672.089	3055.35
672.14	3073.58
672.192	3068
672.243	3061.43
672.295	3069.48
672.347	3066.18
672.398	3087.92
672.45	3071.27
672.501	3103.39
672.553	3083.93
672.604	3099.16
672.656	3080.69
672.707	3078.71
672.759	3120.88
672.81	3102.99
672.862	3090.44
672.913	3080.28
672.965	3087.77
673.017	3093.3
673.068	3064.37
673.12	3089.79
673.171	3079.53
673.223	3109.93
673.274	3137.7
673.326	3147.88
673.377	3173.8
673.429	3120.21
673.48	3114.5
673.532	3113.62
673.583	3108.09
673.635	3126.71
673.686	3121.97
673.738	3139.37
673.789	3096.41
673.841	3155.84
673.893	3138.62
673.944	3158.51
673.996	3152.15
674.047	3178.23
674.099	3166.28
674.15	3145.42
674.202	3186.51
674.253	3158.19
674.305	3160.31
674.356	3167.51
674.408	3167.67
674.459	3197.53
674.511	3166.2
674.562	3232.42
674.614	3201.52
674.665	3197.84
674.717	3168.51
674.768	3181.76
674.82	3197.12
674.871	3188.91
674.923	3217.14
674.974	3250.2
675.026	3219.98
675.077	3203.26
675.129	3225.22
675.18	3257.32
675.232	3259.39
675.284	3233.79
675.335	3241.94
675.387	3279.95
675.438	3295.38
675.49	3283.44
675.541	3269.6
675.593	3239.42
675.644	3251.38
675.696	3238.27
675.747	3231
675.799	3250.42
675.85	3294.48
675.902	3286.21
675.953	3274.71
676.005	3274.48
676.056	3279.41
676.108	3268.69
676.159	3278.54
676.211	3295.44
676.262	3303.73
676.314	3283.68
676.365	3280.08
676.417	3314.82
676.468	3290.1
676.52	3291.12
676.571	3254.81
676.623	3269.89
676.674	3294.61
676.726	3260.33
676.777	3235.33
676.828	3264.74
676.88	3268.86
676.932	3304.28
676.983	3300.04
677.034	3288.87
677.086	3293.45
677.137	3288.41
677.189	3314.6
677.24	3311.78
677.292	3304.06
677.343	3290.84
677.395	3298.78
677.446	3309.2
677.498	3298.45
677.549	3290.19
677.601	3295.13
677.652	3291.45
677.704	3284.02
677.755	3311.61
677.807	3297.21
677.858	3277.63
677.91	3297.79
677.961	3297.21
678.013	3255.99
678.064	3266.21
678.116	3314.82
678.167	3338.77
678.219	3343.4
678.27	3324.27
678.322	3300.42
678.373	3284.96
678.424	3293.47
678.476	3301.22
678.527	3307.48
678.579	3299.26
678.63	3276.82
678.682	3279.88
678.733	3305.93
678.785	3282.98
678.836	3280.45
678.888	3321.2
678.939	3276.94
678.991	3248.24
679.042	3296.04
679.094	3307.61
679.122	3290.25
679.173	3316.27
679.225	3238.7
679.277	3321.52
679.328	3313.99
679.38	3288.56
679.432	3260.79
679.483	3393.13
679.535	3265.27
679.586	3341.1
679.638	3318.75
679.69	3336.7
679.741	3332.45
679.793	3321.25
679.844	3377.96
679.896	3369.84
679.948	3298.01
679.999	3274.07
680.051	3318.96
680.103	3387.98
680.154	3276.35
680.206	3326.9
680.257	3373.31
680.309	3370.35
680.361	3337.36
680.412	3365.43
680.464	3349.03
680.515	3367.39
680.567	3337.62
680.619	3360.58
680.67	3341.24
680.722	3351.95
680.773	3361
680.825	3382.79
680.877	3351.17
680.928	3404.71
680.98	3380.11
681.031	3303.68
681.083	3333.45
681.135	3398.56
681.186	3364.7
681.238	3354.94
681.289	3444.89
681.341	3368.47
681.393	3402.8
681.444	3361.01
681.496	3396.02
681.547	3414.49
681.599	3343.8
681.651	3368.46
681.702	3424.95
681.754	3458.81
681.805	3373.64
681.857	3359.68
681.909	3400.38
681.96	3379
682.012	3414.69
682.063	3415.11
682.115	3389
682.166	3410.92
682.218	3390.14
682.27	3428.99
682.321	3426.88
682.373	3394.96
682.424	3446.65
682.476	3419.8
682.528	3429.6
682.579	3404.18
682.631	3452.32
682.682	3459.69
682.734	3460.15
682.785	3458.08
682.837	3438.42
682.889	3355.93
682.94	3470.15
682.992	3483
683.043	3464.53
683.095	3458.88
683.146	3424.63
683.198	3397.34
683.25	3437.98
683.301	3447.17
683.353	3471.78
683.404	3455.13
683.456	3477.56
683.508	3451.51
683.559	3453.48
683.611	3441.85
683.662	3442.92
683.714	3420.1
683.765	3437.54
683.817	3454.07
683.869	3407.29
683.92	3434.1
683.972	3473.87
684.023	3453.28
684.075	3448.85
684.126	3427.16
684.178	3426.44
684.229	3418.4
684.281	3424.76
684.333	3393.61
684.384	3406.08
684.436	3362.82
684.487	3440.99
684.539	3428.91
684.59	3435.12
684.642	3401.71
684.694	3410.9
684.745	3391.58
684.797	3434.03
684.848	3430.39
684.9	3430.01
684.951	3391.9
685.003	3421.65
685.055	3388.02
685.106	3392.91
685.158	3362.93
685.209	3392.08
685.261	3427.1
685.312	3434.68
685.364	3415.07
685.415	3428.33
685.467	3442.33
685.518	3384.88
685.57	3401.38
685.622	3359.13
685.673	3387.04
685.725	3430.04
685.776	3402.31
685.828	3402.91
685.879	3365.73
685.931	3377.3
685.982	3372.69
686.034	3334.8
686.086	3381.3
686.137	3385.16
686.189	3371.87
686.24	3361.4
686.292	3348.79
686.343	3364.17
686.395	3408.59
686.446	3357.44
686.498	3393.33
686.549	3375.03
686.601	3409.49
686.652	3285.61
686.704	3302.32
686.756	3348.77
686.807	3333.57
686.859	3365.21
686.91	3328.4
686.962	3346.83
687.013	3384.12
687.065	3406.58
687.116	3355.45
687.168	3376.24
687.219	3362.76
687.271	3351.63
687.322	3362.86
687.374	3411.2
687.426	3374.11
687.477	3352.16
687.529	3355.94
687.58	3273.13
687.632	3325.31
687.683	3330.9
687.735	3356.93
687.786	3365.64
687.838	3325.61
687.889	3348.37
687.941	3351.33
687.992	3372.79
688.044	3398.47
688.095	3360.06
688.147	3356.96
688.198	3361.63
688.25	3348.56
688.302	3323.4
688.353	3305.81
688.405	3351.02
688.456	3333.11
688.508	3274.32
688.559	3335.99
688.611	3338.15
688.662	3404.45
688.714	3353.56
688.765	3380.83
688.817	3335.37
688.868	3354.69
688.92	3359.52
688.971	3350.78
689.023	3366.31
689.074	3320.65
689.126	3339.73
689.177	3334.82
689.229	3319.91
689.28	3326.21
689.332	3306.15
689.383	3338.22
689.435	3346.18
689.486	3389.69
689.538	3347.7
689.589	3339.16
689.641	3347.51
689.692	3358.63
689.744	3334.04
689.795	3307.52
689.847	3292
689.898	3318.92
689.95	3347.22
690.001	3316.84
690.053	3327.73
690.104	3348.15
690.156	3323.23
690.207	3322.03
690.259	3319.83
690.31	3326.02
690.362	3316.08
690.413	3336.55
690.465	3296.58
690.516	3298.81
690.568	3323.37
690.619	3313.63
690.671	3296.59
690.722	3314.27
690.774	3307.91
690.825	3275.61
690.877	3308.45
690.928	3327.92
690.98	3288.66
691.031	3289.61
691.083	3272.76
691.134	3292.22
691.186	3310.31
691.237	3291.73
691.289	3288.05
691.34	3278.68
691.392	3293.33
691.443	3289.72
691.495	3316.84
691.546	3289.28
691.598	3293.12
691.649	3275.38
691.701	3279.18
691.752	3266.96
691.804	3307.26
691.855	3272.67
691.907	3306.69
691.958	3285.96
692.01	3286.57
692.061	3269.53
692.113	3259.34
692.164	3304.57
692.216	3256.79
692.267	3271.64
692.319	3260.42
692.37	3268.28
692.421	3265.25
692.473	3297.13
692.524	3240.03
692.576	3233.63
692.627	3263.21
692.679	3276.65
692.73	3242.26
692.782	3214.31
692.833	3235.22
692.885	3209.02
692.936	3252.76
692.988	3271.27
693.039	3272.16
693.091	3251.68
693.142	3224.6
693.194	3186.98
693.245	3202.46
693.297	3234.89
693.348	3241.58
693.399	3218.37
693.451	3238.64
693.502	3197.9
693.554	3183.09
693.605	3235.57
693.657	3173.09
693.708	3216.23
693.76	3216.72
693.811	3194.35
693.863	3205.4
693.914	3195.39
693.966	3215.97
694.017	3209.61
694.068	3198.29
694.12	3200.28
694.171	3202.28
694.223	3244.04
694.274	3203.37
694.326	3143.39
694.377	3184.46
694.429	3200.31
694.48	3217.45
694.532	3196.31
694.583	3178.29
694.634	3201.19
694.686	3189.94
694.737	3201.37
694.789	3204.14
694.84	3179.05
694.892	3182.61
694.943	3166.12
694.995	3172.99
695.046	3200.14
695.097	3184.2
695.149	3179.48
695.2	3168.25
695.252	3161.72
695.303	3162.1
695.355	3186.29
695.406	3134.48
695.458	3185.4
695.509	3199.73
695.56	3166.83
695.612	3178.66
695.663	3141.94
695.715	3154.57
695.766	3164.53
695.818	3153.78
695.869	3169.39
695.921	3154
695.972	3179.05
696.023	3174.08
696.075	3107
696.126	3134.37
696.178	3112.05
696.229	3180.62
696.281	3175.85
696.332	3131.36
696.383	3152.51
696.435	3147.46
696.486	3142.91
696.538	3141.63
696.589	3123.33
696.641	3140.36
696.692	3152.32
696.744	3081.46
696.795	3122.46
696.846	3143.55
696.898	3122.99
696.949	3108.27
697.001	3127.87
697.052	3122.44
697.104	3106.54
697.155	3083.7
697.206	3107.33
697.258	3119.62
697.309	3128.93
697.361	3130.82
697.412	3088.46
697.463	3081.13
697.515	3093.21
697.566	3093.63
697.618	3106.62
697.669	3096.39
697.721	3109.26
697.772	3113.96
697.823	3126.54
697.875	3092.32
697.926	3084.48
697.978	3070.06
698.029	3079.97
698.08	3032.16
698.132	3058.02
698.183	3081.57
698.235	3066.5
698.286	3026.58
698.338	3072.36
698.389	3085.04
698.44	3045.6
698.492	3024.08
698.543	3051.53
698.595	3073.31
698.646	3067.85
698.697	3037.86
698.749	3051.2
698.8	3060.69
698.852	3049.52
698.903	3036.03
698.954	3024.46
699.006	3040.8
699.057	3060.35
699.109	3074.81
699.16	3042.84
699.211	3023.95
699.263	3016.7
699.314	2988.01
699.366	3018.77
699.417	3039.23
699.468	3000.83
699.52	2999.48
699.571	3010.15
699.623	3028.3
699.674	3026.04
699.725	3029.5
699.777	3021.5
699.828	3020.99
699.88	3025.11
699.931	3018.86
699.982	3040.35
700.034	3018.39
700.085	2977.4
700.137	2967.61
700.188	2960.11
700.239	3001.65
700.291	2994.48
700.342	2997.01
700.393	3014.23
700.445	3002.49
700.496	3001.5
700.548	3003.35
700.599	2967.12
700.65	3004.29
700.702	3024.55
700.753	2979.83
700.805	2969.87
700.856	3018.78
700.907	3029.47
700.959	3034.16
701.01	3035.43
701.061	2980.69
701.113	2975.55
701.164	2999.64
701.216	2987.55
701.267	2999.7
701.318	3021.91
701.37	3010.07
701.421	3014.77
701.472	3012.04
701.524	3005.89
701.575	3009.11
701.627	2996.89
701.678	2971.51
701.729	2989.72
701.781	3010.12
701.832	3004.97
701.883	3004.3
701.935	3000.78
701.986	3006.92
702.038	3012.4
702.089	3029.91
702.14	3047.9
702.192	3026.72
702.243	3037.22
702.294	3019.75
702.346	3010.92
702.397	3002.34
702.448	3001.95
702.5	3010.76
702.551	3035.56
702.603	2998.91
702.654	2976.8
702.705	2988.94
702.757	2984.05
702.808	2999.56
702.859	2976.35
702.911	2984.5
702.962	3004.34
703.013	3020.15
703.065	3030.5
703.116	3004.14
703.167	2989.95
703.219	2995.12
703.27	2999.72
703.322	2982.07
703.373	2982.22
703.424	2991.22
703.476	2971.17
703.527	2972.54
703.578	2994.22
703.63	3005.72
703.681	2983.61
703.732	2957.41
703.784	2958.17
703.835	2961.16
703.886	2967.31
703.938	2973.93
703.989	2978.96
704.04	2959.99
704.092	2964.99
704.143	2973.51
704.194	2959.64
704.246	2942.53
704.297	2946.37
704.348	2965.84
704.4	2970.29
704.451	2966.61
704.503	2950.24
704.554	2931.46
704.605	2955.91
704.656	2955.49
704.708	2956.29
704.759	2968.21
704.81	2938.79
704.862	2949
704.913	2974.19
704.964	2952.86
705.016	2915.62
705.067	2912.45
705.119	2925.63
705.17	2953.5
705.221	2936.16
705.273	2881.54
705.324	2926.77
705.375	2926.48
705.408	2906
705.459	2884
705.511	2918.06
705.562	2898.32
705.614	2932.32
705.665	2904.46
705.717	2864.92
705.768	2904.64
705.82	2860.92
705.871	2920.53
705.923	2887.39
705.974	2924.5
706.026	2870.06
706.077	2917.55
706.129	2849.14
706.18	2853.33
706.232	2915.94
706.283	2925.28
706.335	2856.41
706.386	2896.52
706.438	2845.39
706.489	2886.21
706.541	2855.92
706.592	2886.85
706.643	2895.98
706.695	2825.44
706.746	2884.51
706.798	2848.32
706.849	2825.22
706.901	2878.33
706.952	2861.98
707.004	2884.8
707.055	2858.93
707.107	2866.69
707.158	2821.02
707.21	2830.67
707.261	2797.14
707.313	2825.91
707.364	2809.44
707.416	2794.74
707.467	2855.07
707.518	2823.25
707.57	2815.53
707.621	2750.52
707.673	2833.23
707.724	2757.64
707.776	2865.41
707.827	2829.19
707.879	2861.45
707.93	2809.23
707.982	2821.32
708.033	2798.81
708.084	2805.78
708.136	2822.57
708.187	2785
708.239	2819.43
708.29	2819.6
708.342	2811.18
708.393	2779.25
708.445	2791.18
708.496	2789.29
708.548	2725.62
708.599	2804.52
708.651	2758.06
708.702	2794.02
708.753	2798.32
708.805	2761.48
708.856	2782.01
708.908	2797.81
708.959	2780.38
709.011	2786.93
709.062	2755.73
709.114	2781.95
709.165	2759.99
709.216	2781.99
709.268	2781.97
709.319	2804.22
709.371	2800.22
709.422	2783.41
709.474	2756.89
709.525	2763.73
709.577	2726.16
709.628	2746.28
709.679	2780.16
709.731	2768.94
709.782	2731.27
709.834	2737.53
709.885	2770.3
709.937	2789.46
709.988	2769.06
710.039	2734.85
710.091	2745.37
710.142	2793.57
710.194	2769.65
710.245	2751.29
710.297	2734.26
710.348	2742.51
710.4	2726.55
710.451	2754.03
710.502	2722.39
710.554	2765.86
710.605	2729.99
710.657	2739.94
710.708	2750.14
710.76	2711.18
710.811	2737.9
710.862	2726.55
710.914	2706.4
710.965	2726.46
711.017	2726.44
711.068	2747.52
711.12	2744.03
711.171	2681.69
711.222	2712.63
711.274	2706.94
711.325	2701.49
711.377	2717
711.428	2702.88
711.479	2712.91
711.531	2664.76
711.582	2759.41
711.634	2684.12
711.685	2709.64
711.737	2669.27
711.788	2733.56
711.839	2698.12
711.891	2685.29
711.942	2688.6
711.994	2676.8
712.045	2691.04
712.096	2636.38
712.148	2673.16
712.199	2674.12
712.251	2666.03
712.302	2694.11
712.354	2656.03
712.405	2669.96
712.456	2686.43
712.508	2648.73
712.559	2638.52
712.611	2654.11
712.662	2643.28
712.713	2660.11
712.765	2615.08
712.816	2653.72
712.868	2626.81
712.919	2610.66
712.97	2648.4
713.022	2620.47
713.073	2666.45
713.125	2577.47
713.176	2574.43
713.227	2574.28
713.279	2590.59
713.33	2604.37
713.382	2602.46
713.433	2607.64
713.484	2614.53
713.536	2548.21
713.587	2631.04
713.639	2625.16
713.69	2634.5
713.741	2573.55
713.793	2600.21
713.844	2587.87
713.896	2587.7
713.947	2546.41
713.998	2595.49
714.05	2521.53
714.101	2531.59
714.153	2563.27
714.204	2523.83
714.255	2546.12
714.307	2535.43
714.358	2532.11
714.41	2500.84
714.461	2561.3
714.512	2558.73
714.564	2535.71
714.615	2531.05
714.666	2518.14
714.718	2521.87
714.769	2532.76
714.821	2556.07
714.872	2524.1
714.923	2526.48
714.975	2545.09
715.026	2546.97
715.078	2488.24
715.129	2507.75
715.18	2494.94
715.232	2543.67
715.283	2517.31
715.334	2521.96
715.386	2529.63
715.437	2490.98
715.489	2468.47
715.54	2508.34
715.591	2512.13
715.643	2499.66
715.694	2476.04
715.745	2505.9
715.797	2456.21
715.848	2502.53
715.9	2539.24
715.951	2494.86
716.002	2520.42
716.054	2495.22
716.105	2491.68
716.156	2471.32
716.208	2476.74
716.259	2466.53
716.31	2481.97
716.362	2495.14
716.413	2450.24
716.465	2452.28
716.516	2466.35
716.567	2478.33
716.619	2469.21
716.67	2468.37
716.721	2444.97
716.773	2478.28
716.824	2471.46
716.875	2470.93
716.927	2459.24
716.978	2446.62
717.03	2469.93
717.081	2438.72
717.132	2466.28
717.184	2438.8
717.235	2442.08
717.286	2450.92
717.338	2379.79
717.389	2411.68
717.44	2404.71
717.492	2424.12
717.543	2442.33
717.594	2437.63
717.646	2431.57
717.697	2416.55
717.749	2440.5
717.8	2410.4
717.851	2394.04
717.903	2400.08
717.954	2441.46
718.005	2412.33
718.057	2429.63
718.108	2424.08
718.159	2391.78
718.211	2404.37
718.262	2377.89
718.313	2376.16
718.365	2401.64
718.416	2372.59
718.467	2384.72
718.519	2400.54
718.57	2405.82
718.621	2419.95
718.673	2416.45
718.724	2409.38
718.775	2400.63
718.827	2392.49
718.878	2393.93
718.93	2351.89
718.981	2388.18
719.032	2385.35
719.083	2387.44
719.135	2350.89
719.186	2354.38
719.237	2391.59
719.289	2386.94
719.34	2365.4
719.391	2384.83
719.443	2379.85
719.494	2365.15
719.545	2357.36
719.597	2338.73
719.648	2366.65
719.699	2376.06
719.751	2365.53
719.802	2400.02
719.853	2352.51
719.905	2326.53
719.956	2324.88
720.007	2318.66
720.059	2312.42
720.11	2336.8
720.161	2346.21
720.213	2313.61
720.264	2324.1
720.315	2288.45
720.367	2310.86
720.418	2333.01
720.469	2328.7
720.521	2331.34
720.572	2317.05
720.623	2347.27
720.675	2300.31
720.726	2305.29
720.777	2302.79
720.829	2302.7
720.88	2286.12
720.931	2284.29
720.982	2291.51
721.034	2292.7
721.085	2291.38
721.136	2292.11
721.188	2315.49
721.239	2272.4
721.29	2274.92
721.342	2262.33
721.393	2278.13
721.444	2274.84
721.496	2279.61
721.547	2271.51
721.598	2270.82
721.65	2268.8
721.701	2240.78
721.752	2225.74
721.803	2254.15
721.855	2261.13
721.906	2270.33
721.957	2261.99
722.009	2254.24
722.06	2246.38
722.111	2249.87
722.163	2205.55
722.214	2219.62
722.265	2245.56
722.316	2240.15
722.368	2232.55
722.419	2230.34
722.47	2218.24
722.522	2220.48
722.573	2220.88
722.624	2209.84
722.676	2229.45
722.727	2241.59
722.778	2221.46
722.829	2196.63
722.881	2194.96
722.932	2164.03
722.983	2214.13
723.035	2211.78
723.086	2197.19
723.137	2195.35
723.188	2190.43
723.24	2172.24
723.291	2196.32
723.342	2193.17
723.394	2177.13
723.445	2205.91
723.496	2207.37
723.547	2196.73
723.599	2193.43
723.65	2193.46
723.701	2178.92
723.753	2151.25
723.804	2148.38
723.855	2171.2
723.906	2167.83
723.958	2186.42
724.009	2181.54
724.06	2144.57
724.112	2161
724.163	2168.68
724.214	2174.9
724.265	2138.76
724.317	2132.68
724.368	2157.35
724.419	2141.86
724.47	2151.28
724.522	2176.32
724.573	2167.03
724.624	2143.04
724.676	2124.22
724.727	2112.96
724.778	2136.24
724.829	2154.2
724.881	2135.72
724.932	2115.45
724.983	2121.1
725.034	2136.89
725.086	2142.75
725.137	2113.46
725.188	2101.51
725.24	2112.83
725.291	2127.04
725.342	2125.44
725.393	2122.33
725.445	2112.99
725.496	2116.01
725.547	2105.46
725.598	2103.84
725.65	2133.06
725.701	2117.4
725.752	2116.31
725.803	2138
725.855	2105.06
725.906	2106.14
725.957	2127.25
726.008	2105.35
726.06	2086.57
726.111	2120.14
726.162	2104.06
726.213	2074.54
726.265	2070.43
726.316	2108.38
726.367	2098.5
726.418	2109.15
726.47	2112.35
726.521	2093.43
726.572	2085.64
726.623	2055.77
726.675	2061.26
726.726	2069.38
726.777	2056.17
726.828	2054.26
726.88	2068.2
726.931	2043.16
726.982	2037.13
727.033	2037.24
727.085	2041.16
727.136	2016.02
727.187	2024.32
727.238	2057.18
727.29	2055.94
727.341	2046.47
727.392	2041.3
727.443	2036.61
727.495	2030.79
727.546	2003.37
727.597	2044.57
727.648	2033.26
727.7	2017.1
727.751	2057.06
727.802	2024.93
727.853	2009.59
727.904	2026.07
727.956	2024.9
728.007	2035.47
728.058	2038.64
728.109	2011.89
728.161	2041.62
728.212	1999.47
728.263	2006.36
728.314	2016.82
728.366	1994.83
728.417	1988.68
728.468	1992.28
728.519	1964.25
728.57	1994.9
728.622	1987.63
728.673	1997.93
728.724	1978.52
728.775	1996.18
728.827	2023.43
728.878	2015.37
728.929	1992.8
728.98	1954.53
729.031	1983.59
729.083	1970.33
729.134	1950.38
729.185	1969.36
729.236	1959.68
729.288	1906.04
729.339	1957.16
729.39	1970.85
729.441	1957.85
729.492	1939.27
729.544	1945.65
729.595	1934.67
729.646	1925.41
729.697	1916.95
729.748	1926.82
729.8	1934.37
729.851	1914.76
729.902	1921.24
729.953	1940.05
730.004	1905.67
730.056	1901.49
730.107	1919.36
730.158	1897.53
730.209	1921.72
730.26	1889.83
730.312	1860.45
730.363	1921.9
730.414	1899.53
730.465	1856.09
730.517	1900.24
730.568	1882.78
730.619	1873.69
730.67	1868.3
730.721	1909.26
730.773	1875.95
730.824	1886.17
730.875	1851.83
730.926	1883.9
730.977	1808.04
731.029	1816.26
731.08	1848.61
731.131	1824.51
731.182	1850.12
731.233	1856.02
731.284	1832.2
731.336	1886.71
731.387	1819.57
731.438	1846.51
731.489	1878.12
731.54	1840.44
731.592	1872.17
731.643	1872.04
731.643	1872
731.694	1844
731.746	1840
731.797	1812.09
731.848	1850.15
731.9	1834.19
731.951	1840.28
732.002	1836.21
732.054	1854.28
732.105	1822.42
732.156	1804.59
732.208	1800.98
732.259	1796.01
732.311	1854.57
732.362	1852.77
732.413	1844.98
732.465	1804.48
732.516	1821.54
732.567	1832.81
732.619	1812.26
732.67	1782.45
732.721	1790.61
732.773	1777.48
732.824	1801.9
732.875	1806.41
732.927	1850.55
732.978	1835.79
733.029	1771.82
733.081	1776.1
733.132	1776.38
733.183	1768.12
733.235	1788.62
733.286	1728.72
733.337	1803.16
733.389	1821.78
733.44	1809.01
733.491	1765.89
733.543	1805.01
733.594	1794.45
733.645	1821.46
733.697	1837.67
733.748	1798.75
733.799	1821.93
733.851	1814.79
733.902	1828.99
733.953	1834.96
734.005	1780.63
734.056	1822.64
734.107	1802.58
734.158	1813.42
734.21	1796.95
734.261	1801.16
734.312	1797.56
734.364	1775.85
734.415	1755.42
734.466	1790.91
734.518	1818.94
734.569	1761.13
734.62	1784.18
734.672	1806.34
734.723	1823.08
734.774	1789.57
734.826	1786.68
734.877	1792.66
734.928	1780.6
734.98	1798.2
735.031	1770.38
735.082	1738.76
735.133	1769.49
735.185	1810.93
735.236	1813.62
735.287	1819.45
735.339	1763.87
735.39	1790.93
735.441	1747.69
735.493	1818.9
735.544	1763.44
735.595	1725.19
735.647	1798.46
735.698	1784.97
735.749	1791.02
735.8	1785.28
735.852	1811.09
735.903	1773.09
735.954	1784.2
736.006	1784.64
736.057	1783.99
736.108	1779.32
736.16	1796.71
736.211	1779.15
736.262	1803.03
736.313	1796.06
736.365	1812.52
736.416	1789.05
736.467	1787.47
736.519	1743.54
736.57	1820.74
736.621	1783.77
736.673	1787.24
736.724	1811.83
736.775	1775.18
736.826	1800.3
736.878	1812.79
736.929	1834.74
736.98	1802.56
737.032	1798.5
737.083	1769.19
737.134	1814.79
737.185	1856.85
737.237	1813.34
737.288	1860.99
737.339	1810.94
737.391	1809.18
737.442	1818.62
737.493	1827.32
737.544	1803.88
737.596	1806.66
737.647	1822.64
737.698	1824.49
737.75	1833.22
737.801	1839.89
737.852	1820.12
737.903	1823.97
737.955	1844.37
738.006	1810.75
738.057	1826.16
738.109	1844.03
738.16	1820.76
738.211	1830.7
738.262	1818.22
738.314	1817.23
738.365	1799.48
738.416	1854.87
738.468	1797.95
738.519	1819.06
738.57	1849.67
738.621	1819.17
738.673	1825.49
738.724	1801.4
738.775	1834.34
738.826	1814.14
738.878	1816.06
738.929	1793.95
738.98	1806.51
739.031	1801.36
739.083	1803.02
739.134	1785.7
739.185	1775.01
739.237	1790.58
739.288	1773.58
739.339	1794.9
739.39	1812.37
739.442	1765.24
739.493	1784.89
739.544	1760.64
739.595	1779.52
739.647	1760.42
739.698	1755.7
739.749	1761.92
739.8	1764.79
739.852	1743.68
739.903	1762.74
739.954	1753.67
740.005	1764.01
740.057	1736.86
740.108	1752.15
740.159	1712.34
740.211	1728.69
740.262	1697.9
740.313	1713.73
740.364	1719.61
740.416	1708.94
740.467	1714.39
740.518	1713.04
740.569	1710.98
740.621	1697.6
740.672	1709.6
740.723	1680.21
740.774	1714.45
740.826	1680.5
740.877	1696.2
740.928	1666.95
740.979	1670.97
741.031	1694.08
741.082	1695.82
741.133	1698.6
741.184	1687.71
741.235	1664.76
741.287	1686.68
741.338	1673.05
741.389	1681.12
741.44	1669.61
741.492	1673.07
741.543	1650.78
741.594	1671.4
741.645	1653.05
741.697	1679.06
741.748	1646.09
741.799	1632.93
741.85	1636.8
741.902	1647.57
741.953	1623.14
742.004	1631.07
742.055	1624.87
742.107	1616.52
742.158	1626.2
742.209	1631.53
742.26	1634.27
742.311	1630.32
742.363	1644.58
742.414	1637.97
742.465	1635.63
742.516	1619.68
742.568	1624.39
742.619	1635.51
742.67	1627.72
742.721	1596.27
742.773	1607.63
742.824	1618.08
742.875	1635.42
742.926	1603.23
742.977	1600.07
743.029	1596.63
743.08	1590.36
743.131	1619.59
743.182	1603.77
743.234	1588.37
743.285	1594.84
743.336	1586.66
743.387	1590.75
743.438	1600.62
743.49	1564.67
743.541	1576.52
743.592	1588.96
743.643	1585.35
743.694	1573.28
743.746	1575.05
743.797	1573.61
743.848	1592.91
743.899	1576.21
743.951	1593.79
744.002	1561.31
744.053	1578.03
744.104	1571.04
744.155	1576.93
744.207	1560.83
744.258	1548.24
744.309	1565.28
744.36	1554.09
744.411	1552.17
744.463	1535.97
744.514	1541.25
744.565	1546.86
744.616	1552.64
744.667	1528.49
744.719	1524.79
744.77	1541.13
744.821	1563
744.872	1542.56
744.923	1530.96
744.975	1541.19
745.026	1538.8
745.077	1532.69
745.128	1539.8
745.179	1543.49
745.231	1527.09
745.282	1543.12
745.333	1529.66
745.384	1513.93
745.435	1514.39
745.487	1539.09
745.538	1516.61
745.589	1516.29
745.64	1540.32
745.691	1526.87
745.743	1521.69
745.794	1548.19
745.845	1493.55
745.896	1516.77
745.947	1507.87
745.998	1517.28
746.05	1516.94
746.101	1504.35
746.152	1502.9
746.203	1502.98
746.254	1510.83
746.306	1527.04
746.357	1513.46
746.408	1503.48
746.459	1496.82
746.51	1502.87
746.562	1476.22
746.613	1516.93
746.664	1513.22
746.715	1490.76
746.766	1493.74
746.817	1502.36
746.869	1487.97
746.92	1489.56
746.971	1495.23
747.022	1467.84
747.073	1465.53
747.125	1474.22
747.176	1489.04
747.227	1486.65
747.278	1482.17
747.329	1483.13
747.38	1480.9
747.432	1472.38
747.483	1455.56
747.534	1468.63
747.585	1464.02
747.636	1457.95
747.687	1445.07
747.739	1453.92
747.79	1465.46
747.841	1471.45
747.892	1458.93
747.943	1490.09
747.994	1462.74
748.046	1479.69
748.097	1490.53
748.148	1455.7
748.199	1454.53
748.25	1432.65
748.301	1423.69
748.352	1412.45
748.404	1422.05
748.455	1458.57
748.506	1445.56
748.557	1450.35
748.608	1448.49
748.659	1438.97
748.711	1438.75
748.762	1429.25
748.813	1430.31
748.864	1448.63
748.915	1454.8
748.966	1443.84
749.018	1440.66
749.069	1442.96
749.12	1435.63
749.171	1446.15
749.222	1426.41
749.273	1421.74
749.324	1411.52
749.376	1391.85
749.427	1434.85
749.478	1422.3
749.529	1420.7
749.58	1445.18
749.631	1407.61
749.682	1425.15
749.734	1437.46
749.785	1419.14
749.836	1439.26
749.887	1419.56
749.938	1396.37
749.989	1405.89
750.04	1419.89
750.092	1421.24
750.143	1422.07
750.194	1413.15
750.245	1431.59
750.296	1423.73
750.347	1412.28
750.398	1409.47
750.45	1406.22
750.501	1395.02
750.552	1406.75
750.603	1394.43
750.654	1382.87
750.705	1380.2
750.756	1403.44
750.807	1390.9
750.859	1385.24
750.91	1399.98
750.961	1374.97
751.012	1384.83
751.063	1394.23
751.114	1397.79
751.165	1395.71
751.216	1372.28
751.268	1365.99
751.319	1396.28
751.37	1364.61
751.421	1359.46
751.472	1390.62
751.523	1379.05
751.574	1372.37
751.625	1346.28
751.677	1372.15
751.728	1368.55
751.779	1369.93
751.83	1391.02
751.881	1366.15
751.932	1347.68
751.983	1356
752.034	1353.05
752.086	1358.55
752.137	1356.11
752.188	1372.41
752.239	1354.44
752.29	1342.62
752.341	1331.91
752.392	1326.64
752.443	1335.71
752.494	1359.15
752.546	1339.29
752.597	1353.52
752.648	1314.92
752.699	1353.72
752.75	1375.74
752.801	1347.32
752.852	1338.83
752.903	1296.93
752.954	1331.78
753.005	1334.6
753.057	1321.05
753.108	1337.42
753.159	1298.44
753.21	1331.97
753.261	1337.86
753.312	1321.7
753.363	1320.82
753.414	1328.99
753.465	1299.99
753.516	1302.78
753.568	1302.37
753.619	1317.98
753.67	1340.5
753.721	1299.23
753.772	1305.19
753.823	1323.83
753.874	1306.41
753.925	1305.13
753.976	1288.49
754.027	1307.04
754.079	1303.65
754.13	1274.83
754.181	1304.49
754.232	1282.55
754.283	1290.08
754.334	1265.59
754.385	1282.62
754.436	1277.34
754.487	1260.34
754.538	1244.65
754.589	1290.53
754.641	1292.56
754.692	1256.42
754.743	1290.24
754.794	1271.66
754.845	1303.28
754.896	1284.37
754.947	1285.51
754.998	1277.82
755.049	1240.55
755.1	1293.55
755.151	1256.87
755.202	1290.43
755.253	1282.57
755.305	1274.22
755.356	1259.73
755.407	1264.78
755.458	1247.89
755.509	1270.2
755.56	1227.14
755.611	1243.52
755.662	1263.41
755.713	1227.19
755.764	1252.17
755.815	1246.55
755.866	1237.08
755.917	1238.69
755.968	1235.63
756.02	1208.68
756.071	1235.44
756.122	1224.76
756.173	1191.85
756.224	1256.1
756.275	1246.22
756.326	1224.89
756.377	1193.19
756.428	1261.46
756.479	1257.76
756.53	1212.57
756.581	1230.25
756.632	1233.73
756.683	1201.19
756.734	1216.97
756.785	1189.83
756.837	1205.35
756.888	1210.32
756.939	1179.5
756.99	1203.92
757.041	1207.72
757.092	1216.88
757.143	1209.46
757.194	1196.75
757.245	1199.42
757.296	1208.6
757.347	1221.51
757.398	1196.26
757.449	1211.93
757.5	1199.42
757.551	1208.39
757.602	1203.65
757.653	1227.28
757.704	1203.13
757.755	1229.71
757.807	1194
757.858	1217.77
757.909	1205.67
757.917	1202
757.968	1204
758.02	1198.1
758.071	1195.99
758.122	1197.84
758.173	1169.94
758.224	1187.8
758.276	1159.85
758.327	1201.5
758.378	1180.14
758.429	1182.1
758.48	1176.26
758.532	1158.66
758.583	1177.54
758.634	1170.26
758.685	1198.2
758.736	1186.99
758.788	1162.36
758.839	1168.69
758.89	1157.05
758.941	1177.95
758.992	1166.61
759.044	1188.57
759.095	1183.86
759.146	1149.34
759.197	1166.9
759.248	1162.05
759.3	1174.37
759.351	1141.3
759.402	1161.42
759.453	1117.69
759.504	1169.03
759.556	1127.37
759.607	1170.41
759.658	1163.02
759.709	1158.81
759.76	1123.8
759.811	1164.56
759.863	1099.5
759.914	1129.91
759.965	1109.43
760.016	1146.53
760.067	1163.57
760.119	1127.86
760.17	1130.53
760.221	1120.68
760.272	1145.77
760.323	1155.62
760.375	1133.51
760.426	1128.17
760.477	1136.49
760.528	1090.04
760.579	1105.01
760.63	1113.35
760.682	1121.27
760.733	1099.91
760.784	1126.1
760.835	1124.85
760.886	1096.51
760.937	1086.86
760.989	1119.78
761.04	1102.07
761.091	1095.08
761.142	1102.25
761.193	1114
761.245	1114.85
761.296	1112.8
761.347	1098.52
761.398	1099.98
761.449	1092.28
761.5	1122.22
761.552	1126.08
761.603	1098.09
761.654	1082.96
761.705	1093.26
761.756	1077.92
761.807	1092.76
761.859	1057.5
761.91	1084.67
761.961	1082.32
762.012	1093.71
762.063	1058.81
762.114	1061.6
762.165	1079.06
762.217	1057.34
762.268	1080.23
762.319	1079.57
762.37	1085.04
762.421	1080.32
762.472	1083.82
762.524	1096.07
762.575	1066.87
762.626	1083.9
762.677	1086.78
762.728	1070.17
762.779	1079.54
762.831	1056.72
762.882	1033.88
762.933	1060.15
762.984	1089.73
763.035	1058.13
763.086	1066.96
763.137	1061.86
763.189	1050.08
763.24	1073.15
763.291	1063.12
763.342	1062.49
763.393	1069.67
763.444	1042.06
763.495	1049.26
763.547	1037.48
763.598	1041.71
763.649	1035.38
763.7	1049.57
763.751	1044.95
763.802	1031.98
763.853	1024.36
763.905	1043.12
763.956	1066.5
764.007	1011.33
764.058	1028.29
764.109	1048.97
764.16	1022.63
764.211	1043.03
764.263	1020.74
764.314	1048.42
764.365	1034.79
764.416	1036.32
764.467	1035.87
764.518	1031.35
764.569	1030.34
764.621	1032.37
764.672	1006
764.723	1006.71
764.774	1026.56
764.825	1031.59
764.876	1001.95
764.927	1021.5
764.978	1026.47
765.03	984.203
765.081	1026.44
765.132	1020.77
765.183	1023.37
765.234	1006.37
765.285	1004.19
765.336	1000.18
765.387	995.127
765.439	1019.77
765.49	1024.76
765.541	989.298
765.592	1004.19
765.643	1002.15
765.694	1005.33
765.745	1008.07
765.796	1008.91
765.848	975.209
765.899	987.167
765.95	1004.37
766.001	1006.15
766.052	994.636
766.103	1010.54
766.154	990.746
766.205	1009.46
766.256	995.039
766.308	986.446
766.359	988.909
766.41	979.19
766.461	978.979
766.512	967.563
766.563	980.959
766.614	984.17
766.665	966.858
766.716	979.806
766.768	991.937
766.819	992.188
766.87	961.121
766.921	973.452
766.972	978.613
767.023	977.881
767.074	969.132
767.125	952.372
767.176	965.51
767.227	952.311
767.279	961.605
767.33	980.184
767.381	948.62
767.432	950.983
767.483	954.84
767.534	962.06
767.585	954.219
767.636	970.946
767.687	974.559
767.739	946.029
767.79	920.138
767.841	946.35
767.892	943.5
767.943	947.491
767.994	961.767
768.045	939.332
768.096	949.315
768.147	928.163
768.198	950.071
768.249	951.307
768.301	923.858
768.352	942.843
768.403	949.493
768.454	930.674
768.505	937.459
768.556	925.153
768.607	920.666
768.658	925.577
768.709	921.342
768.76	909.145
768.811	921.555
768.862	937.696
768.914	908.701
768.965	927.893
769.016	928.241
769.067	915.251
769.118	926.376
769.169	933.227
769.22	922.064
769.271	915.343
769.322	916.285
769.373	937.46
769.424	907.827
769.475	902.089
769.526	906.2
769.578	927.244
769.629	890.135
769.68	889.046
769.731	902.9
769.782	900.5
769.833	886.963
769.884	913.884
769.935	891.486
769.986	872.726
770.037	886.739
770.088	887.264
770.139	898.07
770.19	883.713
770.242	885.024
770.293	887.618
770.344	908.106
770.395	856.872
770.446	882.105
770.497	898.698
770.548	884.063
770.599	878.908
770.65	896.272
770.701	879.589
770.752	883.785
770.803	874.474
770.854	891.985
770.905	859.371
770.956	877.538
771.007	887.694
771.058	864.504
771.11	874.994
771.161	888.554
771.212	850.064
771.263	858.266
771.314	857.164
771.365	876.987
771.416	854.511
771.467	860.052
771.518	850.263
771.569	865.361
771.62	865.233
771.671	854.46
771.722	853.961
771.773	852.473
771.824	857.917
771.875	846.852
771.926	843.405
771.977	841.44
772.028	836.997
772.079	864.418
772.131	846.315
772.182	853.523
772.233	853.521
772.284	832.054
772.335	837.283
772.386	832.727
772.437	835.229
772.488	839.775
772.539	849.965
772.59	820.616
772.641	823.652
772.692	805.567
772.743	844.451
772.794	816.795
772.845	833.639
772.896	847.073
772.947	824.776
772.998	828.909
773.049	813.648
773.1	815.777
773.151	837.784
773.202	828.314
773.253	831.431
773.304	819.115
773.355	821.546
773.406	809.383
773.457	826.343
773.508	815.323
773.56	818.055
773.611	791.136
773.662	810.583
773.713	809.776
773.764	813.397
773.815	811.931
773.866	821.551
773.917	809.117
773.968	810.674
774.019	790.466
774.07	810.212
774.121	813.264
774.172	796.947
774.223	798.966
774.274	805.016
774.325	800.782
774.376	785.65
774.427	792.562
774.478	781.056
774.529	804.712
774.58	806.831
774.631	796.144
774.682	794.451
774.733	793.193
774.784	796.389
774.835	800.932
774.886	792.33
774.937	784.36
774.988	790.796
775.039	771.031
775.09	763.496
775.141	770.995
775.192	788.168
775.243	767.8
775.294	781.48
775.345	787.619
775.396	768.824
775.447	785.529
775.498	781.891
775.549	778.743
775.6	775.854
775.651	770.295
775.702	770.617
775.753	772.497
775.804	752.278
775.855	761.565
775.906	785.027
775.957	781.716
776.008	751.287
776.059	763.633
776.11	764.901
776.161	766.664
776.212	749.939
776.263	757.924
776.314	765.468
776.365	756.959
776.416	760.676
776.467	761.099
776.518	754.074
776.569	765.3
776.62	761.529
776.671	753.082
776.722	746.698
776.773	743.131
776.824	729.977
776.875	745.078
776.926	743.024
776.977	744.058
777.028	738.476
777.079	733.105
777.13	727.439
777.181	734.89
777.232	745.079
777.283	747.836
777.334	732.363
777.385	725.905
777.436	725.338
777.487	727.218
777.538	731.131
777.589	725.295
777.64	720.738
777.691	733.219
777.742	727.433
777.793	729.518
777.844	728.497
777.895	729.97
777.946	733.62
777.997	720.02
778.047	719.538
778.098	731.082
778.149	714.171
778.2	704.572
778.251	699.964
778.302	713.368
778.353	741.951
778.404	713.419
778.455	707.612
778.506	708.799
778.557	712.307
778.608	719.161
778.659	708.425
778.71	704.082
778.761	705.85
778.812	706.809
778.863	697.617
778.914	699.483
778.965	709.703
779.016	711.611
779.067	704.114
779.118	689.925
779.169	698.867
779.22	694.641
779.271	685.829
779.322	695.518
779.373	694.661
779.424	695.547
779.474	700.861
779.525	706.699
779.576	698.722
779.627	697.191
779.678	695.334
779.729	687.513
779.78	687.335
779.831	677.998
779.882	693.07
779.933	684.417
779.984	675.333
780.035	676
780.086	677.741
780.137	687.952
780.188	695.078
780.239	671.951
780.29	667.985
780.341	678.808
780.392	688.535
780.442	680.896
780.493	672.758
780.544	681.833
780.595	667.484
780.646	658.294
780.697	674.467
780.748	674.482
780.799	681.014
780.85	684.011
780.901	666.236
780.952	663.791
781.003	662.906
781.054	649.417
781.105	649.414
781.156	654.106
781.207	664.227
781.257	674.987
781.308	666.234
781.359	659.186
781.41	669.359
781.461	663.393
781.512	656.612
781.563	651.834
781.614	656.518
781.665	647.484
781.716	647.421
781.767	646.986
781.818	642.85
781.869	658.987
781.919	665.567
781.97	665.687
782.021	652.533
782.072	637.733
782.123	637.835
782.174	623.879
782.225	637.451
782.276	652.617
782.327	648.925
782.378	630.783
782.429	643.26
782.48	651.052
782.531	640.185
782.581	632.233
782.632	629.424
782.683	633.726
782.734	634.724
782.785	639.673
782.836	635.255
782.887	630.448
782.938	619.765
782.989	605.248
783.04	639.012
783.091	636.509
783.141	625.407
783.192	628.466
783.243	617.935
783.294	649.273
783.345	638.024
783.396	608.308
783.447	603.327
783.498	617.36
783.549	630.052
783.6	614.329
783.651	635.489
783.701	623.346
783.752	612.721
783.803	615.828
783.854	618.625
783.905	626.327
783.956	607.947
784.007	601.144
784.058	615.661
784.1	614
784.151	604.01
784.202	614.033
784.253	607.95
784.304	596.054
784.355	611.829
784.406	615.711
784.458	580.283
784.509	613.741
784.56	605.973
784.611	591.882
784.662	599.671
784.713	601.588
784.764	580.163
784.815	580.741
784.866	566.61
784.917	578.528
784.968	609.307
785.019	579.705
785.07	593.908
785.121	580.285
785.172	603.262
785.223	570.919
785.274	604.264
785.326	601.241
785.377	588.477
785.428	588.957
785.479	568.256
785.53	578.182
785.581	572.99
785.632	583.232
785.683	597.689
785.734	579.353
785.785	568.83
785.836	587.569
785.887	571.287
785.938	582.706
785.989	557.221
786.04	575.234
786.091	574.513
786.142	558.748
786.193	573.233
786.244	575.388
786.295	581.249
786.346	576.468
786.397	556.277
786.448	553.653
786.5	550.912
786.551	565.399
786.602	580.302
786.653	562.242
786.704	559.742
786.755	558.182
786.806	565.02
786.857	564.043
786.908	553.417
786.959	575.708
787.01	579.049
787.061	553.88
787.112	547.117
787.163	533.642
787.214	564.1
787.265	567.38
787.316	556.198
787.367	536.323
787.418	582.716
787.469	575.941
787.52	573.378
787.571	574.48
787.622	560.137
787.673	560.368
787.724	557.519
787.775	531.908
787.826	546.606
787.877	540.281
787.928	530.887
787.979	550.256
788.03	533.294
788.081	528.379
788.132	588.452
788.183	538.597
788.234	559.461
788.285	543.113
788.336	536.577
788.387	547.243
788.438	552.98
788.49	553.128
788.541	531.551
788.591	527.119
788.643	542.435
788.694	525.414
788.745	523.187
788.796	526.494
788.847	525.314
788.898	529.317
788.949	542.088
789	534.319
789.051	540.393
789.102	519.497
789.153	538.916
789.204	520.985
789.255	513.81
789.306	529.255
789.357	528.909
789.408	524.191
789.459	530.963
789.51	503.821
789.561	525.782
789.612	512.849
789.663	514.956
789.714	522.474
789.765	510.455
789.816	496.955
789.867	513.136
789.918	531.461
789.969	514.335
790.02	526.442
790.071	508.892
790.122	519.952
790.173	513.745
790.224	512.532
790.275	509.264
790.326	496.804
790.377	513.46
790.428	517.476
790.479	513.437
790.53	508.87
790.581	490.912
790.632	511.072
790.682	523.141
790.734	494.996
790.784	530.51
790.836	510.869
790.886	524.691
790.937	512.149
790.988	497.647
791.039	512.441
791.09	497.564
791.141	496.867
791.192	510.585
791.243	500.023
791.294	494.021
791.345	500.011
791.396	501.538
791.447	487.568
791.498	491.205
791.549	496.318
791.6	502.427
791.651	485.929
791.702	506.257
791.753	489.813
791.804	483.57
791.855	485.278
791.906	499.118
791.957	480.688
792.008	493.453
792.059	483.872
792.11	504.82
792.161	506.909
792.212	489.844
792.263	490.529
792.314	481.134
792.365	495.592
792.416	482.905
792.467	483.352
792.518	477.71
792.569	482.176
792.62	467.71
792.671	458.379
792.722	477.342
792.773	464.542
792.823	469.427
792.874	471.6
792.925	472.51
792.976	475.083
793.027	469.153
793.078	474.051
793.129	466.244
793.18	477.802
793.231	468.433
793.282	465.122
793.333	469.04
793.384	471.631
793.435	472.923
793.486	467.108
793.537	475.194
793.588	484.692
793.639	468.837
793.69	470.913
793.741	467.563
793.792	458.869
793.843	453.689
793.894	467.891
793.945	462.063
793.995	458.397
794.046	440.525
794.097	460.429
794.148	463.049
794.199	455.604
794.25	463.277
794.301	458.915
794.352	464.529
794.403	448.868
794.454	444.456
794.505	453.635
794.556	451.994
794.607	442.015
794.658	447.159
794.709	455.966
794.76	450.587
794.811	434.691
794.862	448.737
794.912	447.446
794.963	443.237
795.014	447.649
795.065	447.783
795.116	438.885
795.167	456.085
795.218	461.339
795.269	447.35
795.32	453.23
795.371	439.507
795.422	436.02
795.473	446.124
795.524	438.171
795.575	439.367
795.625	431.541
795.676	444.677
795.727	437.973
795.778	440.301
795.829	441.509
795.88	432.317
795.931	428.233
795.982	441.304
796.033	433.742
796.084	435.145
796.135	430.127
796.186	441.886
796.237	430.079
796.287	427.191
796.338	433.955
796.389	434.804
796.44	437.127
796.491	426.102
796.542	432.376
796.593	428.365
796.644	418.645
796.695	415.793
796.746	415.955
796.797	420.545
796.848	424.944
796.898	420.905
796.949	415.035
797	415.988
797.051	419.968
797.102	423.945
797.153	421.153
797.204	428.877
797.255	435.291
797.306	422.864
797.357	427.315
797.408	415.906
797.458	411.804
797.509	420.944
797.56	410.776
797.611	414.412
797.662	416.631
797.713	422.357
797.764	406.548
797.815	413.217
797.866	432.65
797.917	420.018
797.968	413.824
798.018	418.074
798.069	408.755
798.12	407.062
798.171	406.333
798.222	403.949
798.273	402.281
798.324	391.174
798.375	406.718
798.426	394.246
798.477	408.255
798.527	419.76
798.578	411.352
798.629	404.495
798.68	399.952
798.731	392.537
798.782	392.957
798.833	400.598
798.884	399.649
798.935	405.335
798.985	397.914
799.036	405.806
799.087	406.398
799.138	408.453
799.189	400.546
799.24	406.91
799.291	403.432
799.342	394.113
799.393	395.331
799.443	392.199
799.494	400.992
799.545	395.156
799.596	383.487
799.647	390.628
799.698	378.446
799.749	392.603
799.8	391.575
799.85	387.224
799.901	384.579
799.952	392.215
800.003	401.915
800.054	388.291
800.105	390.832
800.156	393.655
800.207	384.325
800.257	376.88
800.308	375.589
800.359	367.248
800.41	393.101
800.461	386.534
800.512	388.327
800.563	377.129
800.613	367.173
800.664	379.682
800.715	382.788
800.766	384.535
800.817	382.765
800.868	377.789
800.919	389.319
800.97	373.941
801.02	379.554
801.071	385.173
801.122	359.514
801.173	371.546
801.224	377.292
801.275	386.278
801.326	375.523
801.376	370.257
801.427	358.972
801.478	367.326
801.529	370.391
801.58	372.766
801.631	365.158
801.682	375.689
801.732	367.16
801.783	371.618
801.834	363.998
801.885	362.055
801.936	372.141
801.987	377.058
802.038	361.432
802.088	349.643
802.139	360.588
802.19	368.777
802.241	353.108
802.292	368.317
802.343	364.229
802.393	372.797
802.444	372.409
802.495	371.685
802.546	354.393
802.597	362.66
802.648	362.536
802.698	357.165
802.749	357.143
802.8	350.308
802.851	360.55
802.902	353.778
802.953	357.392
803.004	358.453
803.054	358.573
803.105	343.443
803.156	349.215
803.207	360.421
803.258	356.791
803.309	348.375
803.359	350.143
803.41	346.149
803.461	343.029
803.512	343.489
803.563	355.311
803.614	341.5
803.664	356.847
803.715	344.405
803.766	345.627
803.817	359.223
803.868	348.947
803.919	344.573
803.969	346.954
804.02	332.641
804.071	326.778
804.122	342.304
804.173	337.427
804.223	354.924
804.274	343.653
804.325	336.235
804.376	357.583
804.427	339.409
804.478	353.002
804.528	332.634
804.579	338.496
804.63	325.359
804.681	335.666
804.732	347.347
804.782	342.959
804.833	353.049
804.884	346.545
804.935	341.593
804.986	329.018
805.036	335.526
805.087	335.602
805.138	321.101
805.189	329.217
805.24	330.635
805.291	331.495
805.341	322.658
805.392	337.755
805.443	330.33
805.494	327.372
805.545	323.695
805.595	333.758
805.646	322.65
805.697	324.303
805.748	338.961
805.799	322.424
805.849	339.835
805.9	344.134
805.951	339.233
806.002	321.334
806.053	325.983
806.103	326.755
806.154	320.341
806.205	317.854
806.256	320.249
806.307	318.863
806.357	335.927
806.408	323.336
806.459	325.517
806.51	331.947
806.561	334.333
806.611	318.215
806.662	326.715
806.713	310.737
806.764	317.694
806.815	321.8
806.865	327.269
806.916	309.553
806.967	320.673
807.018	325.784
807.068	336.401
807.119	323.769
807.17	323.256
807.221	320.812
807.272	328.507
807.322	318.963
807.373	317.147
807.424	308.755
807.475	323.193
807.526	311.06
807.576	299.473
807.627	326.068
807.678	329.694
807.729	318.124
807.779	321.813
807.83	312.977
807.881	312.645
807.932	315.938
807.982	319.773
808.033	301.294
808.084	295.359
808.135	300.963
808.186	302.452
808.236	315.45
808.287	311.037
808.338	312.086
808.389	306.203
808.439	315.197
808.49	292.021
808.541	305.043
808.592	292.364
808.643	300.547
808.693	304.326
808.744	312.917
808.795	311.78
808.846	307.315
808.896	314.096
808.947	312.304
808.998	309.384
809.049	295.713
809.099	297.077
809.15	303.334
809.201	295.629
809.252	306.309
809.302	295.663
809.353	286.031
809.404	281.712
809.455	300.525
809.505	315.148
809.556	299.259
809.607	288.794
809.658	295.95
809.708	296.003
809.759	307.308
809.81	305.912
809.861	288.985
809.911	291.259
809.962	297.465
810.013	299.314
810.064	293.591
810.114	287.437
810.133	286
810.183	294
810.234	284.01
810.285	293.949
810.336	278.047
810.387	313.849
810.438	299.875
810.489	286.228
810.54	298.027
810.591	285.832
810.642	282.098
810.693	283.988
810.743	283.949
810.794	298.014
810.845	292.22
810.896	280.409
810.947	270.511
810.998	292.089
811.049	297.665
811.1	276.426
811.151	290.16
811.202	295.384
811.253	301.229
811.303	307.013
811.354	299.742
811.405	293.918
811.456	286.675
811.507	294.213
811.558	278.785
811.609	284.967
811.66	276.883
811.711	274.856
811.762	289.412
811.813	281.63
811.863	285.719
811.914	282.313
811.965	295.647
812.016	284.269
812.067	273.779
812.118	278.075
812.169	302.746
812.22	296.598
812.271	278.056
812.321	280.437
812.372	280.109
812.423	285.319
812.474	281.999
812.525	285.351
812.576	280.855
812.627	280.756
812.678	268.934
812.729	278.64
812.779	272.106
812.83	266.389
812.881	261.71
812.932	270.974
812.983	272.412
813.034	276.355
813.085	273.337
813.136	271.691
813.187	277.711
813.237	258.723
813.288	271.411
813.339	274.426
813.39	261.058
813.441	261.558
813.492	263.406
813.543	272.053
813.594	268.154
813.644	267.264
813.695	264.976
813.746	279.552
813.797	260.321
813.848	273.505
813.899	264.726
813.95	248.469
814.001	270.834
814.051	269.794
814.102	274.543
814.153	278.449
814.204	258.042
814.255	258.135
814.306	257.736
814.357	260.882
814.408	271.677
814.458	265.569
814.509	273.237
814.56	258.088
814.611	270.796
814.662	254.468
814.713	261.467
814.764	262.761
814.814	271.568
814.865	259.196
814.916	266.591
814.967	258.902
815.018	271.459
815.069	253.066
815.12	276.087
815.17	260.939
815.221	263.459
815.272	254.848
815.323	252.787
815.374	262.818
815.425	270.782
815.476	254.819
815.526	258.859
815.577	259.514
815.628	256.953
815.679	257.362
815.73	260.522
815.781	265
815.832	249.633
815.882	252.289
815.933	264.234
815.984	259.644
816.035	254.896
816.086	245.565
816.137	247.077
816.188	252.666
816.238	256.641
816.289	244.997
816.34	255.857
816.391	261.71
816.442	247.477
816.493	252.417
816.543	250.53
816.594	254.919
816.645	244.193
816.696	253.063
816.747	249.598
816.798	250.108
816.848	256.126
816.899	245.368
816.95	258.444
817.001	250.831
817.052	246.532
817.103	253.061
817.153	256.614
817.204	260.121
817.255	245.314
817.306	231.127
817.357	255.127
817.408	255.953
817.458	229.985
817.509	241.074
817.56	248.702
817.611	249.722
817.662	254.989
817.713	238.271
817.763	250.683
817.814	245.157
817.865	236.066
817.916	239.729
817.967	253.3
818.018	224.87
818.068	233.209
818.119	241.22
818.17	240.925
818.221	235.212
818.272	235.302
818.323	246.633
818.373	241.728
818.424	240.488
818.475	239.774
818.526	234.381
818.577	244.236
818.627	232.87
818.678	237.754
818.729	238.05
818.78	242.717
818.831	254.07
818.881	236.396
818.932	241.362
818.983	242.025
819.034	237.427
819.085	241.076
819.135	226.553
819.186	243.624
819.237	224.611
819.288	227.251
819.339	233.748
819.39	227.826
819.44	216.554
819.491	232.222
819.542	239.465
819.593	233.388
819.644	235.245
819.694	233.795
819.745	238.09
819.796	230.492
819.847	222.227
819.898	229.718
819.948	239.524
819.999	221.265
820.05	220.664
820.101	225.46
820.152	232.083
820.202	229.123
820.253	219.395
820.304	218.785
820.355	225.208
820.406	228.136
820.456	227.901
820.507	223.454
820.558	227.097
820.609	223.299
820.66	227.845
820.71	228.276
820.761	217.909
820.812	220.217
820.863	220.497
820.914	230.821
820.964	224.6
821.015	217.855
821.066	217.576
821.117	211.818
821.167	223
821.218	213.766
821.269	212.208
821.32	219.986
821.371	227.741
821.421	225.518
821.472	221.829
821.523	214.753
821.574	217.52
821.624	220.01
821.675	220.524
821.726	212.999
821.777	216.333
821.828	226.545
821.878	209.437
821.929	217.91
821.98	217.727
822.031	220.122
822.081	206.568
822.132	216.81
822.183	219.016
822.234	206.546
822.285	212.737
822.335	214.032
822.386	220.656
822.437	218.798
822.488	204.385
822.538	217.254
822.589	207.664
822.64	217.53
822.691	209.922
822.741	212.395
822.792	212.154
822.843	207.822
822.894	193.362
822.945	215.288
822.995	204.686
823.046	213.688
823.097	213.984
823.148	211.683
823.198	207.644
823.249	194.446
823.3	209.72
823.351	199.275
823.401	215.748
823.452	207.927
823.503	212.061
823.554	215.152
823.604	219.834
823.655	200.141
823.706	204.978
823.757	208.951
823.807	207.909
823.858	200.407
823.909	205.792
823.96	215.225
824.01	209.944
824.061	205.319
824.112	186.216
824.163	209.211
824.213	207.177
824.264	195.794
824.315	206.883
824.366	215.389
824.416	200.047
824.467	205.886
824.518	203.342
824.569	203.185
824.619	211.335
824.67	197.447
824.721	208.162
824.772	203.088
824.822	204.74
824.873	192.804
824.924	199.764
824.974	203.05
825.025	191.54
825.076	198.366
825.127	203.256
825.177	199.962
825.228	192.412
825.279	193.814
825.33	197.714
825.38	202.99
825.431	199.405
825.482	198.823
825.533	200.251
825.583	206.559
825.634	190.723
825.685	197.745
825.735	184.843
825.786	203.907
825.837	194.874
825.888	189.47
825.938	197.264
825.989	207.524
826.04	194.975
826.091	192.041
826.141	188.979
826.192	198.125
826.243	191.858
826.293	202.69
826.344	200.461
826.395	193.605
826.446	192.056
826.496	194.819
826.547	192.541
826.598	193.259
826.648	197.448
826.699	189.092
826.75	190.582
826.801	196.815
826.851	205.69
826.902	191.352
826.953	190.802
827.003	201.956
827.054	202.553
827.105	195.59
827.156	198.265
827.206	193.523
827.257	185.805
827.308	187.205
827.358	194.778
827.409	193.325
827.46	190.602
827.511	193.801
827.561	190.891
827.612	186.265
827.663	186.179
827.713	174.478
827.764	183.984
827.815	185.624
827.865	191.76
827.916	195.2
827.967	184.928
828.018	189.308
828.068	187.481
828.119	190.017
828.17	195.416
828.22	189.412
828.271	194.783
828.322	175.301
828.372	177.812
828.423	184.787
828.474	172.711
828.525	175.585
828.575	189.639
828.626	185.724
828.677	188.606
828.727	191.143
828.778	191.329
828.829	179.596
828.879	178.142
828.93	183.824
828.981	192.007
829.031	182.094
829.082	182.442
829.133	183.401
829.183	184.862
829.234	178.686
829.285	179.783
829.336	172.962
829.386	184.916
829.437	177.739
829.488	183.175
829.538	185.36
829.589	176.766
829.64	184.057
829.69	185.192
829.741	179.464
829.792	188.639
829.842	194.35
829.893	178.698
829.944	183.046
829.994	182.808
830.045	176.101
830.096	172.644
830.146	172.772
830.197	176.585
830.248	180.171
830.298	177.267
830.349	170.056
830.4	168.588
830.45	173.119
830.501	172.631
830.552	171.73
830.602	174.531
830.653	172.766
830.704	167.579
830.754	173.379
830.805	175.515
830.856	177.007
830.906	177.797
830.957	163.971
831.008	163.894
831.058	173.18
831.109	174.034
831.16	172.092
831.21	176.209
831.261	179.423
831.312	174.961
831.362	173
831.413	178.536
831.464	172.126
831.514	173.508
831.565	177.571
831.616	170.871
831.666	168.3
831.717	169.591
831.767	179.427
831.818	182.654
831.869	169.827
831.919	163.15
831.97	168
832.021	173.77
832.071	183.173
832.122	180.368
832.173	164.447
832.223	164.675
832.274	167.892
832.325	159.225
832.375	169.38
832.426	175.095
832.477	179.01
832.527	171.248
832.578	168.401
832.628	167.945
832.679	169.399
832.73	159.495
832.78	160.721
832.831	166.491
832.882	167.515
832.932	168.207
832.983	170.713
833.034	167.346
833.084	157.821
833.135	159.671
833.185	161.771
833.236	164.083
833.287	162.94
833.337	156.737
833.388	163.038
833.439	163.523
833.489	164.346
833.54	164.491
833.59	167.878
833.641	172.194
833.692	163.657
833.742	153.725
833.793	165.232
833.844	165.635
833.894	162.54
833.945	157.27
833.995	156.307
834.046	164.304
834.097	166.159
834.147	162.133
834.198	156
834.249	158.588
834.299	164.033
834.35	166.46
834.4	167.514
834.451	166.207
834.502	159.219
834.552	159.338
834.603	157.364
834.653	164.159
834.704	166.628
834.755	158.67
834.805	159.757
834.856	167.956
834.906	162.277
834.957	158.092
835.008	158.264
835.058	156.237
835.109	155.031
835.16	163.279
835.21	151.022
835.261	163.521
835.311	163.308
835.362	159.851
835.413	155.344
835.463	158.723
835.514	160.868
835.564	175.257
835.615	163.313
835.666	150.567
835.716	152.166
835.767	153.688
835.817	161.334
835.868	169.196
835.919	153.724
835.969	157.954
836.02	152.189
836.07	162.055
836.121	167.967
836.161	160
836.212	158
836.263	146.012
836.314	148.044
836.365	154.041
836.415	163.93
836.466	146.139
836.517	140.101
836.568	157.868
836.618	156.119
836.669	151.999
836.72	155.97
836.771	148.164
836.821	159.874
836.872	157.708
836.923	150.175
836.974	138.401
837.024	148.203
837.075	157.784
837.126	155.954
837.177	143.929
837.227	153.743
837.278	152.105
837.329	140.544
837.38	149.886
837.43	169.316
837.481	155.659
837.532	152.002
837.583	152.182
837.633	152.054
837.684	159.804
837.735	144.551
837.786	155.319
837.836	164.702
837.887	145.345
837.938	147.239
837.989	149.683
838.039	157.709
838.09	150.222
838.141	141.887
838.192	151.336
838.242	155.559
838.293	140.951
838.344	149.471
838.395	154.669
838.445	157.067
838.496	150
838.547	140.766
838.598	146.987
838.648	147.156
838.699	149.633
838.75	146.194
838.801	140.656
838.851	146.411
838.902	156.549
838.953	150.744
839.003	151.007
839.054	153.205
839.105	160.158
839.156	135.424
839.206	139.447
839.257	156.995
839.308	148.155
839.359	143.939
839.409	141.28
839.46	147.691
839.511	142.72
839.562	148.041
839.612	147.918
839.663	149.395
839.714	144.265
839.764	144.445
839.815	149.069
839.866	150.031
839.917	150.216
839.967	144.508
840.018	142.047
840.069	140.361
840.119	140.417
840.17	142.183
840.221	151.325
840.272	153.005
840.322	147.497
840.373	141.751
840.424	144.327
840.474	150.54
840.525	143.756
840.576	130.513
840.627	143.768
840.677	140.633
840.728	147.357
840.779	154.249
840.829	137.37
840.88	144.046
840.931	147.435
840.982	145.838
841.032	147.531
841.083	144.45
841.134	133.777
841.184	149.326
841.235	128.838
841.286	143.072
841.337	139.338
841.387	152.294
841.438	141.573
841.489	149.164
841.539	123.896
841.59	137.688
841.641	143.25
841.691	144.9
841.742	142.749
841.793	145.361
841.844	147.826
841.894	144.038
841.945	143.34
841.996	138.22
842.046	146.445
842.097	141.295
842.148	137.069
842.198	146.371
842.249	136.095
842.3	135.157
842.351	143.897
842.401	136.499
842.452	141.631
842.503	141.167
842.553	142.676
842.604	136.116
842.655	135.34
842.705	137.23
842.756	127.018
842.807	141.623
842.857	138.213
842.908	134.227
842.959	137.011
843.009	136.527
843.06	134.771
843.111	133.879
843.161	129.084
843.212	133.523
843.263	137.336
843.314	128.184
843.364	135.22
843.415	137.256
843.466	138.1
843.516	136.98
843.567	140.607
843.618	131.941
843.668	136.97
843.719	134.634
843.77	125.156
843.82	133.155
843.871	145.421
843.922	129.641
843.972	133.688
844.023	137.301
844.074	138.791
844.124	130.92
844.175	131.678
844.226	141.309
844.276	133.295
844.327	135.425
844.378	133.287
844.428	140.838
844.479	129.587
844.53	134.241
844.58	135.066
844.631	132.385
844.682	130.149
844.732	130.476
844.783	127.982
844.834	138.665
844.884	136.219
844.935	127.879
844.986	127.484
845.036	129.395
845.087	129.415
845.138	129.896
845.188	133.024
845.239	132.277
845.29	124.996
845.34	128.757
845.391	134.209
845.442	135.837
845.492	128.222
845.543	135.743
845.594	134.058
845.644	128.046
845.695	128.528
845.745	118.271
845.796	123.364
845.847	118.967
845.897	128.595
845.948	136.828
845.999	128.687
846.049	125.322
846.1	133.241
846.151	122.575
846.201	125.97
846.252	139.04
846.303	141.372
846.353	122.863
846.404	121.85
846.455	131.827
846.505	130
846.556	134.949
846.606	122.836
846.657	133.196
846.708	125.004
846.758	124.594
846.809	129.471
846.86	136.592
846.91	129.196
846.961	122
847.012	126.483
847.062	132.028
847.113	129.486
847.163	114.531
847.214	123.312
847.265	123.336
847.315	127.763
847.366	121.137
847.417	129.264
847.467	132.387
847.518	127.689
847.568	128.409
847.619	113.444
847.67	121.729
847.72	121.167
847.771	127.477
847.822	121.805
847.872	128.567
847.923	124.854
847.973	120.68
848.024	127.09
848.075	122.742
848.125	127.585
848.176	121.506
848.227	119.742
848.277	126.68
848.328	129.813
848.378	128.894
848.429	131.243
848.48	123.596
848.53	121.706
848.581	124.671
848.631	105.416
848.682	121.812
848.733	118.656
848.783	120.843
848.834	126
848.885	120.043
848.935	113.622
848.986	117.16
849.036	126.07
849.087	123.703
849.138	119.533
849.188	123.941
849.239	125.112
849.289	125.634
849.34	118.839
849.391	107.19
849.441	112.26
849.492	116.955
849.542	116.175
849.593	120.833
849.644	109.191
849.694	123.807
849.745	121.731
849.795	119.07
849.846	122.968
849.897	120.219
849.947	117.424
849.998	122.197
850.048	117.785
850.099	125.334
850.15	119.712
850.2	119.223
850.251	118.777
850.301	117.666
850.352	116.73
850.403	119.773
850.453	118.556
850.504	121.54
850.554	112.618
850.605	119.8
850.656	124.432
850.706	124.799
850.757	115.782
850.807	109.847
850.858	115.129
850.908	116.292
850.959	112.795
851.01	114.845
851.06	122.155
851.111	108.167
851.161	116.077
851.212	112.472
851.263	121.191
851.313	110.353
851.364	109.264
851.414	110.458
851.465	111.377
851.515	113.896
851.566	115.336
851.617	113.963
851.667	114.959
851.718	110.617
851.768	120.618
851.819	112.366
851.869	119.332
851.92	109.903
851.971	110
852.021	111.072
852.072	115.189
852.122	111.098
852.173	113.054
852.223	111.079
852.274	106.235
852.325	116.155
852.375	106.947
852.426	107.633
852.476	117.908
852.527	123.038
852.577	107.861
852.628	113.848
852.678	115.4
852.729	118.387
852.78	115.834
852.83	118.341
852.881	115.37
852.931	115.521
852.982	105.069
853.032	111.143
853.083	105.586
853.133	110.863
853.184	108.796
853.235	103.049
853.285	110.301
853.336	105.865
853.386	112.121
853.437	119.118
853.487	120.667
853.538	107.288
853.588	110.125
853.639	114.93
853.69	115.505
853.74	111.61
853.791	110.251
853.841	111.498
853.892	108.69
853.942	104.106
853.993	110.01
854.043	111.76
854.094	113.85
854.144	105.13
854.195	106.955
854.246	115.911
854.296	119.663
854.347	111.007
854.397	105.403
854.448	104.565
854.498	103.508
854.549	108.749
854.599	107.247
854.65	107.719
854.7	108.014
854.751	103.729
854.801	108
854.852	108.435
854.902	113.107
854.953	111.345
855.004	102.645
855.054	106.061
855.105	108.349
855.155	108.862
855.206	106.515
855.256	101.798
855.307	99.0777
855.357	96.0211
855.408	102.686
855.458	111.941
855.509	108.597
855.559	110.276
855.61	112.133
855.66	106.544
855.711	103.668
855.761	109.114
855.812	112.61
855.862	101.06
855.913	110.957
855.964	106.801
856.014	106.714
856.065	107.658
856.115	104.727
856.166	103.38
856.216	105.249
856.267	104.26
856.317	101.645
856.368	107.398
856.418	108.362
856.469	111.905
856.519	105.35
856.57	99.0524
856.62	101.938
856.671	106.877
856.721	103.478
856.772	100.619
856.822	103.448
856.873	111.029
856.923	106.31
856.974	103.039
857.024	108.38
857.075	111.611
857.125	107.655
857.176	102.372
857.226	104.469
857.277	108.401
857.327	102.34
857.378	103.799
857.428	101.917
857.479	101.356
857.529	98.7991
857.58	100.594
857.63	98.3225
857.681	98.5103
857.731	101.35
857.782	103.976
857.832	103.393
857.883	100.461
857.933	105.31
857.984	106.52
858.034	100.425
858.085	99.8381
858.135	95.2594
858.186	98.4801
858.236	102.634
858.287	100.544
858.337	100.902
858.388	99.2898
858.438	100.704
858.489	104.427
858.539	100.255
858.589	100.037
858.64	105.789
858.69	102.264
858.741	102
858.791	100.504
858.842	105.923
858.892	112.103
858.943	103.755
858.993	103.458
859.044	104.091
859.094	102.091
859.145	101.663
859.195	100.926
859.246	99.0502
859.296	100.271
859.347	94.6399
859.397	98.5203
859.448	104.279
859.498	102.665
859.549	98.3107
859.599	96.7653
859.649	99.8999
859.7	100.923
859.75	101.476
859.801	97.167
859.851	98.4216
859.902	100.233
859.952	95.8337
860.003	98.0643
860.053	106.256
860.104	108.096
860.154	100.934
860.205	100.957
860.255	95.4956
860.305	95.5242
860.356	100.27
860.406	101.516
860.457	103.008
860.507	97.6301
860.558	96.7076
860.608	95.7691
860.659	97.0183
860.709	98.901
860.76	95.9244
860.81	92.9487
860.861	96.7528
860.911	99.9403
860.961	95.7744
861.012	98.9474
861.062	95.0381
861.113	94.2963
861.163	101.53
861.214	104.422
861.264	95.6319
861.315	96.9581
861.365	104.519
861.415	101.149
861.466	97.5769
861.516	91.4529
861.567	92.8924
861.617	86.0488
861.668	91.5492
861.718	91.4494
861.769	97.1621
861.819	101.892
861.869	101.062
861.92	95.5253
861.97	89.3132
862.021	99.5288
862.071	91.21
862.112	96.002
862.162	93.9932
862.213	90.0333
862.263	101.966
862.314	99.9912
862.365	88.1101
862.415	86.064
862.466	97.9979
862.516	92.016
862.567	88.1439
862.618	90.0217
862.668	89.9197
862.719	93.7952
862.77	91.821
862.82	91.9313
862.871	101.698
862.921	97.7691
862.972	97.8874
863.023	90.1621
863.073	94.0124
863.124	92.1136
863.174	94.0482
863.225	109.386
863.276	100.078
863.326	92.1814
863.377	97.8392
863.427	90.4007
863.478	101.2
863.529	95.5426
863.579	101.603
863.63	93.9232
863.68	93.9557
863.731	93.7825
863.782	97.2869
863.832	90.0823
863.883	93.7042
863.933	97.1462
863.984	91.7934
864.034	97.2347
864.085	106.474
864.136	86.2277
864.186	81.0701
864.237	94.2417
864.287	99.4045
864.338	98.4261
864.389	94.7658
864.439	88.2716
864.49	95.2595
864.54	91.3389
864.591	78.7689
864.642	99.0116
864.692	95.4027
864.743	101.866
864.793	98.1068
864.844	89.8796
864.894	95.053
864.945	91.2112
864.996	86.645
865.046	90.2583
865.097	87.7848
865.147	92.6038
865.198	89.3494
865.248	91.5352
865.299	96.4029
865.35	89.4714
865.4	93.3476
865.451	93.0222
865.501	91.3777
865.552	91.6838
865.603	86.3176
865.653	88.8246
865.704	83.434
865.754	81.6527
865.805	98.6576
865.855	89.6617
865.906	84.5164
865.956	87.6493
866.007	81.2086
866.058	98.0393
866.108	91.5714
866.159	89.7473
866.209	87.2353
866.26	94.8404
866.31	85.6325
866.361	88.0048
866.412	99.7702
866.462	91.0117
866.513	83.3534
866.563	93.4992
866.614	84.3918
866.664	86.9672
866.715	91.5712
866.766	91.1173
866.816	82.5214
866.867	84.5779
866.917	85.1227
866.968	88.7822
867.018	84.7424
867.069	91.682
867.119	79.6121
867.17	88.4497
867.22	83.8495
867.271	87.1988
867.322	87.4652
867.372	83.4529
867.423	81.2235
867.473	91.4512
867.524	79.8282
867.574	83.8666
867.625	86.5856
867.675	91.2519
867.726	88.6959
867.776	91.9402
867.827	90.14
867.878	84.6125
867.928	82.5827
867.979	89.2239
868.029	89.6737
868.08	80.7719
868.13	93.0682
868.181	80.165
868.231	84.84
868.282	90.4798
868.332	89.3511
868.383	80.7754
868.433	89.8446
868.484	86.2638
868.535	70.7414
868.585	87.2612
868.636	86.0165
868.686	90.0949
868.737	77.0253
868.787	72.9581
868.838	85.5014
868.888	80.0948
868.939	84.0699
868.989	82.7621
869.04	82.5636
869.09	83.9786
869.141	83.9446
869.191	82.7864
869.242	81.97
869.292	85.7959
869.343	84.7466
869.394	83.4276
869.444	95.2786
869.495	90.8584
869.545	85.1386
869.596	83.4591
869.646	90.5029
869.697	84.9354
869.747	87.9036
869.798	79.9427
869.848	89.1898
869.899	83.4775
869.949	85.565
870	76.4405
870.05	83.4872
870.101	78.1724
870.151	79.7707
870.202	83.2515
870.252	84.9187
870.303	88.6999
870.353	78.2657
870.404	80.4256
870.454	82.5152
870.505	86.2956
870.555	81.2596
870.606	77.829
870.656	79.8631
870.707	84.4175
870.757	82.9044
870.808	80.9258
870.858	91.5355
870.909	79.7738
870.959	79.4115
871.01	82.0799
871.06	83.2371
871.111	80
871.161	82.6004
871.212	86.6773
871.262	84.5183
871.313	76.0111
871.363	81.1979
871.414	79.2235
871.464	84.7703
871.515	75.3054
871.565	77.9489
871.616	82.4247
871.666	77.4304
871.717	76.7883
871.767	78.8329
871.818	86.499
871.868	86.2958
871.919	79.0399
871.969	84.3929
872.02	86.1367
872.07	86.0907
872.121	79.6504
872.171	75.3487
872.222	76.6675
872.272	88.0929
872.323	83.7648
872.373	69.0384
872.424	77.6349
872.474	83.5705
872.525	88.3257
872.575	78.3714
872.626	87.5614
872.676	85.1823
872.727	82.002
872.777	77.2982
872.828	74.378
872.878	84.4168
872.929	82.0393
872.979	72.076
873.03	87.358
873.08	77.5584
873.13	73.8116
873.181	75.3791
873.231	77.9129
873.282	68.3822
873.332	84.4236
873.383	73.8703
873.433	84.2901
873.484	80.1113
873.534	67.394
873.585	79.5727
873.635	73.9215
873.686	81.6001
873.736	77.0179
873.787	77.742
873.837	84.2041
873.888	74.2205
873.938	71.3658
873.988	78.0453
874.039	80.2369
874.089	80.9946
874.14	71.0904
874.19	71.822
874.241	80.4745
874.291	74.594
874.342	81.9252
874.392	79.9748
874.443	83.0223
874.493	76.7606
874.544	70.9512
874.594	75.0377
874.644	77.2743
874.695	76
874.745	81.467
874.796	82.3571
874.846	79.6357
874.897	76.3712
874.947	77.6135
874.998	78.4097
875.048	83.1508
875.099	69.0351
875.149	78.2849
875.199	73.0117
875.25	73.284
875.3	70.717
875.351	75.8259
875.401	69.6865
875.452	74.5432
875.502	68.1404
875.553	73.6974
875.603	82.3721
875.653	83.8005
875.704	77.5576
875.754	71.884
875.805	75.7661
875.855	72.2716
875.906	77.2672
875.956	74.5022
876.006	71.9188
876.057	72.1559
876.107	72.7868
876.158	73.8427
876.208	72.2058
876.259	71.4987
876.309	71.0369
876.36	73.214
876.41	76.1562
876.46	78.3024
876.511	74.7739
876.561	71.8466
876.612	71.7897
876.662	78.5618
876.713	74.8781
876.763	73.1653
876.813	73.6697
876.864	78.5268
876.914	75.6978
876.965	69.3474
877.015	76.6971
877.065	78.3263
877.116	73.0115
877.166	69.6645
877.217	74.1507
877.267	69.8703
877.318	70.1205
877.368	68.7173
877.418	79.3884
877.469	77.833
877.519	78.4369
877.57	74.7553
877.62	74.7857
877.671	73.5584
877.721	65.5996
877.771	69.2027
877.822	77.2232
877.872	78.0916
877.923	78.0508
877.973	75.5818
878.023	75.1503
878.074	74.4678
878.124	73.5549
878.175	71.1182
878.225	75.7719
878.276	77.394
878.326	71.6903
878.376	73.1144
878.427	76.4327
878.477	69.7397
878.528	67.6923
878.578	73.631
878.628	81.9197
878.679	77.7398
878.729	71.5253
878.78	71.1148
878.83	69.9303
878.88	67.5888
878.931	65.1546
878.981	67.9418
879.031	73.384
879.082	74.1421
879.132	74.8445
879.183	72.996
879.233	73.6015
879.284	73.9649
879.334	72.8024
879.384	72.0249
879.435	78.5152
879.485	71.3399
879.535	69.8445
879.586	73.5252
879.636	69.2598
879.687	78.2829
879.737	71.7514
879.787	74.2061
879.838	71.6262
879.888	69.5203
879.939	74.4141
879.989	72.2762
880.039	74.1043
880.09	69.2959
880.14	65.5021
880.19	69.4247
880.241	71.18
880.291	71.902
880.342	71.8885
880.392	68.9474
880.442	68.5418
880.493	72
880.543	67.9747
880.594	73.7337
880.644	75.0524
880.694	72.0509
880.745	66.6418
880.795	66.6473
880.845	74.4465
880.896	68.9462
880.946	67.9952
880.996	68.5439
881.047	73.6054
881.097	69.0881
881.148	67.0622
881.198	69.3513
881.248	65.7742
881.299	67.6909
881.349	63.247
881.399	65.1426
881.45	73.0707
881.5	71.3235
881.551	67.8614
881.601	75.3873
881.651	71.8761
881.702	69.116
881.752	68.1935
881.802	71.904
881.853	73.6446
881.903	64.0873
881.953	64.8325
882.004	63.9874
882.054	64.963
882.104	71.3775
882.155	68.0382
882.205	70.64
882.256	67.9468
882.306	66.8194
882.356	63.0318
882.407	68.9921
882.457	68.0915
882.507	68.6367
882.558	71.2924
882.608	66.351
882.658	64.8278
882.709	64.2937
882.759	62.5086
882.809	67.8092
882.86	75.6161
882.91	70.0859
882.96	64.3917
883.011	68.9804
883.061	70.1315
883.111	66.9618
883.162	63.8357
883.212	66.6742
883.262	66.4679
883.313	63.8608
883.363	56.863
883.413	61.3363
883.464	64.9387
883.514	68.4877
883.565	62.1644
883.615	67.2415
883.665	65.7217
883.716	69.0565
883.766	65.2512
883.816	65.5395
883.867	64.8219
883.917	64.7802
883.967	65.9972
884.017	68.7908
884.068	68.4321
884.118	69.1613
884.168	70.9275
884.219	69.5208
884.269	69.7209
884.319	70.1264
884.37	70
884.42	69.6299
884.47	68.9623
884.521	62.6756
884.571	68.3411
884.621	69.3252
884.672	67.0143
884.722	65.9184
884.772	63.2781
884.823	70.7421
884.873	62.6498
884.923	62.7217
884.974	62.1969
885.024	68.1977
885.074	74.1253
885.125	70.258
885.175	63.6185
885.225	62.9289
885.276	68.8439
885.326	65.2127
885.376	62.142
885.426	70.3084
885.477	67.9555
885.527	70.143
885.577	63.6183
885.628	66.9312
885.678	64.3237
885.728	56.6588
885.779	62.6408
885.829	67.794
885.879	66
885.93	65.6069
885.98	63.1244
886.03	65.8839
886.08	68.0921
886.131	54.2859
886.181	61.0191
886.231	63.5102
886.282	58.9339
886.332	57.5468
886.382	67.0034
886.432	61.6452
886.483	70.7389
886.533	56.5758
886.583	57.7765
886.634	68.6859
886.684	65.6495
886.734	65.525
886.785	60.614
886.835	65.4372
886.885	63.6269
886.935	65.7779
886.986	64.2092
887.036	69.2057
887.086	65.5616
887.137	64
887.187	64.1855
887.237	61.6766
887.287	62.131
887.338	63.9309
887.388	58.2558
887.438	67.5079
887.489	65.922
887.539	62.0755
887.589	63.9294
887.639	69.7893
887.69	65.8721
887.74	62.1388
887.79	69.7812
887.841	71.8093
887.891	66.1167
887.941	62.1097
887.943	62.0385
887.993	61.9764
888.044	71.8003
888.094	56.112
888.144	69.75
888.195	63.8486
888.245	54.3056
888.296	63.9607
888.346	56.3604
888.397	63.6712
888.447	59.6237
888.498	56.1085
888.548	61.8449
888.599	69.2022
888.649	62.0437
888.699	67.7721
888.75	58.3392
888.8	69.0775
888.851	69.2469
888.901	56.0597
888.952	54.0573
889.002	63.2531
889.053	61.5379
889.103	65.5171
889.153	56.5841
889.204	59.9645
889.254	60.7741
889.305	63.8579
889.355	59.9271
889.406	66.8834
889.456	58.4468
889.507	65.0354
889.557	49.3495
889.607	65.2656
889.658	71.6432
889.708	58.0837
889.759	58.226
889.809	64.722
889.86	55.9783
889.91	65.506
889.96	54.9268
890.011	61.7928
890.061	57.1073
890.112	63.5375
890.162	66.3953
890.213	69.1088
890.263	65.3362
890.313	59.6763
890.364	60.8419
890.414	57.7058
890.465	53.9665
890.515	64.594
890.566	59.4564
890.616	59.395
890.666	60.7626
890.717	60.0407
890.767	55.7061
890.818	60.8262
890.868	61.7348
890.919	63.9917
890.969	55.0207
891.019	60.8607
891.07	61.9939
891.12	56.6373
891.171	61.2529
891.221	63.4444
891.271	64.3195
891.322	61.6345
891.372	61.0526
891.423	56.0392
891.473	60.2199
891.523	57.3983
891.574	54.7093
891.624	64.613
891.675	57.6905
891.725	60.3895
891.776	57.5411
891.826	58.4323
891.876	60.4685
891.927	59.5221
891.977	60.3945
892.028	61.1689
892.078	58.0124
892.128	53.6744
892.179	60.5298
892.229	63.1286
892.28	60.3741
892.33	53.8281
892.38	53.9404
892.431	58.7455
892.481	53.4573
892.532	52.3666
892.582	58.8963
892.632	55.4485
892.683	57.6597
892.733	57.0563
892.784	58.0723
892.834	59.858
892.884	58.6876
892.935	57.6387
892.985	56.2665
893.036	53.2746
893.086	59.5436
893.136	55.4113
893.187	60.249
893.237	57.8911
893.288	56.4224
893.338	59.5072
893.388	53.2739
893.439	54.6421
893.489	63.9587
893.539	56.4707
893.59	57.3655
893.64	55.0535
893.691	63.0091
893.741	55.8672
893.791	59.8763
893.842	52.1912
893.892	65.9208
893.943	51.9324
893.993	52.0797
894.043	58
894.094	58.0145
894.144	57.9662
894.194	53.006
894.245	58.9879
894.295	58
894.346	54.0169
894.396	58
894.446	56.971
894.497	54.0543
894.547	54.9348
894.597	55.0483
894.648	56
894.698	51.0906
894.749	56.9348
894.799	54.0362
894.849	57.8406
894.9	52.1304
894.95	57.8164
895	61.1486
895.051	59.104
895.101	55.8333
895.151	52.0592
895.202	56
895.252	56
895.303	56.8623
895.353	58.1427
895.403	56.9251
895.454	52.471
895.504	61.1787
895.554	57.3386
895.605	51.3478
895.655	59.3659
895.706	55.0942
895.756	56.1935
895.806	58.2005
895.857	55.1039
895.907	61.8295
895.957	53.4287
896.008	53.8865
896.058	57.4196
896.108	52.7609
896.159	54.2443
896.209	55.628
896.259	56.3539
896.31	51.8682
896.36	59.1353
896.41	57.1378
896.461	60
896.511	53
896.561	48.7437
896.612	58.2391
896.662	58
896.713	52.6329
896.763	53
896.813	52.4928
896.864	55.8235
896.914	51.1715
896.964	52.5224
897.015	50.6449
897.065	57.4595
897.115	53.4457
897.166	57.5623
897.216	57.6203
897.266	61
897.317	53.5913
897.367	52.6014
897.417	50.1874
897.468	54.7932
897.518	49.0507
897.568	54.4256
897.619	52.7836
897.669	57.3406
897.719	58.3325
897.77	60.2261
897.82	56
897.87	55.2334
897.921	54.2358
897.971	54.9565
898.021	52
898.072	52.7545
898.122	45.4982
898.172	49.2428
898.223	56.7437
898.273	56.2938
898.323	50.4256
898.374	56.2648
898.424	53.2693
898.474	55.9117
898.524	47.2056
898.575	59.0532
898.625	55.5635
898.675	51
898.726	54.1366
898.776	53.1691
898.826	48.5901
898.877	56.5067
898.927	55
898.977	52.2189
899.028	52.075
899.078	57.6215
899.128	53.0568
899.179	59
899.229	55.3204
899.279	56.3797
899.33	56.3108
899.38	57.994
899.43	54.9976
899.48	55.3374
899.531	51.046
899.581	53.9661
899.631	56.9589
899.682	55.7013
899.732	54.0629
899.782	55.2842
899.833	54
899.883	55.7279
899.933	55.2648
899.984	55.1114
