#Acq. time (s)=	3
#Accumulations=	2
#Range (nm)=	520...900
#Windows=	16
#Auto scanning=	On
#Autofocus=	Off
#AutoExposure=	Off
#Spike filter=	Multiple accum.
#Delay time (s)=	0
#Binning=	1
#Readout mode=	Signal
#DeNoise=	Off
#ICS correction=	Off
#Dark correction=	Off
#Inst. Process=	Off
#Detector temperature (°C)=	-59.98
#Instrument=	LabRAM HR Evol
#Detector=	Syncerity OE
#Objective=	x50_VIS
#Grating=	600 (500nm)
#ND Filter=	10%
#Laser=	514nm_Edge
#Hole=	199.981
#Range=	Auto
#StageXY=	Marzhauser
#StageZ=	Marzhauser
#X (µm)=	2160.7
#Y (µm)=	-221.9
#Z (µm)=	-218.9
#Full time(mm:ss)=	2:39
#Project=	
#Sample=	
#Site=	
#Title=	PL_Fatia_SCD_021223
#Remark=	
#Date=	18.12.2023 18:12
#Acquired=	18.12.2023 18:12:18
520.042	73
520.094	66.3012
520.147	64.9546
520.199	65
520.251	63.0977
520.304	63.9488
520.356	70.9476
520.408	63.0536
520.461	67.7721
520.513	65.0582
520.565	61.3562
520.618	66.8744
520.67	60.8719
520.723	60.3912
520.775	73.0547
520.827	64.6977
520.88	67.5669
520.932	66.2934
520.984	64.1513
521.037	62.1537
521.089	64.7628
521.141	60.2445
521.194	72.4214
521.246	67.3399
521.298	64.6554
521.351	57.4477
521.403	62.7276
521.455	68.1863
521.508	66.9057
521.56	59.5797
521.612	67.3155
521.665	60.7081
521.717	64.8731
521.769	72
521.822	69.3178
521.874	65.2165
521.926	65.7811
521.979	57.8941
522.031	70.7579
522.083	68.3457
522.136	64.2372
522.188	67
522.24	68.1222
522.293	63.8766
522.345	62.6228
522.397	63.1525
522.45	61.2247
522.502	62.1315
522.554	64.8661
522.607	64.4051
522.659	59.1374
522.711	67.4412
522.764	63.4226
522.816	58.716
522.868	59.1269
522.921	57.5867
522.973	61.1059
523.025	64.454
523.078	62.695
523.13	63.8452
523.182	57.3143
523.234	61.8405
523.287	63.6426
523.339	64.1851
523.391	69.6694
523.444	67.3353
523.496	64.0128
523.548	65.1492
523.601	64.8277
523.653	65.8254
523.705	57.4156
523.758	63.397
523.81	63
523.862	63.7311
523.915	67
523.967	57.6251
524.019	57.9441
524.072	61.0454
524.124	69.5762
524.176	66.2224
524.229	61.5902
524.281	67.6019
524.333	66.4009
524.385	60
524.438	68.1804
524.49	66
524.542	68.4191
524.595	64.4219
524.647	61.4237
524.699	71.929
524.752	56.9488
524.804	62.5925
524.856	64.3217
524.909	60.3329
524.961	62
525.013	66
525.066	59.6853
525.118	65.7695
525.17	60.3015
525.222	62
525.275	70
525.327	62.716
525.379	66.2762
525.432	61.7299
525.484	59.4913
525.536	65
525.589	61.7506
525.641	64.2456
525.693	59.2689
525.745	64.4685
525.798	63.0291
525.85	56.7762
525.902	56.7823
525.955	61.6217
526.007	57.5944
526.059	61.5902
526.112	63.3504
526.164	61.7284
526.216	63.3679
526.268	63.3427
526.321	57.8347
526.373	62.6014
526.425	60.1269
526.478	56.8522
526.53	60.7133
526.582	61.1339
526.635	62.8706
526.687	56.4156
526.739	63
526.791	63
526.844	58.4033
526.896	62.3004
526.948	59.6061
527.001	59.305
527.053	58.6935
527.105	60.766
527.157	60.8671
527.21	60.7474
527.262	61
527.314	60.6822
527.367	65.3194
527.419	64
527.471	62.0291
527.523	57.9266
527.576	56.3644
527.628	61.9895
527.68	60.0047
527.733	59.0035
527.785	55.6643
527.837	61.3248
527.889	59.6597
527.942	62.317
527.994	62.6892
528.046	61.7308
528.099	60.3015
528.151	58
528.203	61
528.255	60
528.308	60.2867
528.36	64.5641
528.412	63.4435
528.464	60.4545
528.517	59.176
528.569	54.4685
528.621	62.1548
528.674	63.7436
528.726	58.8776
528.778	56.5041
528.83	65.1061
528.883	61.6597
528.935	58.8531
528.987	61.2317
529.039	65
529.092	59.7786
529.144	60
529.196	59.3928
529.249	62.2107
529.301	61.1923
529.353	54.6002
529.405	60.6037
529.458	61.5804
529.51	64.8126
529.562	58.5921
529.614	62.1795
529.667	66.4126
529.719	59.2413
529.771	57.4161
529.823	61.3236
529.876	64.5793
529.928	65.8462
529.98	65.2984
530.033	63.5664
530.085	58.5711
530.137	64
530.189	60.6993
530.242	61.3077
530.294	63.6888
530.346	67.56
530.398	60.4429
530.451	61.1166
530.503	60.2098
530.555	66.3077
530.607	66.9021
530.66	64.7203
530.712	67.7214
530.764	62.2902
530.816	64.3963
530.869	65.6154
530.921	61.1445
530.973	63.331
531.025	60.1888
531.078	65.4709
531.13	60.9464
531.182	62.4755
531.234	61.1772
531.287	69.9604
531.339	63.4126
531.391	62.5163
531.443	63.5438
531.496	62.9744
531.548	66.5105
531.6	64.9674
531.652	61.5408
531.705	65.993
531.757	67.9977
531.809	60.4965
531.861	65
531.914	66.9883
531.966	74.5228
532.018	61.5093
532.07	68.0233
532.123	65.458
532.175	66.5175
532.227	64.5198
532.279	63.4352
532.332	66.5233
532.384	68.9487
532.436	67.528
532.488	64
532.541	70.0642
532.593	68.0676
532.645	66.3916
532.697	71.0793
532.75	66
532.802	64.0862
532.854	64.0909
532.906	69.2867
532.958	65
533.011	68.1049
533.063	61.3357
533.115	65.5571
533.167	62.1179
533.22	69
533.272	60.3077
533.324	69.4341
533.376	73.2972
533.429	71.1103
533.481	60.0051
533.533	67.1627
533.585	74.3045
533.638	77.2534
533.69	66.7622
533.742	68.3179
533.794	68.2503
533.846	68.3668
533.899	67.6241
533.951	65.2998
534.003	66.8115
534.055	72.5138
534.108	64.4176
534.16	71.1277
534.212	72.0754
534.264	66.2985
534.316	72.8321
534.369	73.6673
534.421	65.8079
534.473	70.0042
534.525	64.2322
534.578	68.3158
534.63	67.88
534.682	72.1957
534.734	70.4825
534.786	71.3789
534.839	69.2995
534.891	74.7685
534.943	73.0144
534.995	69.5949
535.047	73.1826
535.1	74.5471
535.152	70.7984
535.204	77.4487
535.256	72.4726
535.309	72.0357
535.361	70.3416
535.413	72.3282
535.465	72.5897
535.517	76.7669
535.57	74.3288
535.622	73.9959
535.674	72.5342
535.726	71.6729
535.778	73.906
535.831	76.8989
535.883	68.8286
535.935	70.3361
535.987	73.502
536.039	81.7657
536.092	67.2453
536.144	75.3515
536.196	72.2234
536.248	71.316
536.301	83.7988
536.353	77.9353
536.405	72.1946
536.457	76.7509
536.509	69.0575
536.562	71.6541
536.614	69.9144
536.666	75.2349
536.718	70.82
536.77	75.0166
536.823	73.5456
536.875	76.9224
536.927	75.6304
536.979	76.7299
537.031	72.6829
537.083	74.8453
537.136	75.7785
537.188	72.088
537.24	74.0996
537.292	73.8434
537.344	81.0296
537.397	72.6316
537.449	78.6106
537.501	81.7825
537.553	75.8103
537.605	75.4039
537.658	84.03
537.71	79.0206
537.762	76.9754
537.814	80.5954
537.866	82.2115
537.919	72.5056
537.971	82.6223
538.023	79.4308
538.075	76.7954
538.127	81.2617
538.18	79.2881
538.232	86.092
538.284	85.8547
538.336	81.9545
538.388	80.1854
538.44	80.2952
538.493	80.8524
538.545	82.3249
538.597	83.1073
538.649	74.7792
538.701	84.9795
538.754	78.8154
538.806	83.5159
538.858	77.1225
538.91	80.9074
538.962	80.441
539.014	74.0627
539.067	84.6204
539.119	85.9001
539.171	88.8081
539.223	79.5534
539.275	82.4881
539.327	85.2761
539.38	80.8612
539.432	81.2759
539.484	77.6201
539.536	85.4567
539.588	80.137
539.641	79.6536
539.693	85.0633
539.745	88.2463
539.797	80.5688
539.849	84.6099
539.901	87.8841
539.954	86.0548
540.006	83.8089
540.058	84.9031
540.11	88.7503
540.162	86.1039
540.214	83.8431
540.267	87.0468
540.319	88.8646
540.371	85.2452
540.423	83.1218
540.475	85.3438
540.527	89.3096
540.58	86.7424
540.632	84.7113
540.684	76.8484
540.736	89.1219
540.788	89.4852
540.84	85.8288
540.892	81.3573
540.945	87.4229
540.997	88.8538
541.049	91.0093
541.101	84.7127
541.153	98.2482
541.205	89.9718
541.258	89.591
541.31	89.1055
541.362	100.788
541.414	91.5794
541.466	102.528
541.518	91.9792
541.57	96.4579
541.623	96.3636
541.675	89.5117
541.727	96.1869
541.779	96.3897
541.831	90.6882
541.883	100.403
541.936	91.8663
541.988	98.0623
542.04	90.1219
542.092	102.487
542.144	100.967
542.196	97.2667
542.248	96.2841
542.301	95.469
542.353	99.2604
542.405	97.135
542.457	90.1967
542.509	102.613
542.561	112.321
542.613	95.6217
542.666	92.7478
542.718	94.1237
542.77	95.3971
542.822	94.6191
542.874	105.992
542.926	98.8673
542.978	100.589
543.031	104.542
543.083	100.848
543.135	106.744
543.187	109.032
543.239	112.203
543.291	99.9392
543.343	109.564
543.396	120.003
543.448	109.798
543.5	106.29
543.552	99.4062
543.604	113.055
543.656	109.337
543.708	114.245
543.76	108.888
543.813	108.434
543.865	115.453
543.917	110.682
543.969	105.304
544.021	108.008
544.073	117.099
544.125	108.764
544.177	116.938
544.23	111.909
544.282	99.5754
544.334	112.105
544.386	112.304
544.438	107.091
544.49	107.526
544.542	122.02
544.594	113.379
544.647	111.227
544.699	108.32
544.751	116.59
544.803	103.798
544.855	122.497
544.907	112.662
544.959	110.131
545.011	107.657
545.064	103.874
545.116	106.073
545.168	113.634
545.22	109.305
545.272	115.241
545.324	118.193
545.376	115.156
545.428	110.755
545.48	115.468
545.533	111.083
545.585	123.592
545.637	122.186
545.689	119.497
545.741	106.633
545.793	109.804
545.845	113.384
545.897	109.638
545.949	115.131
546.002	122.721
546.054	112.286
546.106	113.793
546.158	124.092
546.21	114.55
546.262	115.39
546.314	121.071
546.366	127.047
546.418	119.785
546.471	117.982
546.523	127.952
546.575	126.741
546.627	130.924
546.679	131.964
546.689	131.991
546.741	128.029
546.793	129.936
546.845	135.896
546.898	135.873
546.95	122.031
547.002	129.857
547.054	120.13
547.106	128.22
547.159	124.277
547.211	122.282
547.263	132.164
547.315	135.983
547.368	141.586
547.42	133.734
547.472	122.266
547.524	136.034
547.577	139.778
547.629	132.102
547.681	141.835
547.733	138.189
547.785	140.227
547.838	124.738
547.89	128.976
547.942	144.411
547.994	142.174
548.047	147.819
548.099	138.576
548.151	151.877
548.203	145.88
548.255	132.861
548.308	150.144
548.36	155.343
548.412	140.945
548.464	143.227
548.517	139.28
548.569	155.635
548.621	144.371
548.673	158.289
548.725	142.498
548.778	157.764
548.83	156.997
548.882	158.933
548.934	142.731
548.987	151.839
549.039	148.766
549.091	154.51
549.143	149.421
549.195	162.533
549.248	150.895
549.3	163.742
549.352	154.741
549.404	156.404
549.456	149.406
549.509	158.076
549.561	162.743
549.613	171.39
549.665	166.15
549.718	169.435
549.77	160.662
549.822	171.506
549.874	162.753
549.926	180.849
549.979	160.376
550.031	180.175
550.083	176.552
550.135	174.78
550.187	164.168
550.24	173.553
550.292	169.309
550.344	167.148
550.396	168.865
550.448	178.14
550.501	165.485
550.553	171.909
550.605	178.616
550.657	177.899
550.709	193.68
550.762	181.801
550.814	187.298
550.866	182.959
550.918	190.14
550.97	189.21
551.023	183.637
551.075	191.493
551.127	185.75
551.179	200.548
551.231	196.629
551.284	199.146
551.336	203.135
551.388	196.984
551.44	206.745
551.492	204.871
551.545	199.415
551.597	213.949
551.649	217.781
551.701	213.046
551.753	201.866
551.806	226.834
551.858	241.095
551.91	242.142
551.962	246.269
552.014	234.256
552.067	246.288
552.119	261.106
552.171	267.282
552.223	300.248
552.275	353.511
552.327	386.958
552.38	479.271
552.432	775.579
552.484	1507.57
552.536	2788.51
552.588	4728.79
552.641	7907.05
552.693	10930.3
552.745	9334.03
552.797	5415.59
552.849	2417.08
552.901	1019.49
552.954	591.246
553.006	432.661
553.058	363.614
553.11	336.059
553.162	308.703
553.215	295.946
553.267	277.15
553.319	270.176
553.371	265.406
553.423	248.996
553.475	236.663
553.528	259.423
553.58	254.637
553.632	253.157
553.684	243.379
553.736	241.409
553.788	244.187
553.841	254.986
553.893	238.607
553.945	254.234
553.997	237.724
554.049	236.211
554.102	243.288
554.154	246.57
554.206	241.285
554.258	243.72
554.31	253.622
554.362	254.179
554.414	248.463
554.467	246.335
554.519	249.287
554.571	245.897
554.623	250.812
554.675	244.807
554.727	248.613
554.78	268.372
554.832	259.379
554.884	255.669
554.936	242.782
554.988	239.691
555.04	252.842
555.093	257.575
555.145	255.152
555.197	259.239
555.249	256.834
555.301	264.112
555.353	268.855
555.406	256.904
555.458	262.671
555.51	270.159
555.562	264.565
555.614	259.302
555.666	257.568
555.719	278.645
555.771	274.432
555.823	260.631
555.875	266.548
555.927	272.061
555.979	273.337
556.031	273.456
556.084	282.573
556.136	290.091
556.188	289.014
556.24	286.58
556.292	283.8
556.344	289.194
556.396	274.424
556.449	289.942
556.501	293.317
556.553	296.244
556.605	298.159
556.657	294.592
556.709	306.044
556.762	301.227
556.814	308.354
556.866	299.545
556.918	299.973
556.97	309.461
557.022	326.512
557.074	320.52
557.127	325.532
557.179	318.045
557.231	306.927
557.283	317.501
557.335	313.958
557.387	307.831
557.439	315.483
557.492	307.241
557.544	306.771
557.596	331.334
557.648	322.955
557.7	321.38
557.752	316.238
557.804	337.424
557.856	333.598
557.909	334.955
557.961	323.396
558.013	316.779
558.065	330.886
558.117	321.195
558.169	329.142
558.221	330.018
558.273	328.33
558.326	331.434
558.378	325.382
558.43	337.789
558.482	354.428
558.534	322.593
558.586	320.867
558.638	337.863
558.691	344.982
558.743	339.411
558.795	330.286
558.847	344.701
558.899	339.393
558.951	354.85
559.003	364.507
559.055	365.896
559.108	356.452
559.16	336.371
559.212	346.594
559.264	350.787
559.316	340.118
559.368	359.311
559.42	362.776
559.472	367.399
559.525	348.984
559.577	341.469
559.629	373.399
559.681	362.756
559.733	355.808
559.785	369.773
559.837	365.835
559.889	358.363
559.941	367.444
559.994	364.536
560.046	371.035
560.098	383.177
560.15	374.419
560.202	372.928
560.254	382.303
560.306	383.974
560.358	380.257
560.41	392.345
560.463	397.258
560.515	388.109
560.567	392.468
560.619	392.227
560.671	396.339
560.723	402.014
560.775	410.651
560.827	405.563
560.879	401.708
560.932	402.702
560.984	408.6
561.036	401.237
561.088	404.5
561.14	422.033
561.192	420.427
561.244	419.857
561.296	428.758
561.348	407.013
561.4	421.647
561.453	421.723
561.505	431.545
561.557	436.936
561.609	436.234
561.661	438.136
561.713	439.128
561.765	435.198
561.817	437.267
561.869	438.645
561.921	449.757
561.974	442.824
562.026	465.687
562.078	460.467
562.13	460.238
562.182	466.055
562.234	452.547
562.286	447.482
562.338	474.213
562.39	467.545
562.442	470.307
562.494	477.072
562.547	487.722
562.599	473.601
562.651	484.564
562.703	478.89
562.755	476.375
562.807	498.543
562.859	491.118
562.911	483.389
562.963	483.157
563.015	494.06
563.067	485.776
563.12	513.173
563.172	487.477
563.224	490.572
563.276	501.782
563.328	485.135
563.38	493.891
563.432	509.403
563.484	496.894
563.536	508.624
563.588	510.284
563.64	501.965
563.692	511.462
563.744	518.581
563.797	518.499
563.849	528.399
563.901	532.346
563.953	499.174
564.005	523.113
564.057	526.492
564.109	522.474
564.161	519.968
564.213	527.352
564.265	537.035
564.317	538.537
564.369	533.056
564.421	553.011
564.474	539.528
564.526	549.887
564.578	542.182
564.63	552.182
564.682	565.171
564.734	549.223
564.786	559.256
564.838	566.82
564.89	564.604
564.942	559.588
564.994	568.24
565.046	564.07
565.098	553.745
565.15	566.915
565.202	563.401
565.255	568.703
565.307	569.629
565.359	573.934
565.411	575.027
565.463	568.935
565.515	581.456
565.567	583.96
565.619	582.546
565.671	592.23
565.723	607.26
565.775	602.234
565.827	592.695
565.879	610.452
565.931	615.169
565.983	606.598
566.035	614.284
566.087	611.484
566.139	600.239
566.192	611.064
566.244	625.83
566.296	629.322
566.348	633.112
566.4	620.724
566.452	627.253
566.504	616.416
566.556	617.626
566.608	629.289
566.66	632.865
566.712	645.675
566.764	641.249
566.816	645.969
566.868	665.75
566.92	672.093
566.972	659.883
567.024	654.623
567.076	658.434
567.128	651.216
567.18	663.359
567.232	656.418
567.285	654.624
567.337	669.479
567.389	673.555
567.441	677.098
567.493	679.835
567.545	678.936
567.597	673.243
567.649	679.665
567.701	687.635
567.753	678.892
567.805	689.991
567.857	704.202
567.909	707.062
567.961	702.3
568.013	707.102
568.065	706.782
568.117	713.66
568.169	708.036
568.221	703
568.273	723.297
568.325	742.612
568.377	727.877
568.429	723.21
568.481	744.369
568.533	735.516
568.585	737.706
568.637	748.229
568.69	747.626
568.742	755.305
568.794	750.928
568.846	763.044
568.898	755.315
568.95	730.351
569.002	743.01
569.054	770.347
569.106	764.592
569.158	773.622
569.21	783.956
569.262	801.27
569.314	794.56
569.366	786.792
569.418	774.831
569.47	778.193
569.522	801.009
569.574	801.053
569.626	781.68
569.678	782.531
569.73	816.206
569.782	822.171
569.834	815.89
569.886	811.417
569.938	838.149
569.99	844.475
570.042	825.017
570.094	853.204
570.146	863.983
570.198	845.386
570.25	852.848
570.302	867.962
570.354	885.961
570.406	896.664
570.458	885.919
570.51	882.077
570.562	924.24
570.614	933.248
570.666	927.447
570.718	916.745
570.77	920.656
570.822	946.929
570.874	923.217
570.926	928.615
570.978	958.302
571.03	966.911
571.082	993.341
571.134	981.308
571.186	973.708
571.238	993.127
571.29	994.717
571.342	1007.74
571.394	1008.85
571.446	1014.13
571.498	1023.11
571.55	1054.19
571.602	1066.51
571.654	1086.73
571.706	1086.75
571.758	1072.9
571.81	1105.11
571.862	1132.66
571.914	1143.49
571.966	1143.24
572.018	1146.61
572.07	1168.33
572.122	1179.13
572.174	1191.76
572.226	1196.36
572.278	1199.05
572.33	1214.69
572.382	1217.05
572.434	1244.54
572.486	1266.39
572.538	1279.48
572.59	1301.18
572.642	1312.23
572.694	1317.89
572.746	1335.49
572.798	1359.99
572.85	1401.72
572.902	1398.36
572.954	1394.96
573.006	1454.47
573.058	1462.5
573.11	1453.57
573.162	1455.36
573.214	1521.02
573.266	1505.75
573.302	1552.1
573.355	1570.2
573.407	1566.43
573.459	1649.88
573.511	1660.1
573.563	1660.57
573.615	1715.71
573.667	1712.05
573.719	1731.98
573.772	1768.04
573.824	1790.69
573.876	1831.74
573.928	1828.37
573.98	1888.15
574.032	1914.71
574.084	1958.13
574.136	1960.22
574.188	2003.28
574.241	2043.46
574.293	2097.22
574.345	2090.57
574.397	2127.91
574.449	2196.57
574.501	2196.71
574.553	2296.28
574.605	2312.38
574.657	2303.78
574.71	2341.97
574.762	2355.42
574.814	2452.16
574.866	2508.57
574.918	2519.33
574.97	2550.24
575.022	2569.06
575.074	2639.28
575.126	2627.71
575.178	2670.92
575.231	2685.44
575.283	2766.42
575.335	2728.38
575.387	2772.35
575.439	2787.06
575.491	2793.32
575.543	2821.7
575.595	2910.13
575.647	2880.7
575.7	2877.74
575.752	2914.11
575.804	2851.4
575.856	2846.83
575.908	2910.66
575.96	2841.17
576.012	2879.22
576.064	2871.31
576.116	2861.39
576.168	2856.7
576.22	2841.43
576.273	2810.98
576.325	2800.88
576.377	2797.82
576.429	2815.99
576.481	2763.99
576.533	2691.28
576.585	2745.97
576.637	2627.89
576.689	2657.37
576.741	2644.11
576.793	2609.64
576.846	2596
576.898	2508.25
576.95	2515.25
577.002	2491.04
577.054	2458.94
577.106	2452.37
577.158	2413.24
577.21	2370.19
577.262	2347.74
577.314	2351.13
577.366	2315.66
577.418	2290.75
577.471	2266.72
577.523	2224.99
577.575	2186.02
577.627	2196.48
577.679	2161.36
577.731	2122.13
577.783	2115.7
577.835	2108.75
577.887	2061.16
577.939	2055.18
577.991	2099.26
578.043	2031.11
578.095	2008.5
578.148	2001.3
578.2	1977.38
578.252	1959.99
578.304	1964.92
578.356	1936.84
578.408	1920.16
578.46	1907.95
578.512	1925.31
578.564	1885.98
578.616	1916.89
578.668	1889.17
578.72	1870.5
578.772	1864.11
578.824	1845.81
578.877	1840.02
578.929	1861.6
578.981	1796.46
579.033	1810.97
579.085	1831.3
579.137	1809.97
579.189	1813.75
579.241	1807.74
579.293	1790.42
579.345	1774.2
579.397	1823.8
579.449	1802
579.501	1794.78
579.553	1767.97
579.605	1802.81
579.658	1768.57
579.71	1752.75
579.762	1771.52
579.814	1793.02
579.866	1767.04
579.918	1759.33
579.97	1768.6
580.022	1779.89
580.074	1751.85
580.126	1779.46
580.178	1783.23
580.23	1766.96
580.282	1768.21
580.334	1781.53
580.386	1771.46
580.438	1769.02
580.49	1761.17
580.542	1754.93
580.595	1767.97
580.647	1784.45
580.699	1801.64
580.751	1796.55
580.803	1773.14
580.855	1800.61
580.907	1767.55
580.959	1788.8
581.011	1779.41
581.063	1828.72
581.115	1813.69
581.167	1806.98
581.219	1772.67
581.271	1799.16
581.323	1802.89
581.375	1795.65
581.427	1810.46
581.479	1825.2
581.531	1799.87
581.583	1833.03
581.635	1858.53
581.688	1824.46
581.74	1843.84
581.792	1806.71
581.844	1827.22
581.896	1857.82
581.948	1889.28
582	1842.9
582.052	1873.37
582.104	1832.23
582.156	1885.27
582.208	1860.8
582.26	1887.37
582.312	1845.87
582.364	1881.7
582.416	1864.69
582.468	1871.31
582.52	1914.75
582.572	1892.9
582.624	1896.32
582.676	1917.48
582.728	1902.13
582.78	1915.27
582.832	1906.24
582.884	1940.72
582.936	1940.59
582.988	1917.76
583.04	1934.65
583.092	1924.57
583.144	1920.82
583.196	1955.21
583.249	1990.89
583.301	1952.64
583.353	1980.04
583.405	1946.17
583.457	1974.19
583.509	2011.47
583.561	1982.13
583.613	2005.3
583.665	2007.63
583.717	2001.81
583.769	2036.72
583.821	2019.55
583.873	2029.71
583.925	2024.96
583.977	2053.5
584.029	2053.05
584.081	2088.11
584.133	2042.21
584.185	2041.63
584.237	2101.29
584.289	2049.5
584.341	2074.36
584.393	2089.53
584.445	2124.05
584.497	2108.14
584.549	2139.9
584.601	2085.95
584.653	2123.99
584.705	2134.97
584.757	2147.56
584.809	2113.11
584.861	2141.77
584.913	2182.69
584.965	2183.48
585.017	2205.07
585.069	2194.49
585.121	2216.84
585.173	2196.11
585.225	2210.76
585.277	2225.27
585.329	2230.65
585.381	2236.44
585.433	2232.99
585.485	2272.03
585.537	2229.91
585.589	2249.53
585.641	2273.73
585.693	2262.48
585.745	2263.51
585.797	2325.68
585.849	2304.04
585.901	2279.79
585.953	2335.74
586.005	2340.85
586.057	2351.82
586.109	2326.8
586.161	2376.67
586.213	2350.12
586.265	2356.58
586.317	2338.83
586.369	2336.56
586.421	2341.63
586.473	2369.63
586.525	2377.26
586.577	2369.4
586.629	2396.7
586.681	2383.95
586.733	2406.06
586.785	2373.67
586.837	2424.4
586.889	2409.08
586.941	2379.03
586.993	2408.26
587.045	2408.46
587.097	2414.49
587.149	2401.77
587.201	2412.47
587.253	2379.61
587.305	2425.37
587.357	2448.18
587.409	2413.03
587.461	2431.75
587.513	2455.52
587.565	2417.39
587.617	2426.6
587.669	2430.36
587.721	2444.3
587.773	2482.09
587.825	2461.45
587.877	2488.5
587.929	2422.69
587.981	2449.37
588.033	2424.82
588.085	2475.14
588.137	2476.53
588.189	2458.19
588.241	2458.78
588.293	2458.74
588.345	2440.59
588.397	2445.13
588.449	2462.59
588.501	2475.7
588.552	2457.39
588.604	2457.26
588.656	2447.82
588.708	2485.09
588.76	2506.06
588.812	2495.43
588.864	2435.88
588.916	2500.04
588.968	2486.15
589.02	2494.87
589.072	2523.65
589.124	2503.03
589.176	2516.23
589.228	2487.1
589.28	2517.89
589.332	2525.39
589.384	2527.4
589.436	2502.64
589.488	2494.78
589.54	2533.69
589.592	2521.33
589.644	2519.17
589.696	2508.84
589.748	2492.05
589.8	2528.75
589.852	2525.11
589.904	2490.2
589.956	2533.73
590.008	2502.9
590.06	2529.24
590.112	2504.9
590.163	2528.52
590.215	2527.26
590.267	2516.25
590.319	2513.8
590.371	2535.48
590.423	2460.85
590.475	2491.16
590.527	2497.33
590.579	2496.42
590.631	2501.64
590.683	2530.12
590.735	2540.87
590.787	2508.63
590.839	2532.98
590.891	2537.19
590.943	2545.02
590.995	2509.06
591.047	2512.99
591.099	2519.39
591.151	2531.62
591.203	2495.11
591.254	2535.82
591.306	2512.73
591.358	2507.72
591.41	2496.55
591.462	2498.99
591.514	2509.85
591.566	2510.15
591.618	2510.16
591.67	2523.57
591.722	2480.58
591.774	2465.18
591.826	2503.74
591.878	2495.57
591.93	2511.47
591.982	2500.96
592.034	2528.8
592.086	2498.86
592.137	2487.26
592.189	2451.16
592.241	2490.58
592.293	2510.7
592.345	2504.19
592.397	2499.79
592.449	2496.4
592.501	2486.72
592.553	2478.92
592.605	2467.43
592.657	2488.12
592.709	2486.98
592.761	2483.14
592.813	2502.92
592.865	2502.11
592.916	2504.2
592.968	2487.34
593.02	2496.76
593.072	2495.33
593.124	2509.36
593.176	2476.99
593.228	2493.86
593.28	2501.37
593.332	2511.74
593.384	2511.29
593.436	2482.17
593.488	2507.24
593.54	2530.67
593.591	2510
593.643	2508.19
593.695	2510.69
593.747	2509.13
593.799	2521.76
593.851	2505.49
593.903	2490.59
593.955	2515.48
594.007	2495.31
594.059	2510.02
594.111	2523.38
594.163	2505.34
594.215	2503.09
594.266	2552.42
594.318	2568.76
594.37	2532.53
594.422	2542.04
594.474	2539.02
594.526	2569.62
594.578	2555.17
594.63	2574.95
594.682	2597.72
594.734	2575.73
594.786	2556.42
594.837	2577.61
594.889	2623.61
594.941	2619.42
594.993	2615.47
595.045	2596.7
595.097	2579.82
595.149	2590.25
595.201	2610.96
595.253	2595.83
595.305	2604.58
595.357	2598.22
595.408	2626.46
595.46	2617.42
595.512	2613.24
595.564	2613.75
595.616	2634.99
595.668	2646.2
595.72	2630.68
595.772	2614.62
595.824	2632.34
595.876	2657.29
595.927	2669.61
595.979	2680
596.031	2672.27
596.083	2674.73
596.135	2688.31
596.187	2690.27
596.239	2691.76
596.291	2709.28
596.343	2711.48
596.394	2694.28
596.446	2708.96
596.498	2761.77
596.55	2753.5
596.602	2738.78
596.654	2719.89
596.706	2740.94
596.758	2771.49
596.81	2770.04
596.862	2753.21
596.913	2782.22
596.965	2792.91
597.017	2764.21
597.069	2774.86
597.121	2777.8
597.173	2768.98
597.225	2792.32
597.277	2814.56
597.328	2789.3
597.38	2791.24
597.432	2824.17
597.484	2794.86
597.536	2799.49
597.588	2805.87
597.64	2805.18
597.692	2824.76
597.744	2808.82
597.795	2841.07
597.847	2856.55
597.899	2857.63
597.951	2839.94
598.003	2848.41
598.055	2830.1
598.107	2821.11
598.159	2841.39
598.21	2838.47
598.262	2821.81
598.314	2846.84
598.366	2878.13
598.418	2895.29
598.47	2899.07
598.522	2879.73
598.574	2882.47
598.625	2897.46
598.677	2908.85
598.729	2917.76
598.781	2901.31
598.833	2896.29
598.885	2904.6
598.937	2901.25
598.988	2901.7
599.04	2907.53
599.092	2913.47
599.144	2903.26
599.196	2911.86
599.248	2917.23
599.3	2924.43
599.352	2925.67
599.403	2894.53
599.455	2960.08
599.507	2974.48
599.559	2955.24
599.611	2934.49
599.663	2923.19
599.715	2952.61
599.766	2953.18
599.803	3001.98
599.855	2957.96
599.907	2955.86
599.959	2961.7
600.011	2979.11
600.063	2953.62
600.115	2992.69
600.167	2963.63
600.219	2933.39
600.271	2948.89
600.323	2935.18
600.375	2985.57
600.427	2936.5
600.479	2958.69
600.531	2943.03
600.583	2948.55
600.635	2934.02
600.686	2982.61
600.738	2930.29
600.79	2978.94
600.842	2988.17
600.894	2930.84
600.946	2980.32
600.998	2979.56
601.05	2998.63
601.102	2980.7
601.154	2997.6
601.206	3014.12
601.258	2995.53
601.31	2896.82
601.362	2975.35
601.414	2988.84
601.466	3036.93
601.518	2922.47
601.57	2978.22
601.622	2989.34
601.674	3022.61
601.726	2957.37
601.778	3033.39
601.83	3033.06
601.882	3018.48
601.934	2996.08
601.986	3056.5
602.038	3019.11
602.09	3054.35
602.142	3027.2
602.194	2982.91
602.246	3020.88
602.298	3023.73
602.35	3013.88
602.402	3058.27
602.454	3023.19
602.506	2974.76
602.558	3001.11
602.61	3028.16
602.662	3018.71
602.714	3017.42
602.766	3035.46
602.818	3049.77
602.87	3008.05
602.922	3047.79
602.974	3069.96
603.026	3045.01
603.078	3034.22
603.13	3091.14
603.182	3036.09
603.234	3036.31
603.285	3030.25
603.337	3026.63
603.389	3074.76
603.441	3082.48
603.493	3085.65
603.545	3015.38
603.597	3092.92
603.649	3121.55
603.701	3040.74
603.753	3070.04
603.805	3057
603.857	3041.98
603.909	3097.15
603.961	3058.38
604.013	3049.09
604.065	3033.86
604.117	3074.72
604.169	3027.49
604.221	3083.19
604.273	3107.02
604.325	3066.75
604.377	3104.62
604.429	3123.48
604.481	3104.52
604.533	3081.34
604.584	3106.94
604.636	3038.88
604.688	3112.48
604.74	3086.93
604.792	3141.46
604.844	3133.61
604.896	3094.99
604.948	3124.11
605	3123.6
605.052	3106.93
605.104	3090.78
605.156	3111.09
605.208	3063.04
605.26	3106.1
605.312	3131.91
605.364	3112.46
605.416	3096.22
605.468	3093.92
605.52	3057.89
605.572	3126.84
605.623	3058.77
605.675	3114.35
605.727	3071.35
605.779	3073.04
605.831	3114.57
605.883	3143.45
605.935	3070.68
605.987	3106.32
606.039	3105.73
606.091	3090.38
606.143	3158.2
606.195	3059.76
606.247	3105.87
606.299	3132.54
606.351	3101.64
606.403	3131.43
606.455	3088.03
606.506	3105.72
606.558	3130.28
606.61	3103.54
606.662	3056.81
606.714	3061.34
606.766	3028.78
606.818	3087.01
606.87	3145.28
606.922	3147.69
606.974	3103.34
607.026	3114.01
607.078	3143.26
607.13	3110.57
607.182	3113.48
607.234	3140.68
607.285	3128.54
607.337	3150.58
607.389	3136.25
607.441	3109.56
607.493	3155.58
607.545	3106.97
607.597	3099.14
607.649	3140.56
607.701	3134.03
607.753	3141.07
607.805	3164.45
607.857	3130.52
607.909	3173.07
607.96	3146.02
608.012	3169.8
608.064	3132.23
608.116	3157.47
608.168	3162.53
608.22	3109.19
608.272	3179.52
608.324	3159.44
608.376	3183.31
608.428	3189.95
608.48	3162.08
608.532	3182.65
608.583	3179.53
608.635	3141.72
608.687	3175.69
608.739	3213.71
608.791	3159.54
608.843	3200.6
608.895	3214.07
608.947	3194.95
608.999	3187.71
609.051	3220.61
609.103	3230.15
609.155	3193.23
609.206	3270.19
609.258	3204.2
609.31	3235.06
609.362	3219.85
609.414	3232.47
609.466	3224.36
609.518	3209.77
609.57	3199.37
609.622	3220.32
609.674	3204.26
609.725	3215.76
609.777	3250.95
609.829	3241.11
609.881	3236.42
609.933	3263.36
609.985	3255.09
610.037	3309.19
610.089	3269.97
610.141	3290.76
610.193	3246.08
610.245	3272.48
610.296	3274.4
610.348	3255.46
610.4	3294.75
610.452	3281.72
610.504	3279.47
610.556	3283.86
610.608	3324.83
610.66	3321.28
610.712	3298.79
610.763	3288.07
610.815	3330.07
610.867	3329.85
610.919	3288.26
610.971	3324.94
611.023	3305.79
611.075	3332.95
611.127	3346.18
611.179	3315.63
611.23	3319.69
611.282	3287.24
611.334	3306.3
611.386	3353.28
611.438	3366.37
611.49	3304.29
611.542	3322.5
611.594	3353.56
611.646	3374.02
611.697	3339.93
611.749	3335.31
611.801	3331.22
611.853	3335.18
611.905	3335.19
611.957	3336.64
612.009	3323.91
612.061	3364.97
612.113	3402.02
612.164	3379.74
612.216	3354.84
612.268	3390.69
612.32	3400.4
612.372	3392.22
612.424	3399.09
612.476	3422.83
612.528	3440.73
612.579	3424.9
612.631	3441.33
612.683	3416.17
612.735	3413.24
612.787	3440.21
612.839	3473.76
612.891	3428.9
612.943	3471.4
612.994	3475.89
613.046	3487.57
613.098	3483.06
613.15	3473.48
613.202	3487.81
613.254	3488.17
613.306	3508.58
613.357	3477.67
613.409	3487.16
613.461	3538.67
613.513	3515.17
613.565	3474.7
613.617	3513.6
613.669	3495.11
613.721	3504.97
613.772	3501.3
613.824	3553.46
613.876	3485.65
613.928	3505.94
613.98	3571.68
614.032	3573.38
614.084	3555.94
614.135	3555.94
614.187	3551.12
614.239	3545.75
614.291	3594.16
614.343	3626.22
614.395	3607.4
614.447	3617.46
614.498	3614.56
614.55	3590.94
614.602	3587.38
614.654	3597.49
614.706	3612.49
614.758	3639.51
614.81	3658.19
614.861	3628.94
614.913	3670.55
614.965	3643.48
615.017	3626.26
615.069	3640.01
615.121	3674.02
615.172	3704
615.224	3671.68
615.276	3667.3
615.328	3726.16
615.38	3698.17
615.432	3687.43
615.484	3705.84
615.535	3727.32
615.587	3693.98
615.639	3705.9
615.691	3727.78
615.743	3694.04
615.795	3681.91
615.846	3743.14
615.898	3756.01
615.95	3749.24
616.002	3765.74
616.054	3775.31
616.106	3782.15
616.158	3804.29
616.209	3793.27
616.261	3808.69
616.313	3790.55
616.365	3800.94
616.417	3800.59
616.469	3819.93
616.52	3784.88
616.572	3794.03
616.624	3850.51
616.676	3802.01
616.728	3819.64
616.78	3835.21
616.831	3835.79
616.883	3818.12
616.935	3853.86
616.987	3850.61
617.039	3852.48
617.091	3848.33
617.142	3833.97
617.194	3837.6
617.246	3878.8
617.298	3885.39
617.35	3883.77
617.401	3883.79
617.453	3928.11
617.505	3875.5
617.557	3911.12
617.609	3880.61
617.661	3903.28
617.712	3944.52
617.764	3979.58
617.816	4018.44
617.868	3993.16
617.92	3981.66
617.972	4013.23
618.023	3972.23
618.075	4003.34
618.127	3997.65
618.179	3984.26
618.231	4017.55
618.282	3990.4
618.334	3960.47
618.386	3982.58
618.438	4045.14
618.49	4008.25
618.542	4063.56
618.593	4045.89
618.645	4037.4
618.697	4079.5
618.749	4064.55
618.801	4063.15
618.852	4084.38
618.904	4118.23
618.956	4080.27
619.008	4068.12
619.06	4081.77
619.111	4099.48
619.163	4116.15
619.215	4104.77
619.267	4154.47
619.319	4086.85
619.37	4129.13
619.422	4121.19
619.474	4159.61
619.526	4121.39
619.578	4160.24
619.63	4144.07
619.681	4177.51
619.733	4177.78
619.785	4168
619.837	4177.58
619.888	4172.72
619.94	4179.39
619.992	4211.95
620.044	4243.82
620.096	4228.3
620.147	4242.44
620.199	4211.65
620.251	4252.95
620.303	4242.15
620.355	4217.15
620.406	4236.24
620.458	4208.65
620.51	4262.03
620.562	4209.73
620.614	4252.82
620.665	4289.17
620.717	4218.84
620.769	4247.46
620.821	4241.52
620.873	4269.25
620.924	4281.3
620.976	4242.75
621.028	4259.78
621.08	4295.27
621.132	4292.08
621.183	4278.77
621.235	4272.52
621.287	4314.69
621.339	4265.52
621.39	4252.1
621.442	4301.8
621.494	4319.42
621.546	4254.13
621.598	4311.33
621.649	4308.11
621.701	4288.04
621.753	4342.83
621.805	4328.85
621.856	4335.92
621.908	4316.44
621.96	4280.14
622.012	4320.61
622.064	4319.67
622.115	4268.66
622.167	4299.99
622.219	4328.76
622.271	4321.02
622.322	4366.74
622.374	4362.78
622.426	4324.16
622.478	4389.26
622.53	4284.82
622.581	4322.05
622.633	4261.3
622.685	4350.52
622.737	4348.83
622.788	4329.41
622.84	4295.3
622.892	4319.66
622.944	4350.74
622.995	4364.02
623.047	4360.81
623.099	4372.59
623.151	4359.67
623.203	4357.94
623.254	4341.84
623.306	4375.65
623.358	4366.26
623.41	4371.19
623.461	4358.6
623.513	4447.28
623.565	4416.07
623.617	4370.28
623.668	4341.37
623.72	4412.9
623.772	4365.68
623.824	4457.93
623.875	4379.43
623.927	4432.3
623.979	4340.41
624.031	4383.52
624.082	4426.52
624.134	4445.6
624.186	4432.54
624.238	4428.48
624.289	4352.16
624.341	4416.67
624.393	4415.77
624.445	4390.06
624.496	4390.42
624.548	4414.78
624.6	4448.17
624.652	4435.08
624.703	4421.33
624.755	4436.5
624.807	4438.59
624.859	4364.49
624.91	4427.24
624.962	4401.68
625.014	4402.63
625.066	4435.37
625.117	4445.09
625.169	4457.56
625.221	4418.15
625.273	4434.98
625.324	4451.15
625.376	4459.66
625.428	4422.18
625.48	4464.46
625.531	4499.77
625.583	4473.34
625.635	4486.74
625.687	4527.84
625.738	4436.01
625.79	4484.79
625.842	4514.88
625.893	4516.08
625.945	4439.5
625.997	4482.24
626.049	4573.95
626.1	4579.98
626.152	4544.6
626.204	4568.65
626.256	4533.78
626.307	4545.65
626.316	4549.24
626.368	4568.51
626.42	4596.17
626.472	4598.96
626.523	4562.35
626.575	4494.9
626.627	4554.37
626.679	4579.88
626.731	4466.77
626.783	4539.71
626.835	4563.17
626.887	4594.77
626.938	4579.46
626.99	4625.44
627.042	4592.87
627.094	4582.9
627.146	4559.15
627.198	4579.51
627.25	4637.74
627.302	4593.13
627.353	4681.39
627.405	4663.68
627.457	4619.23
627.509	4618.58
627.561	4584.52
627.613	4641.92
627.665	4629.38
627.716	4625.64
627.768	4655.04
627.82	4689.43
627.872	4711.08
627.924	4583.02
627.976	4654.44
628.028	4687.62
628.079	4703.23
628.131	4699.81
628.183	4666.04
628.235	4671.79
628.287	4732.78
628.339	4762.15
628.391	4790.87
628.443	4713.75
628.494	4709.22
628.546	4730.13
628.598	4722.45
628.65	4741.23
628.702	4794.49
628.754	4756.7
628.805	4803.3
628.857	4745.61
628.909	4758.08
628.961	4813.93
629.013	4799.69
629.065	4830.04
629.117	4808.33
629.168	4765.54
629.22	4783.04
629.272	4806.43
629.324	4762.51
629.376	4758.89
629.428	4817.68
629.479	4788.89
629.531	4798.58
629.583	4819.41
629.635	4835.51
629.687	4802.18
629.739	4818.95
629.791	4864.16
629.842	4821.64
629.894	4810.76
629.946	4837.27
629.998	4845.97
630.05	4817.6
630.102	4888
630.153	4804.03
630.205	4885.78
630.257	4820.97
630.309	4925.12
630.361	4916.72
630.413	4889.95
630.464	4911
630.516	4844.41
630.568	4912.55
630.62	4853.93
630.672	4894.32
630.724	4898.11
630.776	4931.89
630.827	4909.03
630.879	5009.71
630.931	4893.31
630.983	4962.02
631.035	4928.89
631.086	4994.41
631.138	4957.51
631.19	4983.08
631.242	4990
631.294	4974.69
631.346	5001.78
631.397	4995.65
631.449	5005.21
631.501	5000.97
631.553	5014.99
631.605	5076.44
631.657	5038.62
631.708	4988.55
631.76	4988.46
631.812	5011.71
631.864	5054.41
631.916	5110.4
631.967	5092.72
632.019	5102.83
632.071	5065.43
632.123	5050.49
632.175	5075.61
632.227	5106.9
632.278	5119.06
632.33	5129.17
632.382	5190.48
632.434	5200.34
632.486	5193.15
632.537	5165.28
632.589	5188.58
632.641	5224.81
632.693	5258.75
632.745	5180.42
632.797	5190.05
632.848	5232.55
632.9	5243.49
632.952	5168.39
633.004	5257.55
633.056	5234.82
633.107	5190.58
633.159	5249.36
633.211	5243.36
633.263	5246.48
633.315	5259.06
633.366	5283.57
633.418	5309.14
633.47	5344.1
633.522	5270.82
633.574	5353.93
633.625	5379.87
633.677	5346.5
633.729	5368.26
633.781	5378.65
633.833	5347.85
633.885	5434.39
633.936	5446.66
633.988	5405.72
634.04	5435.68
634.092	5475.95
634.143	5454.3
634.195	5448.28
634.247	5508.89
634.299	5460.78
634.351	5500.93
634.403	5486.22
634.454	5510.14
634.506	5482.72
634.558	5521.72
634.61	5514.43
634.661	5559.73
634.713	5574.11
634.765	5652.58
634.817	5633.52
634.869	5623.06
634.92	5701.82
634.972	5711.36
635.024	5705.12
635.076	5727.63
635.128	5689.45
635.179	5739.54
635.231	5734.15
635.283	5746.03
635.335	5744.54
635.387	5806.55
635.438	5873.22
635.49	5924.84
635.542	5918.62
635.594	5942.29
635.645	5915.39
635.697	5996.44
635.749	6038.09
635.801	6004.93
635.853	6079.58
635.904	6151.32
635.956	6124.7
636.008	6230.35
636.06	6237.83
636.112	6224.48
636.163	6231.43
636.215	6325.82
636.267	6357.85
636.319	6426.85
636.37	6467.58
636.422	6515.82
636.474	6524.01
636.526	6582.66
636.577	6707.78
636.629	6720.29
636.681	6812.17
636.733	6824.94
636.785	6843.56
636.836	6937.65
636.888	7001.73
636.94	7085.41
636.992	7144.96
637.043	7121.86
637.095	7208.04
637.147	7269.92
637.199	7311.32
637.25	7414.68
637.302	7449.16
637.354	7562.47
637.406	7502.85
637.458	7523.35
637.509	7663.61
637.561	7720.02
637.613	7772.75
637.665	7781.1
637.716	7823.16
637.768	7763.34
637.82	7868.53
637.872	7872.84
637.923	7972.38
637.975	7952.71
638.027	7880.67
638.079	7953.01
638.13	7973.34
638.182	7963.78
638.234	7952.85
638.286	7923.65
638.337	7904.58
638.389	7953.81
638.441	7930
638.493	7848.93
638.544	7860.43
638.596	7826.46
638.648	7771.75
638.7	7788.58
638.752	7792.3
638.803	7762.23
638.855	7717.3
638.907	7710.93
638.958	7603
639.01	7518.79
639.062	7624.29
639.114	7555.38
639.165	7507.09
639.217	7458.52
639.269	7449.82
639.321	7454.49
639.372	7408.78
639.424	7325.35
639.476	7283.29
639.528	7257.14
639.579	7222.21
639.631	7195.7
639.683	7167.48
639.735	7144.14
639.786	7068.5
639.838	7045.73
639.89	7028
639.942	7039.2
639.993	6990.49
640.045	6957.91
640.097	7010.3
640.149	7002.47
640.2	6935.03
640.252	6934.78
640.304	6860
640.356	6889.54
640.407	6867.26
640.459	6846.01
640.511	6835.13
640.562	6889.39
640.614	6807.18
640.666	6829.44
640.718	6791.7
640.769	6753.48
640.821	6723.35
640.873	6669.22
640.925	6707.71
640.976	6736.19
641.028	6675.9
641.08	6713.73
641.131	6725.92
641.183	6645.35
641.235	6725.01
641.287	6692.3
641.338	6707.3
641.39	6723.86
641.442	6704.02
641.494	6676.86
641.545	6665.45
641.597	6627.22
641.649	6667.79
641.7	6613.62
641.752	6643.55
641.804	6626.69
641.856	6673.65
641.907	6659.43
641.959	6635.28
642.011	6630.27
642.063	6607.98
642.114	6608.17
642.166	6671.75
642.218	6639.71
642.269	6716.24
642.321	6674.2
642.373	6664.41
642.424	6599.12
642.476	6616.86
642.528	6633.41
642.58	6635.2
642.631	6643.94
642.683	6620.78
642.735	6645
642.786	6648.7
642.838	6595.37
642.89	6614.97
642.942	6673.33
642.993	6619.56
643.045	6575.69
643.097	6665.8
643.148	6665.72
643.2	6670.42
643.252	6634.5
643.304	6645.78
643.355	6689.6
643.407	6672.17
643.459	6725.83
643.51	6716.2
643.562	6717.81
643.614	6703.58
643.665	6721.37
643.717	6690.38
643.769	6754.63
643.82	6705.25
643.872	6753.48
643.924	6789.13
643.976	6682.78
644.027	6699.8
644.079	6782.8
644.131	6760.46
644.182	6736.93
644.234	6766.66
644.286	6733.91
644.337	6802.54
644.389	6761.4
644.441	6757.3
644.493	6732.43
644.544	6783.84
644.596	6874.09
644.648	6784.53
644.699	6779
644.751	6720.81
644.803	6813.84
644.854	6803.29
644.906	6762.39
644.958	6901.42
645.009	6916.79
645.061	6812.2
645.113	6870.87
645.164	6866.6
645.216	6850.22
645.268	6839.08
645.32	6886.92
645.371	6910.34
645.423	6870.07
645.475	6896.63
645.526	6892.3
645.578	6859.93
645.63	6883.23
645.681	6944.78
645.733	6922.33
645.785	6937.87
645.836	6872.42
645.888	6947.02
645.94	6941.01
645.991	6913.82
646.043	6917.68
646.095	6940.26
646.146	6994.19
646.198	6932.29
646.25	6993.07
646.301	6911.36
646.353	6943.64
646.405	6906.05
646.456	6919.27
646.508	6972.85
646.56	7012.21
646.611	6927.1
646.663	6963.55
646.715	7039.05
646.766	6967.06
646.818	6953.06
646.87	7036.15
646.921	6983.42
646.973	6958.2
647.025	7047.42
647.076	7020.36
647.128	7014.09
647.18	6989.38
647.231	7032.83
647.283	7058.44
647.335	7027.66
647.386	7103.11
647.438	7116.68
647.49	7047.4
647.541	7047.66
647.593	7121.81
647.645	7101.75
647.696	7171.56
647.748	7145.12
647.8	7079.17
647.851	7165.61
647.903	7184.21
647.955	7123.23
648.006	7129.25
648.058	7190.94
648.109	7106.21
648.161	7253.11
648.213	7224.16
648.264	7238.09
648.316	7187.04
648.368	7243.29
648.419	7180.46
648.471	7213.35
648.523	7247.12
648.574	7258.08
648.626	7230.02
648.678	7193.05
648.729	7232.18
648.781	7313.26
648.833	7259.06
648.884	7255.49
648.936	7256.21
648.987	7285.17
649.039	7361.27
649.091	7283.97
649.142	7273.31
649.194	7371.58
649.246	7327.5
649.297	7386.33
649.349	7389.75
649.401	7350.06
649.452	7378.11
649.504	7414.85
649.555	7438.17
649.607	7477.78
649.659	7441.04
649.71	7473.95
649.762	7394.23
649.814	7452.78
649.865	7468.99
649.917	7507.29
649.969	7498.41
650.02	7536.56
650.072	7557.63
650.123	7489.9
650.175	7555.62
650.227	7560.77
650.278	7579.01
650.33	7497.04
650.382	7563.83
650.433	7527.21
650.485	7547.36
650.536	7562.48
650.588	7576.49
650.64	7522.47
650.691	7597.61
650.743	7609.9
650.795	7635.2
650.846	7557.6
650.898	7533.75
650.949	7651.72
651.001	7689.13
651.053	7711.67
651.104	7724.5
651.156	7747.27
651.208	7791.35
651.259	7700.91
651.311	7744.59
651.362	7782.28
651.414	7716.03
651.466	7828.03
651.517	7737.4
651.569	7748.32
651.62	7769.31
651.672	7765.78
651.724	7734.95
651.775	7801.19
651.827	7838.3
651.878	7819.97
651.93	7873.02
651.982	7841.51
652.033	7860.6
652.085	7871.41
652.137	7881.96
652.188	7875.93
652.24	7902.04
652.291	7914.22
652.343	7902.48
652.395	7915.2
652.446	7875.47
652.498	7938.46
652.549	7912.53
652.601	7909.19
652.653	7966.49
652.704	8030.48
652.756	8015.95
652.772	7999.84
652.824	8037.73
652.876	7863.05
652.927	8116.58
652.979	8107.74
653.031	8026.91
653.083	8199.32
653.134	8153.24
653.186	8069.96
653.238	8087.22
653.29	7984.17
653.341	8059.4
653.393	8164.67
653.445	8175.36
653.497	8180.56
653.548	8177.31
653.6	8227.38
653.652	8045.82
653.704	8246.34
653.755	8047.77
653.807	8299.16
653.859	8220.67
653.91	8141.02
653.962	8238.94
654.014	8316.01
654.066	8276.94
654.117	8325.65
654.169	8272.18
654.221	8309.75
654.273	8320.59
654.324	8447.5
654.376	8321.12
654.428	8414.23
654.48	8339.62
654.531	8435.02
654.583	8476.44
654.635	8403.37
654.686	8496.65
654.738	8491.53
654.79	8453.54
654.842	8553.22
654.893	8581.68
654.945	8486.31
654.997	8543.45
655.049	8581.43
655.1	8515.82
655.152	8658
655.204	8650.51
655.255	8614.53
655.307	8695.65
655.359	8614.3
655.411	8737.2
655.462	8670.97
655.514	8715.18
655.566	8762.64
655.618	8739.18
655.669	8718.65
655.721	8803.73
655.773	8856.26
655.824	8787.27
655.876	8778
655.928	8868.53
655.98	8864.13
656.031	8782.29
656.083	8948.49
656.135	9006.01
656.186	9097.79
656.238	8917.98
656.29	8999.01
656.342	9012.32
656.393	9132.67
656.445	8953.08
656.497	9118.84
656.548	9116.44
656.6	9040.75
656.652	9065.4
656.704	9149.06
656.755	9133.03
656.807	9188.31
656.859	9167.15
656.91	9125.31
656.962	9183.23
657.014	9268.51
657.065	9293.39
657.117	9272.25
657.169	9297.88
657.221	9299.68
657.272	9380.45
657.324	9313.49
657.376	9317.02
657.427	9401.43
657.479	9352.72
657.531	9417.2
657.583	9390.8
657.634	9467.11
657.686	9440.57
657.738	9377.89
657.789	9475.71
657.841	9432.08
657.893	9580.6
657.944	9594.59
657.996	9527.34
658.048	9506.49
658.099	9535.7
658.151	9523.71
658.203	9641.04
658.255	9563.45
658.306	9513.25
658.358	9545.54
658.41	9649.6
658.461	9561.56
658.513	9581.11
658.565	9566.73
658.616	9625.35
658.668	9602
658.72	9669.35
658.771	9646.67
658.823	9651.34
658.875	9677.69
658.927	9689.98
658.978	9663.87
659.03	9638.86
659.082	9641.21
659.133	9754.63
659.185	9634.65
659.237	9733.31
659.288	9707.05
659.34	9787.63
659.392	9630.84
659.443	9722.29
659.495	9667.87
659.547	9763.84
659.598	9686.88
659.65	9674
659.702	9645.74
659.753	9813.72
659.805	9702.49
659.857	9810.63
659.909	9709.92
659.96	9789.59
660.012	9729.55
660.064	9722.27
660.115	9893.42
660.167	9725.19
660.219	9744.94
660.27	9686.77
660.322	9782.25
660.374	9875.88
660.425	9864.61
660.477	9812.8
660.529	9743.78
660.58	9773.97
660.632	9750.69
660.684	9752.48
660.735	9763.11
660.787	9761.7
660.839	9734.48
660.89	9652.38
660.942	9731.49
660.994	9770.89
661.045	9734.92
661.097	9725.12
661.149	9785.22
661.2	9671.21
661.252	9773.08
661.304	9776.02
661.355	9729.71
661.407	9834.15
661.459	9766.67
661.51	9727.91
661.562	9734.01
661.614	9827.12
661.665	9743.68
661.717	9735.98
661.768	9695.39
661.82	9765.74
661.872	9714.41
661.923	9650.45
661.975	9736.77
662.027	9683.36
662.078	9755.38
662.13	9731.21
662.182	9745.98
662.233	9764.97
662.285	9728.85
662.337	9731.38
662.388	9742.34
662.44	9715.17
662.492	9733.76
662.543	9722.71
662.595	9650.23
662.647	9745.07
662.698	9780.74
662.75	9771.73
662.802	9774.1
662.853	9789.71
662.905	9779.17
662.956	9688.72
663.008	9777.47
663.06	9755.19
663.111	9784.58
663.163	9732.39
663.215	9720.4
663.266	9678.49
663.318	9762.18
663.37	9798.68
663.421	9724.1
663.473	9740.89
663.525	9797.5
663.576	9769.83
663.628	9814.51
663.679	9754.81
663.731	9812.43
663.783	9787.7
663.834	9705.11
663.886	9721.16
663.938	9751.74
663.989	9798.26
664.041	9815.28
664.093	9794.38
664.144	9807.11
664.196	9765.58
664.247	9790.91
664.299	9832.2
664.351	9744.31
664.402	9780.89
664.454	9723.59
664.506	9788.17
664.557	9743.22
664.609	9770.38
664.66	9778.62
664.712	9748.95
664.764	9764.41
664.815	9723.97
664.867	9803.32
664.919	9800.07
664.97	9788.47
665.022	9731.47
665.073	9715.27
665.125	9751.71
665.177	9692.49
665.228	9706.94
665.28	9719.02
665.332	9759.56
665.383	9749.3
665.435	9695.8
665.486	9699.91
665.538	9690.37
665.59	9751.27
665.641	9744.63
665.693	9707.64
665.745	9705.78
665.796	9689.96
665.848	9778.46
665.899	9684.6
665.951	9702.34
666.003	9769.2
666.054	9698.79
666.106	9744.42
666.157	9672.04
666.209	9715.74
666.261	9726.57
666.312	9711.17
666.364	9722.5
666.415	9606.81
666.467	9792.42
666.519	9763.39
666.57	9775.27
666.622	9692.31
666.673	9635.4
666.725	9731.28
666.777	9696.95
666.828	9656.89
666.88	9684.97
666.931	9742.93
666.983	9718.6
667.035	9663.27
667.086	9661.23
667.138	9736.25
667.189	9692.35
667.241	9764.02
667.293	9645.2
667.344	9744.29
667.396	9768.89
667.447	9678.32
667.499	9720.97
667.551	9729.37
667.602	9671.21
667.654	9724.28
667.705	9733.52
667.757	9666.84
667.809	9727.07
667.86	9737.9
667.912	9705.38
667.963	9714.8
668.015	9710.79
668.067	9724.69
668.118	9730.68
668.17	9728.57
668.221	9801.36
668.273	9658.01
668.325	9728.2
668.376	9691.78
668.428	9759.02
668.479	9665.94
668.531	9692.86
668.582	9731.53
668.634	9656.86
668.686	9677.62
668.737	9694.75
668.789	9678.61
668.84	9704.86
668.892	9646.78
668.944	9676.6
668.995	9650.61
669.047	9662.15
669.098	9768.89
669.15	9688.38
669.201	9716.25
669.253	9764.7
669.305	9601.6
669.356	9690.49
669.408	9656.4
669.459	9717.96
669.511	9744.49
669.562	9631.66
669.614	9749.74
669.666	9768.69
669.717	9730.21
669.769	9731.63
669.82	9728.2
669.872	9649.3
669.923	9716.94
669.975	9612.49
670.027	9694.87
670.078	9723.76
670.13	9702.04
670.181	9688.68
670.233	9657.82
670.284	9632.03
670.336	9674.21
670.388	9695.72
670.439	9697.43
670.491	9775.33
670.542	9688.76
670.594	9720.33
670.645	9640.01
670.697	9684.87
670.748	9721.47
670.8	9743.43
670.852	9679.62
670.903	9705.32
670.955	9618.24
671.006	9690.33
671.058	9688.65
671.109	9683.21
671.161	9673.31
671.212	9704.1
671.264	9747.66
671.316	9745.26
671.367	9695.3
671.419	9677.84
671.47	9687.93
671.522	9710.51
671.573	9767.82
671.625	9725.11
671.676	9699.51
671.728	9772.84
671.78	9720.07
671.831	9674.75
671.883	9776.19
671.934	9737.86
671.986	9740.79
672.037	9770.59
672.089	9695.76
672.14	9781.07
672.192	9740.79
672.243	9711.54
672.295	9777.05
672.347	9765.21
672.398	9804.66
672.45	9794.65
672.501	9781.25
672.553	9805.68
672.604	9800.8
672.656	9810.32
672.707	9809.86
672.759	9810.9
672.81	9804.81
672.862	9781.17
672.913	9835.71
672.965	9811.53
673.017	9787.2
673.068	9876.19
673.12	9891
673.171	9932.21
673.223	9949.54
673.274	9906.18
673.326	9904.11
673.377	9891.2
673.429	9856.96
673.48	9948.88
673.532	9914.37
673.583	9930.21
673.635	9895.97
673.686	9997.33
673.738	10050
673.789	10040.3
673.841	10072.4
673.893	10031.8
673.944	10013.8
673.996	10006.7
674.047	10049.5
674.099	10076.1
674.15	10041.7
674.202	10013
674.253	10045.8
674.305	10054.7
674.356	10143.2
674.408	10093.7
674.459	10092.1
674.511	10109.1
674.562	10092.4
674.614	10130.4
674.665	10215
674.717	10213.5
674.768	10163.4
674.82	10234.3
674.871	10176.9
674.923	10184.8
674.974	10186.4
675.026	10115.2
675.077	10176.6
675.129	10223.9
675.18	10196.9
675.232	10124.9
675.284	10263
675.335	10281.6
675.387	10208.3
675.438	10283.5
675.49	10303.5
675.541	10260.7
675.593	10199.2
675.644	10263.4
675.696	10339.3
675.747	10320.5
675.799	10276.5
675.85	10324.6
675.902	10285.9
675.953	10302.3
676.005	10342.9
676.056	10334.5
676.108	10325.8
676.159	10277.7
676.211	10321.9
676.262	10298.6
676.314	10355.9
676.365	10378.9
676.417	10371.7
676.468	10427.9
676.52	10405
676.571	10427.3
676.623	10382.4
676.674	10352.6
676.726	10322.1
676.777	10312.1
676.828	10319.7
676.88	10312.9
676.932	10338.9
676.983	10368.4
677.034	10388.6
677.086	10419.8
677.137	10399.2
677.189	10360.6
677.24	10391.3
677.292	10424.1
677.343	10400.9
677.395	10395.5
677.446	10398.9
677.498	10361
677.549	10356.5
677.601	10382.7
677.652	10366
677.704	10338.7
677.755	10354.1
677.807	10408.2
677.858	10394.8
677.91	10377.7
677.961	10351.2
678.013	10285.6
678.064	10301.4
678.116	10351.4
678.167	10359
678.219	10414.4
678.27	10393.7
678.322	10314.7
678.373	10339.2
678.424	10347.6
678.476	10394.2
678.527	10417.9
678.579	10391.9
678.63	10439.4
678.682	10416.4
678.733	10369.5
678.785	10366.4
678.836	10377.5
678.888	10374.6
678.939	10363.7
678.991	10329.2
679.042	10297.1
679.094	10344.1
679.122	10355.7
679.173	10383.7
679.225	10397.5
679.277	10380.3
679.328	10419.7
679.38	10290.7
679.432	10402.7
679.483	10326
679.535	10363.3
679.586	10355.6
679.638	10426.8
679.69	10446.3
679.741	10381.4
679.793	10338.2
679.844	10415.4
679.896	10481.4
679.948	10395.4
679.999	10376.4
680.051	10497.3
680.103	10380.3
680.154	10383.6
680.206	10370.7
680.257	10496
680.309	10498.7
680.361	10406.7
680.412	10390.3
680.464	10380.9
680.515	10390.6
680.567	10528.8
680.619	10494.3
680.67	10507.2
680.722	10400.4
680.773	10519.5
680.825	10652.5
680.877	10474.6
680.928	10471.6
680.98	10635.9
681.031	10570.9
681.083	10432.4
681.135	10648.8
681.186	10582.1
681.238	10479
681.289	10615.9
681.341	10602.9
681.393	10562.7
681.444	10560.7
681.496	10723.3
681.547	10607.5
681.599	10528.1
681.651	10600
681.702	10677.3
681.754	10674.7
681.805	10616.5
681.857	10589.8
681.909	10635
681.96	10636.4
682.012	10625.4
682.063	10608.9
682.115	10686.1
682.166	10653.5
682.218	10726
682.27	10684.5
682.321	10563.4
682.373	10669.4
682.424	10577.3
682.476	10685
682.528	10712.6
682.579	10692.5
682.631	10776
682.682	10747.6
682.734	10639.1
682.785	10705.1
682.837	10618.7
682.889	10725.8
682.94	10732.4
682.992	10716.4
683.043	10671.7
683.095	10785.1
683.146	10781
683.198	10666.6
683.25	10750
683.301	10696.8
683.353	10640.1
683.404	10729.3
683.456	10795.4
683.508	10671.4
683.559	10711.9
683.611	10696.9
683.662	10607
683.714	10621.1
683.765	10758.2
683.817	10697.7
683.869	10647.5
683.92	10775.8
683.972	10672.2
684.023	10658.2
684.075	10689.6
684.126	10711
684.178	10740.3
684.229	10659.3
684.281	10677.4
684.333	10673.2
684.384	10682.8
684.436	10650.3
684.487	10697.8
684.539	10626.6
684.59	10662.1
684.642	10646.8
684.694	10702.2
684.745	10604.8
684.797	10607.1
684.848	10609.3
684.9	10661.9
684.951	10684.7
685.003	10569.5
685.055	10700.1
685.106	10605.7
685.158	10567.4
685.209	10657.8
685.261	10627.5
685.312	10658.1
685.364	10561.4
685.415	10542.3
685.467	10539
685.518	10511.6
685.57	10591.4
685.622	10593.5
685.673	10534
685.725	10497.5
685.776	10502.4
685.828	10528.2
685.879	10466.2
685.931	10493.3
685.982	10579.3
686.034	10446.6
686.086	10569.5
686.137	10509.1
686.189	10500.4
686.24	10501.3
686.292	10600.8
686.343	10497
686.395	10469.6
686.446	10442.7
686.498	10428.7
686.549	10575.9
686.601	10384.1
686.652	10518.8
686.704	10438.6
686.756	10472.1
686.807	10456.4
686.859	10391.4
686.91	10331.7
686.962	10431
687.013	10371.1
687.065	10426.3
687.116	10403.9
687.168	10307.6
687.219	10450.4
687.271	10418.3
687.322	10395
687.374	10434.3
687.426	10346.5
687.477	10397.9
687.529	10425.6
687.58	10384.7
687.632	10364.8
687.683	10425.3
687.735	10394.7
687.786	10451.6
687.838	10441.9
687.889	10456.2
687.941	10288.7
687.992	10314.8
688.044	10375.2
688.095	10384.5
688.147	10414.1
688.198	10424.7
688.25	10380.2
688.302	10429.1
688.353	10422
688.405	10391.8
688.456	10383.4
688.508	10354.4
688.559	10414.6
688.611	10444.5
688.662	10445.5
688.714	10395.9
688.765	10393.1
688.817	10427.3
688.868	10349.6
688.92	10384.9
688.971	10329.9
689.023	10403.3
689.074	10340.9
689.126	10381.1
689.177	10359.7
689.229	10397.4
689.28	10407
689.332	10335.7
689.383	10341.4
689.435	10315.9
689.486	10424.1
689.538	10325.4
689.589	10376
689.641	10259.9
689.692	10312.1
689.744	10292.2
689.795	10280.9
689.847	10388.9
689.898	10313.4
689.95	10340.2
690.001	10341.7
690.053	10251.4
690.104	10296.7
690.156	10243.6
690.207	10313.6
690.259	10292
690.31	10265.6
690.362	10325.4
690.413	10293.2
690.465	10259.5
690.516	10272.3
690.568	10277.6
690.619	10252.7
690.671	10319.9
690.722	10239
690.774	10294.9
690.825	10176.1
690.877	10278
690.928	10186.5
690.98	10249.4
691.031	10277.6
691.083	10208.6
691.134	10185.6
691.186	10132.5
691.237	10208
691.289	10228.5
691.34	10192.1
691.392	10206.9
691.443	10190.7
691.495	10121
691.546	10179.2
691.598	10177.6
691.649	10122.4
691.701	10166.1
691.752	10128.2
691.804	10171.2
691.855	10109.6
691.907	10149.3
691.958	10148.4
692.01	10073.5
692.061	10107.3
692.113	10105.1
692.164	10099.9
692.216	10160.2
692.267	10084.2
692.319	10105.3
692.37	10062.2
692.421	9979.8
692.473	9998.84
692.524	10082.8
692.576	10040.2
692.627	10060.6
692.679	10070.7
692.73	10033.6
692.782	10077.5
692.833	10044.2
692.885	10062.1
692.936	10012
692.988	10047
693.039	9955.75
693.091	9956.4
693.142	10013.9
693.194	9944.97
693.245	10032.5
693.297	9940.17
693.348	9981.39
693.399	9999.34
693.451	9981.78
693.502	9987.93
693.554	9913.96
693.605	9948.49
693.657	9895.24
693.708	9960.01
693.76	9919.88
693.811	9884.6
693.863	9861.88
693.914	9916.73
693.966	9892.93
694.017	9918.23
694.068	9949.79
694.12	9903.46
694.171	9824.02
694.223	9853.16
694.274	9925.23
694.326	9882.41
694.377	9881.57
694.429	9908.57
694.48	9908.44
694.532	9871.64
694.583	9853.87
694.634	9866.99
694.686	9830.87
694.737	9817.37
694.789	9767.19
694.84	9839.97
694.892	9845.29
694.943	9929.32
694.995	9787.7
695.046	9807.87
695.097	9817.92
695.149	9822.26
695.2	9787.04
695.252	9801.53
695.303	9743.54
695.355	9833.56
695.406	9799.17
695.458	9794.72
695.509	9797.63
695.56	9808.13
695.612	9752.08
695.663	9874
695.715	9801.86
695.766	9801.24
695.818	9829.89
695.869	9718.24
695.921	9748.88
695.972	9750.56
696.023	9698.65
696.075	9715.11
696.126	9752.87
696.178	9709.21
696.229	9721.22
696.281	9749.04
696.332	9695.99
696.383	9724.32
696.435	9784.67
696.486	9783.25
696.538	9701.03
696.589	9590.42
696.641	9666.31
696.692	9662.86
696.744	9657.01
696.795	9647.45
696.846	9679.69
696.898	9657.26
696.949	9609.44
697.001	9654.56
697.052	9649.82
697.104	9652.07
697.155	9659.25
697.206	9558.98
697.258	9599.5
697.309	9604.54
697.361	9577.68
697.412	9586.9
697.463	9582.79
697.515	9579.42
697.566	9584.53
697.618	9572.66
697.669	9474.23
697.721	9495.29
697.772	9556.1
697.823	9544.62
697.875	9529.47
697.926	9511.04
697.978	9510.25
698.029	9506.69
698.08	9449.13
698.132	9474.15
698.183	9484.61
698.235	9435.51
698.286	9412.66
698.338	9391.05
698.389	9441.51
698.44	9421.33
698.492	9381.12
698.543	9424.67
698.595	9386.29
698.646	9415.02
698.697	9415.61
698.749	9379.72
698.8	9401.97
698.852	9352.5
698.903	9357.23
698.954	9383.04
699.006	9365.28
699.057	9346.85
699.109	9297.38
699.16	9301.25
699.211	9315
699.263	9176.61
699.314	9233.37
699.366	9293.33
699.417	9246.73
699.468	9274.13
699.52	9319.5
699.571	9284.09
699.623	9296.14
699.674	9243.61
699.725	9171.04
699.777	9229.14
699.828	9269.47
699.88	9237.14
699.931	9265.12
699.982	9240.08
700.034	9256.7
700.085	9250.34
700.137	9223.31
700.188	9235.45
700.239	9262.66
700.291	9253.74
700.342	9263.78
700.393	9201.53
700.445	9163.53
700.496	9144.99
700.548	9151.1
700.599	9152.66
700.65	9163.96
700.702	9132.73
700.753	9148.57
700.805	9084.71
700.856	9108.33
700.907	9175.83
700.959	9229.66
701.01	9186.91
701.061	9185.7
701.113	9215.08
701.164	9255.57
701.216	9227.57
701.267	9187.79
701.318	9207.21
701.37	9107.13
701.421	9146.19
701.472	9187.01
701.524	9195.51
701.575	9220.08
701.627	9225.63
701.678	9217.6
701.729	9211.42
701.781	9171.63
701.832	9184.92
701.883	9162.48
701.935	9193.47
701.986	9194.67
702.038	9193.89
702.089	9148.05
702.14	9181.84
702.192	9219.77
702.243	9227.32
702.294	9194.01
702.346	9124.33
702.397	9158.58
702.448	9202.78
702.5	9180.08
702.551	9214.09
702.603	9264.48
702.654	9196.95
702.705	9156.69
702.757	9169.66
702.808	9134.04
702.859	9131.59
702.911	9198.74
702.962	9235.8
703.013	9237.4
703.065	9218.76
703.116	9216.13
703.167	9220.52
703.219	9193.27
703.27	9170.25
703.322	9164.27
703.373	9160.47
703.424	9159.54
703.476	9200.7
703.527	9201.03
703.578	9160.95
703.63	9139.78
703.681	9170.02
703.732	9093.18
703.784	9031.7
703.835	9102.18
703.886	9182.38
703.938	9164.39
703.989	9068.03
704.04	9101.4
704.092	9147.22
704.143	9118.5
704.194	9104.26
704.246	9050.62
704.297	9085.2
704.348	9131.9
704.4	9095.29
704.451	9119.07
704.503	9185.4
704.554	9140.56
704.605	9064.47
704.656	9016.12
704.708	9024.55
704.759	9038.94
704.81	8998.22
704.862	8975.18
704.913	8994.17
704.964	9014.58
705.016	9039.88
705.067	9016.84
705.119	9006.92
705.17	9049.16
705.221	9010.26
705.273	8933.1
705.324	8898.63
705.375	8909.39
705.408	8876
705.459	8900
705.511	8968.01
705.562	8856.44
705.614	8890.18
705.665	8947.82
705.717	8868.92
705.768	8941.77
705.82	8870.1
705.871	8859.26
705.923	8879.11
705.974	8788.58
706.026	8831.95
706.077	8730.95
706.129	8821.68
706.18	8849.06
706.232	8852.95
706.283	8805.35
706.335	8838.77
706.386	8870.45
706.438	8798.35
706.489	8831.22
706.541	8778.22
706.592	8673.6
706.643	8835.39
706.695	8677.73
706.746	8676.16
706.798	8715.28
706.849	8695.15
706.901	8730.04
706.952	8737.85
707.004	8622.55
707.055	8719.1
707.107	8758.61
707.158	8603.42
707.21	8659.82
707.261	8658.18
707.313	8691.55
707.364	8613.36
707.416	8704.77
707.467	8679.25
707.518	8599.49
707.57	8607.1
707.621	8705.93
707.673	8566.22
707.724	8574.53
707.776	8608.21
707.827	8527.86
707.879	8584.48
707.93	8560.34
707.982	8517.74
708.033	8474.54
708.084	8599.36
708.136	8515.7
708.187	8547.15
708.239	8576.67
708.29	8498.19
708.342	8525.94
708.393	8594.62
708.445	8518.25
708.496	8516.53
708.548	8576.42
708.599	8605.79
708.651	8499.84
708.702	8491.77
708.753	8492.72
708.805	8598.55
708.856	8485.24
708.908	8546.93
708.959	8446.12
709.011	8445.19
709.062	8536.51
709.114	8542.32
709.165	8452.41
709.216	8478.11
709.268	8437.85
709.319	8553.41
709.371	8416.07
709.422	8480.72
709.474	8457.3
709.525	8518.61
709.577	8438.21
709.628	8369.56
709.679	8436.11
709.731	8434.12
709.782	8469.43
709.834	8429.46
709.885	8338.2
709.937	8361.73
709.988	8393.78
710.039	8433.65
710.091	8406.84
710.142	8394.39
710.194	8443.78
710.245	8423.34
710.297	8359.72
710.348	8353.57
710.4	8387.29
710.451	8340.14
710.502	8319.74
710.554	8372.83
710.605	8341.11
710.657	8409.74
710.708	8375.36
710.76	8288.14
710.811	8315.39
710.862	8350.58
710.914	8352.95
710.965	8364.03
711.017	8283.16
711.068	8305.54
711.12	8326.77
711.171	8292.86
711.222	8228.37
711.274	8291.05
711.325	8296.97
711.377	8255.78
711.428	8260.11
711.479	8218.73
711.531	8268.12
711.582	8227.85
711.634	8127.54
711.685	8247.68
711.737	8208.73
711.788	8221.13
711.839	8206.94
711.891	8149.7
711.942	8189.18
711.994	8191.53
712.045	8181.71
712.096	8143.75
712.148	8164.48
712.199	8144.77
712.251	8136.94
712.302	8150.71
712.354	8123.5
712.405	8086.12
712.456	8142.44
712.508	8074.19
712.559	8156.22
712.611	8130.79
712.662	8083.12
712.713	8100.85
712.765	8085.53
712.816	8046.38
712.868	8069.01
712.919	7968.8
712.97	8012.01
713.022	8007.93
713.073	8026.74
713.125	7992.95
713.176	7925.03
713.227	7948.4
713.279	7964.83
713.33	8028.6
713.382	7937.12
713.433	7901.12
713.484	7973.77
713.536	7927.22
713.587	7860.18
713.639	7869.22
713.69	7798.99
713.741	7799.2
713.793	7907.67
713.844	7832.4
713.896	7902.27
713.947	7856.7
713.998	7858.63
714.05	7866.47
714.101	7814.3
714.153	7818.93
714.204	7810.14
714.255	7740.33
714.307	7772.44
714.358	7726.21
714.41	7708.79
714.461	7730.52
714.512	7770.85
714.564	7745.33
714.615	7731.69
714.666	7755.02
714.718	7711.93
714.769	7732.04
714.821	7638.16
714.872	7671.75
714.923	7698.3
714.975	7689.94
715.026	7634.04
715.078	7651.01
715.129	7647.86
715.18	7655.19
715.232	7611.17
715.283	7572.05
715.334	7627.48
715.386	7633.9
715.437	7615.86
715.489	7605.36
715.54	7630.62
715.591	7569.14
715.643	7607.15
715.694	7510.39
715.745	7555.75
715.797	7561.6
715.848	7575.57
715.9	7562.04
715.951	7508.76
716.002	7547.61
716.054	7543.76
716.105	7567.96
716.156	7531.49
716.208	7525.55
716.259	7479.45
716.31	7486.37
716.362	7485.35
716.413	7472.71
716.465	7491.51
716.516	7580.4
716.567	7434.89
716.619	7495.19
716.67	7531.95
716.721	7452.83
716.773	7507.39
716.824	7452.09
716.875	7489.06
716.927	7501.5
716.978	7374.77
717.03	7473.8
717.081	7484.29
717.132	7456.1
717.184	7430.66
717.235	7424.27
717.286	7389.66
717.338	7419.54
717.389	7388.51
717.44	7429.76
717.492	7393.39
717.543	7358.32
717.594	7380.27
717.646	7381.22
717.697	7343.99
717.749	7361.59
717.8	7339.91
717.851	7403.52
717.903	7366.05
717.954	7378.86
718.005	7344.58
718.057	7348.54
718.108	7295.14
718.159	7358.8
718.211	7261.5
718.262	7331.35
718.313	7311.48
718.365	7342.77
718.416	7320.37
718.467	7218.55
718.519	7327.81
718.57	7324.74
718.621	7260.07
718.673	7280.27
718.724	7249.43
718.775	7240.42
718.827	7234.44
718.878	7242.32
718.93	7250.11
718.981	7236.9
719.032	7195.96
719.083	7160.38
719.135	7217.51
719.186	7170.43
719.237	7246.07
719.289	7237.59
719.34	7232
719.391	7193.74
719.443	7180.65
719.494	7171.68
719.545	7147.6
719.597	7149.03
719.648	7170.73
719.699	7117.64
719.751	7153.65
719.802	7145.93
719.853	7063.62
719.905	7091.04
719.956	7071.66
720.007	7106.5
720.059	7127.75
720.11	7120.77
720.161	7079.18
720.213	7063.53
720.264	7047.79
720.315	7037.33
720.367	7093.9
720.418	7067.71
720.469	7030.39
720.521	7043.81
720.572	7018.4
720.623	6973.26
720.675	6971.69
720.726	6960.16
720.777	6989.37
720.829	6960.75
720.88	6936.75
720.931	6929.29
720.982	6947.08
721.034	6928.03
721.085	6964.03
721.136	6906.48
721.188	6953.52
721.239	6936.74
721.29	6909.35
721.342	6877.33
721.393	6905.3
721.444	6912.57
721.496	6876.96
721.547	6818.5
721.598	6827.92
721.65	6860.19
721.701	6881.63
721.752	6825.39
721.803	6849.94
721.855	6813.25
721.906	6811.31
721.957	6871.98
722.009	6774.13
722.06	6766.18
722.111	6758.57
722.163	6797.88
722.214	6812.79
722.265	6789.56
722.316	6752.11
722.368	6762.99
722.419	6760.47
722.47	6767.6
722.522	6763.91
722.573	6750.75
722.624	6744.47
722.676	6738.61
722.727	6707.72
722.778	6671.82
722.829	6663.36
722.881	6654.2
722.932	6695.55
722.983	6666.88
723.035	6638.34
723.086	6612.51
723.137	6662.76
723.188	6660.8
723.24	6650.28
723.291	6660.05
723.342	6648.29
723.394	6645.18
723.445	6662.5
723.496	6646.83
723.547	6639.33
723.599	6616.23
723.65	6602.53
723.701	6586
723.753	6595.4
723.804	6550.65
723.855	6549.79
723.906	6562.38
723.958	6595.55
724.009	6607.91
724.06	6582.27
724.112	6564.02
724.163	6533.79
724.214	6602
724.265	6606.81
724.317	6535.85
724.368	6481.6
724.419	6481.21
724.47	6479.31
724.522	6480.34
724.573	6523.65
724.624	6504.25
724.676	6492.75
724.727	6484.78
724.778	6463.88
724.829	6454.23
724.881	6461.59
724.932	6467.62
724.983	6446.92
725.034	6500.1
725.086	6494.11
725.137	6414.77
725.188	6446.88
725.24	6407.95
725.291	6404.18
725.342	6460.74
725.393	6464.32
725.445	6426.38
725.496	6381.47
725.547	6427.73
725.598	6422.6
725.65	6421.51
725.701	6444.4
725.752	6387.83
725.803	6381.93
725.855	6394.45
725.906	6420.04
725.957	6351.37
726.008	6349.98
726.06	6345.79
726.111	6369.38
726.162	6318.02
726.213	6304.7
726.265	6325.37
726.316	6283.65
726.367	6281.35
726.418	6265.33
726.47	6319.63
726.521	6362.54
726.572	6301.08
726.623	6284.25
726.675	6325.51
726.726	6353.36
726.777	6270.81
726.828	6270.75
726.88	6255.6
726.931	6240.89
726.982	6278.96
727.033	6307.56
727.085	6262.59
727.136	6190.63
727.187	6253.28
727.238	6208.92
727.29	6160.67
727.341	6180.39
727.392	6249.75
727.443	6204.43
727.495	6193.47
727.546	6172.11
727.597	6163.69
727.648	6145.67
727.7	6205.19
727.751	6193.77
727.802	6188.56
727.853	6153.7
727.904	6184.32
727.956	6102.31
728.007	6091.08
728.058	6059.07
728.109	6132
728.161	6082.93
728.212	6069.47
728.263	6045.57
728.314	6054.02
728.366	6064.51
728.417	6025.3
728.468	6045.63
728.519	6048.64
728.57	6033.05
728.622	6025.36
728.673	6000.46
728.724	6013.42
728.775	5970.82
728.827	5992.79
728.878	5975.43
728.929	5967.58
728.98	5998.29
729.031	5952.02
729.083	5911.08
729.134	5933.68
729.185	5889.37
729.236	5929.29
729.288	5937.89
729.339	5922.36
729.39	6000.36
729.441	5915.41
729.492	5856.45
729.544	5796.94
729.595	5862.25
729.646	5922.24
729.697	5881.95
729.748	5830.8
729.8	5830.59
729.851	5863.03
729.902	5820.91
729.953	5744.34
730.004	5766.19
730.056	5793.45
730.107	5768.01
730.158	5782.59
730.209	5791.07
730.26	5746.08
730.312	5705.7
730.363	5728.42
730.414	5716.4
730.465	5750.57
730.517	5744.22
730.568	5677.7
730.619	5785.16
730.67	5687.15
730.721	5680.74
730.773	5693.11
730.824	5658.6
730.875	5612.54
730.926	5646.06
730.977	5587.41
731.029	5696.06
731.08	5675.12
731.131	5642.49
731.182	5621.16
731.233	5580.67
731.284	5591.31
731.336	5645.79
731.387	5571.57
731.438	5602.18
731.489	5585.93
731.54	5593.61
731.592	5582.96
731.643	5536.48
731.643	5536
731.694	5522
731.746	5452
731.797	5514.2
731.848	5518.44
731.9	5578.57
731.951	5535.02
732.002	5559.05
732.054	5503.98
732.105	5512.5
732.156	5476.45
732.208	5513.65
732.259	5498.04
732.311	5575.9
732.362	5586.77
732.413	5456.09
732.465	5467.52
732.516	5496.65
732.567	5433.79
732.619	5538.88
732.67	5472.67
732.721	5503.95
732.773	5495.43
732.824	5477.64
732.875	5468.78
732.927	5510.11
732.978	5521.55
733.029	5529.91
733.081	5506.17
733.132	5507.75
733.183	5465.87
733.235	5474.45
733.286	5460.24
733.337	5512.3
733.389	5412.37
733.44	5502.45
733.491	5481.59
733.543	5426.95
733.594	5434.11
733.645	5403.61
733.697	5500.03
733.748	5464.21
733.799	5434.44
733.851	5487.66
733.902	5441.83
733.953	5437.99
734.005	5440.64
734.056	5410.53
734.107	5472.35
734.158	5400.38
734.21	5445.82
734.261	5443.43
734.312	5383.64
734.364	5388.45
734.415	5350.71
734.466	5397.87
734.518	5455.3
734.569	5433.88
734.62	5400
734.672	5445.27
734.723	5446.18
734.774	5451.04
734.826	5381.13
734.877	5373.93
734.928	5384.86
734.98	5374.36
735.031	5408.22
735.082	5413.37
735.133	5427.73
735.185	5436.35
735.236	5432.45
735.287	5418.58
735.339	5478.55
735.39	5434.76
735.441	5461.7
735.493	5426.19
735.544	5462.1
735.595	5443.02
735.647	5414.33
735.698	5502.83
735.749	5459.76
735.8	5440.19
735.852	5454.33
735.903	5434.02
735.954	5457.11
736.006	5452.19
736.057	5473.18
736.108	5528.47
736.16	5484.96
736.211	5471.54
736.262	5461.37
736.313	5484.12
736.365	5536.15
736.416	5561.91
736.467	5578.84
736.519	5470.33
736.57	5549.13
736.621	5498.82
736.673	5540.19
736.724	5518.44
736.775	5519.6
736.826	5613.26
736.878	5533.07
736.929	5631.51
736.98	5599.03
737.032	5536.92
737.083	5562.71
737.134	5560.77
737.185	5594.56
737.237	5624.51
737.288	5622.41
737.339	5615.26
737.391	5686.14
737.442	5604.35
737.493	5578.36
737.544	5672.67
737.596	5610
737.647	5626.62
737.698	5638.48
737.75	5619.24
737.801	5654.88
737.852	5657.22
737.903	5658.97
737.955	5621.74
738.006	5704.63
738.057	5641.57
738.109	5693.54
738.16	5658.37
738.211	5619.7
738.262	5597.31
738.314	5733.48
738.365	5630.41
738.416	5649.34
738.468	5579.35
738.519	5635.3
738.57	5643.42
738.621	5626.04
738.673	5653.33
738.724	5645.41
738.775	5567.46
738.826	5666.26
738.878	5554.29
738.929	5590.94
738.98	5632.86
739.031	5549.89
739.083	5554.04
739.134	5554.22
739.185	5602.58
739.237	5599.81
739.288	5548.39
739.339	5516.34
739.39	5412.59
739.442	5469.35
739.493	5479.2
739.544	5454.1
739.595	5450.62
739.647	5409.87
739.698	5404.77
739.749	5419.09
739.8	5340.94
739.852	5395.25
739.903	5349.86
739.954	5377.83
740.005	5327.24
740.057	5382.39
740.108	5354.72
740.159	5354.94
740.211	5286.88
740.262	5330.24
740.313	5228.83
740.364	5265.37
740.416	5246.05
740.467	5259.55
740.518	5233.9
740.569	5209.47
740.621	5191.8
740.672	5223.76
740.723	5218
740.774	5176.77
740.826	5239.82
740.877	5176.8
740.928	5187.26
740.979	5163.31
741.031	5165.31
741.082	5139.27
741.133	5146.19
741.184	5101.19
741.235	5112.47
741.287	5123.44
741.338	5120.61
741.389	5094.66
741.44	5043.58
741.492	5012.44
741.543	5039.33
741.594	5059.83
741.645	5059.48
741.697	5013.21
741.748	5042.78
741.799	4991.47
741.85	5032.29
741.902	4988.11
741.953	5007.9
742.004	4950.6
742.055	4949.61
742.107	4983.05
742.158	4970.83
742.209	4958.02
742.26	4961.02
742.311	4924.48
742.363	4897.83
742.414	4914.34
742.465	4898.28
742.516	4924.02
742.568	4874.12
742.619	4886.21
742.67	4886.21
742.721	4891.7
742.773	4919.02
742.824	4873.85
742.875	4841.99
742.926	4894.2
742.977	4889.1
743.029	4846.83
743.08	4852.17
743.131	4862.97
743.182	4810.04
743.234	4806.35
743.285	4810.42
743.336	4792.26
743.387	4805.6
743.438	4807.11
743.49	4785.01
743.541	4769.8
743.592	4761.39
743.643	4784.95
743.694	4768.3
743.746	4756.36
743.797	4777.89
743.848	4756.79
743.899	4757.34
743.951	4730.35
744.002	4706.02
744.053	4676.86
744.104	4718.83
744.155	4722.01
744.207	4745.97
744.258	4688.03
744.309	4669.36
744.36	4648.32
744.411	4661.58
744.463	4680.8
744.514	4665.33
744.565	4635.32
744.616	4592.83
744.667	4652.08
744.719	4638.86
744.77	4656.95
744.821	4626.07
744.872	4661.49
744.923	4627.95
744.975	4614.01
745.026	4629.03
745.077	4586.18
745.128	4586.06
745.179	4574.92
745.231	4558.8
745.282	4577.04
745.333	4592.68
745.384	4624.47
745.435	4614.78
745.487	4536.95
745.538	4578.39
745.589	4557.19
745.64	4537.41
745.691	4559.5
745.743	4558.78
745.794	4587.44
745.845	4543.2
745.896	4533.82
745.947	4529.61
745.998	4534.05
746.05	4501.6
746.101	4505.86
746.152	4516.05
746.203	4548.29
746.254	4522.91
746.306	4514.64
746.357	4503.71
746.408	4516.8
746.459	4492.52
746.51	4522.45
746.562	4521.39
746.613	4455.63
746.664	4501.03
746.715	4476.27
746.766	4480.31
746.817	4452.06
746.869	4489.64
746.92	4475.81
746.971	4464.95
747.022	4469.51
747.073	4443.79
747.125	4455.86
747.176	4456.49
747.227	4411.33
747.278	4446.82
747.329	4438.77
747.38	4432.45
747.432	4404.12
747.483	4398.77
747.534	4413.85
747.585	4403.25
747.636	4407.52
747.687	4412.9
747.739	4371.05
747.79	4362.83
747.841	4339.71
747.892	4385.54
747.943	4406.48
747.994	4392.25
748.046	4378.65
748.097	4384.87
748.148	4424.72
748.199	4365.27
748.25	4355.88
748.301	4380.97
748.352	4377.07
748.404	4366.83
748.455	4323.46
748.506	4323.21
748.557	4297.36
748.608	4331.05
748.659	4301.63
748.711	4321.35
748.762	4338.3
748.813	4309.93
748.864	4342.58
748.915	4323.85
748.966	4288.46
749.018	4298.21
749.069	4294.92
749.12	4309.38
749.171	4288.25
749.222	4276.78
749.273	4317.27
749.324	4292.44
749.376	4259.11
749.427	4239.55
749.478	4269.75
749.529	4255.16
749.58	4238.21
749.631	4243.6
749.682	4277.78
749.734	4272.52
749.785	4250.07
749.836	4260.64
749.887	4248.73
749.938	4269.71
749.989	4237.16
750.04	4224.16
750.092	4253.03
750.143	4225.11
750.194	4231.2
750.245	4210.99
750.296	4192.25
750.347	4235.11
750.398	4180.42
750.45	4213.68
750.501	4219.97
750.552	4162.77
750.603	4189.09
750.654	4194.09
750.705	4189.06
750.756	4202.42
750.807	4170.71
750.859	4160.64
750.91	4170.21
750.961	4143.41
751.012	4131.83
751.063	4137.79
751.114	4110.51
751.165	4165.23
751.216	4151.54
751.268	4115.89
751.319	4161.45
751.37	4144.3
751.421	4118.46
751.472	4130.04
751.523	4123.31
751.574	4176.75
751.625	4112.89
751.677	4105.3
751.728	4088.74
751.779	4117.92
751.83	4082.13
751.881	4065.29
751.932	4103.27
751.983	4056.46
752.034	4047.57
752.086	4095.64
752.137	4075.04
752.188	4060.34
752.239	4008.31
752.29	4012.08
752.341	4014.7
752.392	4007.48
752.443	4025.11
752.494	4051.22
752.546	4029.12
752.597	4023.63
752.648	4003.15
752.699	3997.35
752.75	4011.68
752.801	4008.56
752.852	3963.28
752.903	4014.5
752.954	4026.21
753.005	3911.68
753.057	3959.41
753.108	3985.92
753.159	3939.03
753.21	3956.04
753.261	3977.72
753.312	3965.63
753.363	3997.47
753.414	3939.02
753.465	3982.44
753.516	3920.02
753.568	3948.39
753.619	3964.8
753.67	3935.72
753.721	3915.8
753.772	3881.58
753.823	3854.53
753.874	3906.8
753.925	3894.53
753.976	3867.69
754.027	3946.02
754.079	3901.82
754.13	3867.68
754.181	3852.68
754.232	3880.33
754.283	3834.9
754.334	3856.29
754.385	3855.72
754.436	3853.7
754.487	3866.67
754.538	3838.09
754.589	3808.8
754.641	3766.48
754.692	3848.42
754.743	3832.96
754.794	3815.49
754.845	3777.08
754.896	3784.8
754.947	3788.25
754.998	3788.59
755.049	3856.55
755.1	3819.52
755.151	3770.13
755.202	3762.37
755.253	3771.12
755.305	3783.72
755.356	3804.45
755.407	3759.89
755.458	3777.63
755.509	3718.49
755.56	3759.54
755.611	3725.71
755.662	3731.43
755.713	3730.38
755.764	3754.29
755.815	3722.05
755.866	3716.18
755.917	3733.72
755.968	3705.34
756.02	3714.25
756.071	3698.45
756.122	3708.85
756.173	3657.78
756.224	3698.19
756.275	3729.79
756.326	3699.34
756.377	3685.67
756.428	3648.22
756.479	3686.83
756.53	3674.09
756.581	3694.23
756.632	3665.66
756.683	3666.37
756.734	3619.65
756.785	3685.98
756.837	3618.22
756.888	3682.48
756.939	3646.68
756.99	3619.28
757.041	3635.19
757.092	3599.57
757.143	3645.32
757.194	3625.75
757.245	3652.29
757.296	3582.99
757.347	3548.76
757.398	3601.36
757.449	3621.3
757.5	3572.36
757.551	3581.37
757.602	3574.18
757.653	3574.89
757.704	3594.47
757.755	3593.37
757.807	3617.59
757.858	3593.7
757.909	3578.01
757.917	3576
757.968	3530.04
758.02	3518.09
758.071	3621.64
758.122	3559.84
758.173	3597.19
758.224	3511.72
758.276	3559.04
758.327	3508.21
758.378	3557.6
758.429	3578.9
758.48	3456.7
758.532	3527.24
758.583	3537.92
758.634	3504.95
758.685	3531.55
758.736	3467.17
758.788	3461.83
758.839	3495.36
758.89	3493.33
758.941	3453.1
758.992	3517.27
759.044	3509.23
759.095	3385.08
759.146	3490.14
759.197	3460.31
759.248	3435.32
759.3	3487.42
759.351	3474.03
759.402	3377.58
759.453	3403.76
759.504	3444.5
759.556	3457.71
759.607	3479.74
759.658	3446.1
759.709	3399.31
759.76	3388.12
759.811	3384.49
759.863	3416.46
759.914	3360.8
759.965	3425.07
760.016	3406.64
760.067	3426.98
760.119	3326.39
760.17	3386.92
760.221	3343.94
760.272	3372.23
760.323	3399.68
760.375	3330.44
760.426	3354.83
760.477	3372.98
760.528	3332.28
760.579	3353.92
760.63	3340.17
760.682	3361.49
760.733	3311.18
760.784	3295.08
760.835	3301.5
760.886	3340.79
760.937	3298
760.989	3333.66
761.04	3313.4
761.091	3305.56
761.142	3284.31
761.193	3326.01
761.245	3291.21
761.296	3254.35
761.347	3299.26
761.398	3317.89
761.449	3310.74
761.5	3256.68
761.552	3291.23
761.603	3256.23
761.654	3265.4
761.705	3290.03
761.756	3245.61
761.807	3276.75
761.859	3278.25
761.91	3276.28
761.961	3245.91
762.012	3243.05
762.063	3297.79
762.114	3261.82
762.165	3256.82
762.217	3246.63
762.268	3261.15
762.319	3270.51
762.37	3217.48
762.421	3197.27
762.472	3221.77
762.524	3168.77
762.575	3206.61
762.626	3174.74
762.677	3187.41
762.728	3174.38
762.779	3155.94
762.831	3143.33
762.882	3231.73
762.933	3187.72
762.984	3178.37
763.035	3166.5
763.086	3142.39
763.137	3170.88
763.189	3106.59
763.24	3133.17
763.291	3183.09
763.342	3150.14
763.393	3170.85
763.444	3158.91
763.495	3116.16
763.547	3100.9
763.598	3128.63
763.649	3095.68
763.7	3131.16
763.751	3067.17
763.802	3092.55
763.853	3114.36
763.905	3102.38
763.956	3078.09
764.007	3113.46
764.058	3070.35
764.109	3157.84
764.16	3084.22
764.211	3112.91
764.263	3082.49
764.314	3078.35
764.365	3043.22
764.416	3077
764.467	3078.86
764.518	3073.85
764.569	3057.03
764.621	3016.87
764.672	3035.31
764.723	3084.37
764.774	3046.44
764.825	3064.8
764.876	3061.23
764.927	3056.33
764.978	3082.18
765.03	3045.04
765.081	3002.75
765.132	3044.15
765.183	2993.66
765.234	3009.97
765.285	3000.36
765.336	3029.51
765.387	3015.72
765.439	2967.76
765.49	3014.26
765.541	2992.86
765.592	2983.26
765.643	2973.51
765.694	2989.25
765.745	2964.09
765.796	2947.87
765.848	2998.23
765.899	2974.32
765.95	2935.11
766.001	2926.61
766.052	2924.25
766.103	2936.46
766.154	2992.8
766.205	2941.55
766.256	2918.2
766.308	2928.32
766.359	2921.84
766.41	2906.12
766.461	2935.47
766.512	2922.91
766.563	2945.23
766.614	2915.94
766.665	2935.38
766.716	2936.66
766.768	2948.19
766.819	2903.22
766.87	2896.81
766.921	2918.22
766.972	2909.42
767.023	2925.42
767.074	2928.24
767.125	2895.81
767.176	2888.28
767.227	2903.76
767.279	2934.12
767.33	2901.4
767.381	2869.44
767.432	2886.95
767.483	2843.29
767.534	2842.48
767.585	2838.73
767.636	2838
767.687	2839.4
767.739	2812.59
767.79	2815.07
767.841	2826.44
767.892	2844.8
767.943	2786.69
767.994	2847.87
768.045	2826.53
768.096	2815.99
768.147	2819.06
768.198	2793.39
768.249	2767.9
768.301	2771.57
768.352	2789.27
768.403	2783.59
768.454	2817.32
768.505	2789.31
768.556	2803.02
768.607	2783.17
768.658	2799.96
768.709	2786.92
768.76	2738.01
768.811	2755.66
768.862	2789.88
768.914	2722.12
768.965	2774.07
769.016	2733.65
769.067	2724.72
769.118	2705.37
769.169	2745.7
769.22	2734.49
769.271	2710.24
769.322	2735.73
769.373	2704.06
769.424	2725.31
769.475	2674.88
769.526	2717.51
769.578	2680.94
769.629	2734.08
769.68	2713.07
769.731	2658.6
769.782	2691.06
769.833	2687.69
769.884	2671.12
769.935	2676.77
769.986	2664.38
770.037	2676.9
770.088	2631.69
770.139	2626.8
770.19	2666.61
770.242	2664.97
770.293	2702.46
770.344	2658.25
770.395	2629.63
770.446	2643.25
770.497	2615.87
770.548	2618.65
770.599	2629.11
770.65	2627.96
770.701	2608.85
770.752	2655.84
770.803	2615.38
770.854	2612.44
770.905	2593.91
770.956	2600.12
771.007	2612.74
771.058	2576.21
771.11	2583.43
771.161	2563.07
771.212	2583.72
771.263	2594.43
771.314	2556.75
771.365	2556.39
771.416	2536.41
771.467	2550.47
771.518	2548.24
771.569	2567.76
771.62	2532.25
771.671	2526.99
771.722	2544.35
771.773	2500.26
771.824	2541.22
771.875	2537.45
771.926	2549.27
771.977	2523.85
772.028	2490.9
772.079	2507.42
772.131	2495.75
772.182	2521.48
772.233	2535.77
772.284	2507.65
772.335	2498.98
772.386	2491.13
772.437	2478.17
772.488	2472.64
772.539	2478.28
772.59	2489.38
772.641	2502.04
772.692	2472.79
772.743	2431.56
772.794	2449.72
772.845	2466.27
772.896	2466.61
772.947	2461.29
772.998	2455.15
773.049	2466.51
773.1	2451.32
773.151	2435.8
773.202	2438.38
773.253	2445.2
773.304	2423.7
773.355	2423.34
773.406	2412.92
773.457	2427.37
773.508	2436.86
773.56	2396.14
773.611	2393.62
773.662	2392.76
773.713	2383.85
773.764	2429.82
773.815	2363.57
773.866	2380.66
773.917	2379.05
773.968	2375.51
774.019	2378.3
774.07	2399.81
774.121	2419.89
774.172	2401.31
774.223	2387.66
774.274	2388.19
774.325	2367.13
774.376	2362
774.427	2401.64
774.478	2371.3
774.529	2351.14
774.58	2339.68
774.631	2346.77
774.682	2354.32
774.733	2340.21
774.784	2352.33
774.835	2367.06
774.886	2314.63
774.937	2316.69
774.988	2292.76
775.039	2314.61
775.09	2327.07
775.141	2325.73
775.192	2308.26
775.243	2305.38
775.294	2313.91
775.345	2309.57
775.396	2295.8
775.447	2299.56
775.498	2282.65
775.549	2290.35
775.6	2281.89
775.651	2265.65
775.702	2273.61
775.753	2277.97
775.804	2266.11
775.855	2276.59
775.906	2259.62
775.957	2249.61
776.008	2251.85
776.059	2269.58
776.11	2264.36
776.161	2246.31
776.212	2235
776.263	2226.56
776.314	2231.8
776.365	2214.14
776.416	2206.95
776.467	2241.71
776.518	2249.07
776.569	2242.72
776.62	2212.72
776.671	2198.56
776.722	2205.98
776.773	2188.01
776.824	2180.45
776.875	2195.69
776.926	2200.69
776.977	2171.48
777.028	2172.32
777.079	2182.46
777.13	2190.13
777.181	2213.24
777.232	2201.71
777.283	2170.72
777.334	2179.95
777.385	2167.04
777.436	2161.09
777.487	2170.35
777.538	2164.94
777.589	2157.6
777.64	2152.71
777.691	2143
777.742	2138.25
777.793	2139.49
777.844	2142.42
777.895	2151.11
777.946	2119.91
777.997	2121.27
778.047	2133.3
778.098	2145.95
778.149	2119.19
778.2	2133.71
778.251	2116.51
778.302	2110.85
778.353	2122.54
778.404	2095.21
778.455	2103.1
778.506	2113.07
778.557	2097.9
778.608	2100.5
778.659	2082.38
778.71	2072.11
778.761	2077.74
778.812	2102.01
778.863	2079.64
778.914	2063.86
778.965	2105.5
779.016	2102.35
779.067	2092.08
779.118	2081.02
779.169	2062.66
779.22	2080.57
779.271	2057.91
779.322	2035.79
779.373	2054.62
779.424	2047.65
779.474	2052.01
779.525	2041.69
779.576	2021.44
779.627	2019.01
779.678	2037.01
779.729	2053.48
779.78	2032.19
779.831	2012.85
779.882	2016.31
779.933	2003.82
779.984	1989.88
780.035	2019.39
780.086	2038.15
780.137	2006.13
780.188	1995.53
780.239	2022.05
780.29	2014.66
780.341	2003.87
780.392	2032.36
780.442	2027.09
780.493	1992.14
780.544	1997.31
780.595	1992.26
780.646	1938.12
780.697	1955.32
780.748	1960.21
780.799	1966.69
780.85	1973.49
780.901	1968.36
780.952	1974.08
781.003	1943.43
781.054	1928.75
781.105	1969.46
781.156	1963.03
781.207	1938.64
781.257	1933.26
781.308	1930.7
781.359	1918.66
781.41	1924.99
781.461	1947.41
781.512	1943.21
781.563	1920.53
781.614	1903.65
781.665	1925.85
781.716	1945.78
781.767	1926.99
781.818	1917.91
781.869	1918.65
781.919	1910.37
781.97	1930.41
782.021	1930.02
782.072	1915.91
782.123	1925.38
782.174	1912.95
782.225	1898.73
782.276	1881.01
782.327	1916.9
782.378	1914.37
782.429	1886.24
782.48	1875.81
782.531	1895.77
782.581	1854.73
782.632	1863.14
782.683	1870.17
782.734	1831.59
782.785	1836.55
782.836	1846.69
782.887	1852.83
782.938	1877.07
782.989	1838.85
783.04	1834.37
783.091	1865.77
783.141	1850.7
783.192	1843.74
783.243	1830.66
783.294	1799.63
783.345	1828.77
783.396	1839.96
783.447	1818.45
783.498	1815.08
783.549	1807.77
783.6	1792.04
783.651	1809.66
783.701	1793.4
783.752	1801.02
783.803	1830.54
783.854	1829.52
783.905	1810.04
783.956	1778.85
784.007	1802.05
784.058	1795.56
784.1	1764
784.151	1793.98
784.202	1807.87
784.253	1797.77
784.304	1773.65
784.355	1817.38
784.406	1793.82
784.458	1782.11
784.509	1727.39
784.56	1799.76
784.611	1794.24
784.662	1767.3
784.713	1758.69
784.764	1752.91
784.815	1744.36
784.866	1768.68
784.917	1796.4
784.968	1730.41
785.019	1771.02
785.07	1741.39
785.121	1729.2
785.172	1754.41
785.223	1733.02
785.274	1727.24
785.326	1717.62
785.377	1709.63
785.428	1725.73
785.479	1734.88
785.53	1770.87
785.581	1730.43
785.632	1702.95
785.683	1733.29
785.734	1704.34
785.785	1659.91
785.836	1704.56
785.887	1696.44
785.938	1701.63
785.989	1683.29
786.04	1690.6
786.091	1669.47
786.142	1694.37
786.193	1703.91
786.244	1681.79
786.295	1686.98
786.346	1692.07
786.397	1666.71
786.448	1683.14
786.5	1644.39
786.551	1662.08
786.602	1644.8
786.653	1665.26
786.704	1647.98
786.755	1668.81
786.806	1660.84
786.857	1661.33
786.908	1656.06
786.959	1676.01
787.01	1634.12
787.061	1642.17
787.112	1636
787.163	1635.98
787.214	1628.43
787.265	1645.97
787.316	1626.1
787.367	1600.18
787.418	1608.53
787.469	1654.61
787.52	1650.79
787.571	1613.99
787.622	1601.2
787.673	1650.93
787.724	1617.79
787.775	1573.23
787.826	1619.44
787.877	1649.64
787.928	1608.4
787.979	1594.59
788.03	1598.31
788.081	1593.36
788.132	1572.82
788.183	1592.02
788.234	1573.79
788.285	1583.26
788.336	1582.16
788.387	1589.12
788.438	1592.39
788.49	1582.56
788.541	1587.87
788.591	1583.36
788.643	1565.65
788.694	1592.51
788.745	1554.54
788.796	1556.85
788.847	1587.55
788.898	1538.46
788.949	1572.72
789	1540.99
789.051	1543.02
789.102	1577.74
789.153	1560.43
789.204	1539.72
789.255	1546.09
789.306	1519.06
789.357	1512.8
789.408	1541.95
789.459	1548.39
789.51	1524.89
789.561	1532.3
789.612	1517.96
789.663	1575.15
789.714	1524.77
789.765	1541.79
789.816	1519.5
789.867	1518.69
789.918	1484.33
789.969	1516.99
790.02	1539.74
790.071	1516.76
790.122	1527.77
790.173	1508.26
790.224	1508.43
790.275	1496.9
790.326	1498.13
790.377	1484.67
790.428	1526.45
790.479	1471.79
790.53	1476.32
790.581	1486.42
790.632	1503.6
790.682	1461.46
790.734	1472.66
790.784	1483.29
790.836	1471.66
790.886	1489.44
790.937	1440.28
790.988	1460.88
791.039	1460.35
791.09	1458.48
791.141	1473.75
791.192	1470.46
791.243	1470.8
791.294	1475.64
791.345	1473.43
791.396	1461.48
791.447	1443
791.498	1447.89
791.549	1464.22
791.6	1447.71
791.651	1408.87
791.702	1440.12
791.753	1440.81
791.804	1427.28
791.855	1444.08
791.906	1399.13
791.957	1415.82
792.008	1432.91
792.059	1416.87
792.11	1412.48
792.161	1418.77
792.212	1401.68
792.263	1434.47
792.314	1415.83
792.365	1409.37
792.416	1395.13
792.467	1373.36
792.518	1391.34
792.569	1422.63
792.62	1414.27
792.671	1401.66
792.722	1373.61
792.773	1406.34
792.823	1382.66
792.874	1394.37
792.925	1380.53
792.976	1404.48
793.027	1388.66
793.078	1374.16
793.129	1373.1
793.18	1372.43
793.231	1350.39
793.282	1378.76
793.333	1353.56
793.384	1357.34
793.435	1372.28
793.486	1332.11
793.537	1360.94
793.588	1360.04
793.639	1331.87
793.69	1364.76
793.741	1343.42
793.792	1352.72
793.843	1353.82
793.894	1338.7
793.945	1335.71
793.995	1327.96
794.046	1337.37
794.097	1341.21
794.148	1324.22
794.199	1343.64
794.25	1345.3
794.301	1327.12
794.352	1320.69
794.403	1309.2
794.454	1341.28
794.505	1345.42
794.556	1320.11
794.607	1319.59
794.658	1323.22
794.709	1318.5
794.76	1332.87
794.811	1292.86
794.862	1311.63
794.912	1296.61
794.963	1280.31
795.014	1292.96
795.065	1297.04
795.116	1309.23
795.167	1266.79
795.218	1290.3
795.269	1278.17
795.32	1302.25
795.371	1290.15
795.422	1311.13
795.473	1318.36
795.524	1275.75
795.575	1272.38
795.625	1275.52
795.676	1304.27
795.727	1289.32
795.778	1272.99
795.829	1271.14
795.88	1247.91
795.931	1226.01
795.982	1262.43
796.033	1261.31
796.084	1275.41
796.135	1245.15
796.186	1252.33
796.237	1253.31
796.287	1274.02
796.338	1250.44
796.389	1240.14
796.44	1231.26
796.491	1229.92
796.542	1267.5
796.593	1256.63
796.644	1222.4
796.695	1252.6
796.746	1243.5
796.797	1235.27
796.848	1231.59
796.898	1238.37
796.949	1224.27
797	1204.13
797.051	1229.97
797.102	1210.16
797.153	1199.08
797.204	1214.78
797.255	1209.14
797.306	1236.7
797.357	1220.16
797.408	1224.46
797.458	1187.51
797.509	1194.13
797.56	1220.65
797.611	1202.71
797.662	1166.14
797.713	1158.01
797.764	1225.82
797.815	1208.72
797.866	1193.07
797.917	1203.61
797.968	1198.11
798.018	1179.68
798.069	1162.39
798.12	1176.91
798.171	1174.54
798.222	1181.6
798.273	1161.87
798.324	1182.99
798.375	1165.15
798.426	1164.5
798.477	1179
798.527	1184.13
798.578	1159.6
798.629	1165.01
798.68	1187.43
798.731	1162.94
798.782	1184.44
798.833	1183.7
798.884	1172.05
798.935	1144.98
798.985	1163.28
799.036	1175.75
799.087	1160.87
799.138	1161.34
799.189	1142.51
799.24	1163.23
799.291	1146.15
799.342	1158.19
799.393	1164.96
799.443	1139.19
799.494	1148.76
799.545	1137.93
799.596	1148.04
799.647	1140.59
799.698	1135.26
799.749	1130.29
799.8	1101.66
799.85	1131.16
799.901	1130.67
799.952	1129.2
800.003	1126.92
800.054	1111.42
800.105	1105.1
800.156	1105.37
800.207	1099.75
800.257	1122.84
800.308	1096.53
800.359	1126.29
800.41	1111.1
800.461	1115.6
800.512	1085.57
800.563	1085.58
800.613	1093.41
800.664	1083.49
800.715	1083.09
800.766	1099.11
800.817	1119.7
800.868	1092.16
800.919	1079.07
800.97	1078.55
801.02	1063.52
801.071	1066.43
801.122	1080.24
801.173	1085.03
801.224	1091.56
801.275	1076.61
801.326	1079.47
801.376	1091.52
801.427	1079.91
801.478	1065.34
801.529	1083.31
801.58	1075.12
801.631	1071.05
801.682	1076.3
801.732	1059.56
801.783	1083.19
801.834	1073.73
801.885	1038.16
801.936	1048.53
801.987	1068
802.038	1036.67
802.088	1067.12
802.139	1066.78
802.19	1048.03
802.241	1074.73
802.292	1060.66
802.343	1044.27
802.393	1054.46
802.444	1026.13
802.495	1043.12
802.546	1048.56
802.597	1057.92
802.648	1045.63
802.698	1032.57
802.749	1046.74
802.8	1022.64
802.851	1037
802.902	1017.74
802.953	1022.39
803.004	1015.97
803.054	1041.11
803.105	1028.53
803.156	1056.07
803.207	1013.47
803.258	1031.79
803.309	1038.37
803.359	1010.3
803.41	1024.46
803.461	1002.16
803.512	1011.39
803.563	981.068
803.614	1013.07
803.664	1000.82
803.715	1000
803.766	1019.74
803.817	989.873
803.868	1013.81
803.919	1003.72
803.969	992.762
804.02	991.234
804.071	986.212
804.122	1002.17
804.173	986.852
804.223	993.557
804.274	990.59
804.325	969.1
804.376	989.195
804.427	988.508
804.478	968.63
804.528	1009.67
804.579	968.632
804.63	979.392
804.681	976.317
804.732	972.784
804.782	990.628
804.833	956.899
804.884	970.556
804.935	968.023
804.986	979.837
805.036	969.451
805.087	956.478
805.138	954.502
805.189	972.056
805.24	954.062
805.291	962.175
805.341	952.731
805.392	960.333
805.443	965.71
805.494	944.582
805.545	946.109
805.595	946.701
805.646	932.023
805.697	915.887
805.748	961.33
805.799	973.004
805.849	977.242
805.9	940.859
805.951	951.567
806.002	936.696
806.053	942.723
806.103	948.129
806.154	942.962
806.205	954.055
806.256	930.599
806.307	930.568
806.357	932
806.408	952.743
806.459	933.997
806.51	923.686
806.561	934.947
806.611	922.504
806.662	919.217
806.713	930.093
806.764	920.461
806.815	927.023
806.865	938.266
806.916	929.293
806.967	931.474
807.018	929.253
807.068	918.24
807.119	913.397
807.17	934.618
807.221	919.52
807.272	929.9
807.322	915.268
807.373	886.971
807.424	908.128
807.475	911.47
807.526	901.107
807.576	888.495
807.627	907.583
807.678	929.503
807.729	893.198
807.779	920.492
807.83	894.016
807.881	906.377
807.932	882.108
807.982	870.613
808.033	892.404
808.084	894.499
808.135	880.806
808.186	897.093
808.236	895.693
808.287	890.443
808.338	898.199
808.389	878.223
808.439	874.656
808.49	873.092
808.541	868.177
808.592	871.521
808.643	864.514
808.693	856.493
808.744	861.641
808.795	864.83
808.846	876.965
808.896	873.094
808.947	872.298
808.998	861.455
809.049	872.942
809.099	862.145
809.15	864.447
809.201	872.874
809.252	871.083
809.302	870.323
809.353	869.501
809.404	871.461
809.455	857.971
809.505	850.196
809.556	862.89
809.607	867.794
809.658	857.288
809.708	844.005
809.759	851.028
809.81	849.354
809.861	852.432
809.911	853.589
809.962	861.349
810.013	856.891
810.064	848.132
810.114	853.707
810.133	858
810.183	856
810.234	852.016
810.285	848.049
810.336	816.128
810.387	832.219
810.438	844.124
810.489	824.406
810.54	820.325
810.591	816.442
810.642	812.421
810.693	826.319
810.743	843.355
810.794	837.632
810.845	800.575
810.896	816.159
810.947	816.467
810.998	825.761
811.049	842.823
811.1	815.455
811.151	794.305
811.202	813.15
811.253	804.855
811.303	800.773
811.354	829.496
811.405	831.622
811.456	812.671
811.507	820.013
811.558	812.459
811.609	823.433
811.66	806.144
811.711	771.542
811.762	822.594
811.813	813.322
811.863	806.946
811.914	818.617
811.965	794.467
812.016	807.243
812.067	785.886
812.118	775.543
812.169	803.128
812.22	815.465
812.271	799.301
812.321	796.152
812.372	793.228
812.423	813.163
812.474	804.14
812.525	792.233
812.576	761.999
812.627	764.076
812.678	773.876
812.729	767.17
812.779	792.374
812.83	779.898
812.881	759.035
812.932	800.497
812.983	780.297
813.034	780.679
813.085	749.413
813.136	762.812
813.187	789.799
813.237	770.794
813.288	754.24
813.339	786.516
813.39	789.615
813.441	769.963
813.492	754.691
813.543	749.664
813.594	772.79
813.644	753.914
813.695	768.673
813.746	779.266
813.797	783.711
813.848	757.248
813.899	752.907
813.95	741.813
814.001	744.558
814.051	767.952
814.102	758.55
814.153	748.683
814.204	737.007
814.255	751.164
814.306	743.713
814.357	747.925
814.408	738.369
814.458	729.094
814.509	750.961
814.56	724.82
814.611	754.557
814.662	739.14
814.713	728.395
814.764	734.315
814.814	744.708
814.865	757.661
814.916	737.046
814.967	756.07
815.018	735.947
815.069	727.495
815.12	721.216
815.17	714.034
815.221	751.501
815.272	727.547
815.323	709.334
815.374	730.608
815.425	718.816
815.476	727.517
815.526	723.2
815.577	705.344
815.628	718.273
815.679	718.33
815.73	701.714
815.781	713.926
815.832	730.248
815.882	723.658
815.933	715.993
815.984	709.035
816.035	716.673
816.086	713.527
816.137	713.839
816.188	709.212
816.238	724.455
816.289	702.357
816.34	698.276
816.391	708.21
816.442	691.243
816.493	706.883
816.543	695.915
816.594	724.654
816.645	694.422
816.696	716.979
816.747	696.984
816.798	705.816
816.848	702.813
816.899	719.265
816.95	696.26
817.001	681.753
817.052	707.354
817.103	705.728
817.153	683.261
817.204	686.882
817.255	702.958
817.306	707.265
817.357	685.119
817.408	687.703
817.458	680.484
817.509	687.719
817.56	698.349
817.611	686.694
817.662	691.677
817.713	697.844
817.763	673.541
817.814	690.245
817.865	685.302
817.916	673.802
817.967	684.152
818.018	671.043
818.068	661.395
818.119	675.281
818.17	664.276
818.221	674.725
818.272	654.957
818.323	669.127
818.373	649.376
818.424	647.853
818.475	648.522
818.526	663.216
818.577	672.879
818.627	661.589
818.678	670.81
818.729	660.858
818.78	676.981
818.831	660.591
818.881	667.335
818.932	662.302
818.983	655.2
819.034	662.894
819.085	663.755
819.135	650.173
819.186	660.749
819.237	650.662
819.288	660.65
819.339	645.833
819.39	670.126
819.44	650.481
819.491	642.384
819.542	633.998
819.593	668.836
819.644	646.588
819.694	653.995
819.745	637.448
819.796	629.708
819.847	649.21
819.898	649.986
819.948	633.074
819.999	635.863
820.05	637.887
820.101	636.913
820.152	630.688
820.202	628.939
820.253	639.698
820.304	647.343
820.355	632.293
820.406	653.88
820.456	639.858
820.507	639.321
820.558	626.938
820.609	629.655
820.66	636.73
820.71	634.345
820.761	633.731
820.812	617.346
820.863	648.819
820.914	619.387
820.964	618.339
821.015	618.272
821.066	627.422
821.117	621.837
821.167	631.585
821.218	610.916
821.269	623.209
821.32	608.141
821.371	621.243
821.421	595.57
821.472	617.462
821.523	611.828
821.574	622.425
821.624	605.039
821.675	601.092
821.726	631.915
821.777	607.451
821.828	605.178
821.878	613.064
821.929	598.172
821.98	598.91
822.031	605.514
822.081	596.96
822.132	596.275
822.183	592.284
822.234	606.082
822.285	599.553
822.335	610.628
822.386	597.941
822.437	591.955
822.488	616.053
822.538	609.941
822.589	604.615
822.64	592.615
822.691	586.272
822.741	579.77
822.792	601.875
822.843	582.292
822.894	583.562
822.945	577.182
822.995	585.203
823.046	587.182
823.097	590.057
823.148	564.848
823.198	586.237
823.249	584.709
823.3	587.879
823.351	586.827
823.401	575.348
823.452	579.118
823.503	572.85
823.554	568.801
823.604	576.68
823.655	577.175
823.706	583.582
823.757	556.91
823.807	591.049
823.858	579.763
823.909	584.753
823.96	557.974
824.01	578.925
824.061	561.651
824.112	586.765
824.163	579
824.213	581.071
824.264	582.121
824.315	570.601
824.366	565.814
824.416	565.584
824.467	567.274
824.518	556.204
824.569	571.985
824.619	575.807
824.67	554.31
824.721	565.994
824.772	557.693
824.822	541.027
824.873	566.287
824.924	554.54
824.974	548.643
825.025	555.799
825.076	564.825
825.127	539.215
825.177	563.6
825.228	554.043
825.279	554.032
825.33	544.525
825.38	536.382
825.431	531.152
825.482	547.059
825.533	548.209
825.583	553.218
825.634	545.281
825.685	548.495
825.735	538.231
825.786	556.13
825.837	539.465
825.888	537.927
825.938	548.17
825.989	536.961
826.04	543.763
826.091	533.261
826.141	556.004
826.192	537.983
826.243	550.458
826.293	550.265
826.344	542.368
826.395	546.23
826.446	540.317
826.496	532.091
826.547	536.817
826.598	540.919
826.648	528.437
826.699	533.317
826.75	533.664
826.801	526.389
826.851	538.801
826.902	531.491
826.953	535.078
827.003	543.611
827.054	531.354
827.105	522.485
827.156	537.267
827.206	526.811
827.257	521.318
827.308	535.294
827.358	529.896
827.409	527.371
827.46	521.451
827.511	529.694
827.561	522.519
827.612	528.029
827.663	528.112
827.713	524.746
827.764	530.613
827.815	519.624
827.865	521.532
827.916	518.54
827.967	521.06
828.018	505.18
828.068	529.753
828.119	524.677
828.17	530.542
828.22	507.132
828.271	496.648
828.322	509.29
828.372	516.406
828.423	515.219
828.474	514.088
828.525	519.735
828.575	510.606
828.626	514.601
828.677	516.265
828.727	522.624
828.778	515.94
828.829	510.212
828.879	503.403
828.93	515.377
828.981	501.071
829.031	508.392
829.082	509.736
829.133	503.077
829.183	504.03
829.234	502.895
829.285	508.921
829.336	498.601
829.386	496.633
829.437	505.481
829.488	502.471
829.538	511.504
829.589	511.514
829.64	493.764
829.69	487.598
829.741	470.48
829.792	478.817
829.842	497.567
829.893	499.595
829.944	476.882
829.994	487.848
830.045	511.114
830.096	502.035
830.146	493.039
830.197	491.872
830.248	487.357
830.298	490.165
830.349	490.54
830.4	489.05
830.45	476.296
830.501	481.333
830.552	496.069
830.602	488.143
830.653	480.218
830.704	487.083
830.754	487.799
830.805	483.502
830.856	474.946
830.906	478.626
830.957	472.865
831.008	479.923
831.058	495.278
831.109	491.512
831.16	486.094
831.21	490.837
831.261	489.229
831.312	473.914
831.362	462.603
831.413	482.707
831.464	482.309
831.514	484.075
831.565	484.784
831.616	480.949
831.666	476.256
831.717	466.245
831.767	468.708
831.818	471.538
831.869	473.176
831.919	475.242
831.97	477.505
832.021	467.612
832.071	465.923
832.122	467.553
832.173	466.468
832.223	456.548
832.274	464.533
832.325	458.388
832.375	447.979
832.426	467.97
832.477	465.768
832.527	461.027
832.578	462.131
832.628	459.008
832.679	473.536
832.73	474.348
832.78	474.982
832.831	482.967
832.882	470.213
832.932	458.865
832.983	466.77
833.034	462.786
833.084	455.306
833.135	463.825
833.185	468.461
833.236	468.736
833.287	465.531
833.337	456.703
833.388	447.677
833.439	455.962
833.489	459.585
833.54	452.331
833.59	445.172
833.641	433.489
833.692	432.3
833.742	459.241
833.793	456.138
833.844	449.022
833.894	438.503
833.945	452.429
833.995	450.318
834.046	445.352
834.097	458.614
834.147	448.543
834.198	433.371
834.249	445.853
834.299	439.875
834.35	434.608
834.4	440.463
834.451	437.216
834.502	439.936
834.552	446.457
834.603	446.042
834.653	446.502
834.704	433.865
834.755	444.91
834.805	438.482
834.856	433.459
834.906	430.213
834.957	438.107
835.008	443.072
835.058	448.842
835.109	430.116
835.16	444.277
835.21	451.563
835.261	443.854
835.311	450.406
835.362	452.636
835.413	435.943
835.463	435.023
835.514	416.963
835.564	419.493
835.615	426.604
835.666	431.568
835.716	420.248
835.767	431.029
835.817	443.165
835.868	440.427
835.919	417.874
835.969	435.983
836.02	445.263
836.07	418.396
836.121	413.212
836.161	418
836.212	440
836.263	425.996
836.314	425.969
836.365	435.892
836.415	416.143
836.466	423.943
836.517	421.945
836.568	423.903
836.618	423.93
836.669	425.847
836.72	417.695
836.771	421.769
836.821	422.357
836.872	441.39
836.923	417.872
836.974	416.033
837.024	413.979
837.075	408.129
837.126	421.764
837.177	433.236
837.227	429.254
837.278	433.408
837.329	405.9
837.38	427.284
837.43	433.312
837.481	414.142
837.532	416.528
837.583	436.57
837.633	421.354
837.684	412.083
837.735	408.089
837.786	423.399
837.836	406.616
837.887	430.514
837.938	404.707
837.989	417.901
838.039	426.416
838.09	415.712
838.141	408.513
838.192	417.068
838.242	409.78
838.293	408.758
838.344	412.234
838.395	399.501
838.445	405.338
838.496	417.405
838.547	406.334
838.598	402.119
838.648	406.228
838.699	414.371
838.75	390.726
838.801	425.368
838.851	398.386
838.902	413.769
838.953	400.796
839.003	394.654
839.054	390.211
839.105	401.494
839.156	399.973
839.206	401.637
839.257	417.414
839.308	400.768
839.359	385.41
839.409	410.788
839.46	407.394
839.511	396.56
839.562	391.733
839.612	396.169
839.663	397.884
839.714	384.226
839.764	394.78
839.815	389.482
839.866	401.898
839.917	402.649
839.967	392.043
840.018	398.542
840.069	392.868
840.119	386.792
840.17	381.143
840.221	404.375
840.272	401.561
840.322	386.269
840.373	371.151
840.424	396.983
840.474	389.794
840.525	399.314
840.576	391.627
840.627	367.386
840.677	388.104
840.728	379.83
840.779	401.755
840.829	385.121
840.88	377.172
840.931	378.044
840.982	387.149
841.032	403.932
841.083	371.527
841.134	378.161
841.184	378.346
841.235	372.798
841.286	382.23
841.337	369.986
841.387	382.501
841.438	383.329
841.489	387.879
841.539	386.529
841.59	375.486
841.641	385.608
841.691	371.167
841.742	361.734
841.793	367.714
841.844	358.797
841.894	371.795
841.945	365.082
841.996	368.447
842.046	359.129
842.097	380.85
842.148	371.059
842.198	373.215
842.249	384.015
842.3	370.151
842.351	383.228
842.401	371.345
842.452	371.826
842.503	365.162
842.553	382.815
842.604	357.616
842.655	368.822
842.705	380.652
842.756	367.106
842.807	363.337
842.857	368.132
842.908	356.516
842.959	365.67
843.009	387.074
843.06	362.885
843.111	377.191
843.161	377.497
843.212	374.319
843.263	364.351
843.314	374.148
843.364	362.682
843.415	361.46
843.466	351.605
843.516	366.166
843.567	352.062
843.618	349.04
843.668	353.935
843.719	371.421
843.77	356.659
843.82	359.254
843.871	360.043
843.922	343.015
843.972	364.41
844.023	352.413
844.074	361.023
844.124	351.368
844.175	353.261
844.226	346.854
844.276	350.908
844.327	350.449
844.378	361.348
844.428	365.457
844.479	346.033
844.53	348.862
844.58	354.465
844.631	361.337
844.682	352.891
844.732	350.316
844.783	342.484
844.834	345.538
844.884	346.902
844.935	350.68
844.986	347.081
845.036	356.57
845.087	360.124
845.138	354.369
845.188	357.484
845.239	341.962
845.29	355.091
845.34	337.769
845.391	337.413
845.442	330.261
845.492	343.444
845.543	344.353
845.594	353.247
845.644	348.737
845.695	333.775
845.745	345.864
845.796	345.202
845.847	335.749
845.897	341.853
845.948	345.13
845.999	359.364
846.049	325.664
846.1	344.609
846.151	349.219
846.201	340.765
846.252	329.805
846.303	346.941
846.353	332.185
846.404	339.044
846.455	330.486
846.505	334.215
846.556	345.671
846.606	342.411
846.657	329.084
846.708	332.305
846.758	330
846.809	336.261
846.86	330.46
846.91	331.16
846.961	332.92
847.012	325.998
847.062	338.1
847.113	330.134
847.163	320.256
847.214	333.617
847.265	340.144
847.315	332.804
847.366	331.837
847.417	318.842
847.467	329.295
847.518	330.374
847.568	333.004
847.619	326.559
847.67	335.585
847.72	327.37
847.771	333.094
847.822	334.699
847.872	338.741
847.923	332.601
847.973	311.023
848.024	327.637
848.075	331.234
848.125	326.59
848.176	319.391
848.227	322.633
848.277	339.556
848.328	326.212
848.378	325.002
848.429	321.764
848.48	330.902
848.53	318.491
848.581	323.812
848.631	316.22
848.682	321.78
848.733	324.661
848.783	309.279
848.834	313.762
848.885	318.693
848.935	320.499
848.986	324.277
849.036	330.414
849.087	314.78
849.138	315.58
849.188	312.649
849.239	323.926
849.289	316.735
849.34	309.568
849.391	313.053
849.441	320.474
849.492	312.168
849.542	330.792
849.593	318.833
849.644	318.801
849.694	325.211
849.745	299.53
849.795	305.494
849.846	307.394
849.897	315.973
849.947	303.702
849.998	297.535
850.048	300.877
850.099	314.522
850.15	302.98
850.2	307.965
850.251	309.074
850.301	305.164
850.352	303.935
850.403	308.342
850.453	309.354
850.504	308.978
850.554	301.542
850.605	302.272
850.656	310.309
850.706	302.829
850.757	302.022
850.807	308.014
850.858	307.646
850.908	310.502
850.959	299.745
851.01	317.339
851.06	295.597
851.111	295.759
851.161	300.763
851.212	303.236
851.263	308.544
851.313	310.543
851.364	297.779
851.414	306.545
851.465	300.132
851.515	314.611
851.566	293.659
851.617	311.081
851.667	304.877
851.718	296.816
851.768	304.152
851.819	299.909
851.869	296.438
851.92	305.236
851.971	298
852.021	298.292
852.072	301.955
852.122	298.249
852.173	291.182
852.223	286.591
852.274	300.285
852.325	300.543
852.375	293.626
852.426	293.3
852.476	293.917
852.527	279.154
852.577	287.591
852.628	281.446
852.678	285.418
852.729	291.056
852.78	282.328
852.83	299.728
852.881	296.195
852.931	291.027
852.982	288.245
853.032	303.694
853.083	297.253
853.133	290.97
853.184	285.219
853.235	283.233
853.285	294.024
853.336	286.263
853.386	283.011
853.437	294.224
853.487	290.287
853.538	291.902
853.588	276.072
853.639	287.695
853.69	287.581
853.74	284.438
853.791	279.398
853.841	290.663
853.892	284.294
853.942	282
853.993	277.704
854.043	271.689
854.094	279.171
854.144	283.44
854.195	282.039
854.246	279.042
854.296	279.122
854.347	287.563
854.397	280.817
854.448	281.271
854.498	288.191
854.549	278.262
854.599	280.753
854.65	282.71
854.7	283.217
854.751	283.31
854.801	278.727
854.852	281.099
854.902	283.538
854.953	285.019
855.004	269.671
855.054	275.112
855.105	286.951
855.155	280.924
855.206	284.137
855.256	280.616
855.307	281.95
855.357	280
855.408	280.582
855.458	261.423
855.509	262.317
855.559	276.31
855.61	269.146
855.66	273.382
855.711	273.123
855.761	271.392
855.812	281.253
855.862	267.807
855.913	276.816
855.964	273.23
856.014	266.829
856.065	269.416
856.115	269.471
856.166	270.361
856.216	270.472
856.267	266.334
856.317	271.528
856.368	266.778
856.418	260.524
856.469	266.408
856.519	260.737
856.57	271.519
856.62	262.742
856.671	259.298
856.721	264.434
856.772	269.652
856.822	271.601
856.873	262.978
856.923	259.33
856.974	256.756
857.024	252.519
857.075	259.116
857.125	261.093
857.176	246.389
857.226	253.986
857.277	264.207
857.327	259.26
857.378	254.932
857.428	259.4
857.479	269.226
857.529	265.166
857.58	258.872
857.63	251.902
857.681	260.772
857.731	263.51
857.782	267.49
857.832	268.177
857.883	266.989
857.933	261.013
857.984	257.855
858.034	258.649
858.085	265.433
858.135	259.46
858.186	251.199
858.236	256.582
858.287	261.209
858.337	252.429
858.388	254.317
858.438	258.746
858.489	255.785
858.539	250.62
858.589	247.504
858.64	256.568
858.69	259.302
858.741	255.01
858.791	258.718
858.842	249.342
858.892	239.911
858.943	244.734
858.993	256.736
859.044	261.487
859.094	252.955
859.145	252.626
859.195	258.723
859.246	255.08
859.296	245.678
859.347	248.603
859.397	249.34
859.448	255.17
859.498	254.618
859.549	247.863
859.599	251.274
859.649	254.381
859.7	258.572
859.75	266.384
859.801	258.468
859.851	246.887
859.902	247.969
859.952	256.142
860.003	251.609
860.053	250.898
860.104	242.702
860.154	240.464
860.205	258.25
860.255	254.21
860.305	251.675
860.356	248.419
860.406	246.675
860.457	249.762
860.507	241.285
860.558	240.781
860.608	236.462
860.659	249.144
860.709	250.675
860.76	238.16
860.81	235.694
860.861	249.616
860.911	243.177
860.961	232.301
861.012	245.642
861.062	241.122
861.113	240.916
861.163	232.833
861.214	243.76
861.264	256.132
861.315	243.603
861.365	236.488
861.415	235.793
861.466	247.376
861.516	247.056
861.567	237.963
861.617	251.246
861.668	248.699
861.718	245.648
861.769	245.746
861.819	240.103
861.869	224.996
861.92	246.9
861.97	240.945
862.021	255.396
862.071	237.608
862.112	236.01
862.162	241.975
862.213	257.832
862.263	231.975
862.314	241.934
862.365	227.992
862.415	241.778
862.466	241.964
862.516	236.036
862.567	218.124
862.618	241.724
862.668	239.838
862.719	245.718
862.77	235.937
862.82	219.902
862.871	235.773
862.921	224.453
862.972	239.956
863.023	247.32
863.073	233.821
863.124	247.613
863.174	231.998
863.225	241.399
863.276	252.848
863.326	228.325
863.377	235.863
863.427	243.116
863.478	229.726
863.529	241.185
863.579	225.532
863.63	236.934
863.68	244.816
863.731	224.413
863.782	218.54
863.832	231.492
863.883	229.926
863.933	228.303
863.984	219.238
864.034	237.779
864.085	231.906
864.136	237.217
864.186	231.086
864.237	223.687
864.287	228.434
864.338	231.553
864.389	217.912
864.439	225.73
864.49	221.111
864.54	220.574
864.591	218.472
864.642	231.61
864.692	227.408
864.743	217.603
864.793	214.886
864.844	217.82
864.894	229.691
864.945	211.334
864.996	234.627
865.046	221.193
865.097	227.381
865.147	231.986
865.198	222.069
865.248	226.895
865.299	225.636
865.35	214.4
865.4	213.333
865.451	218.459
865.501	230.286
865.552	222.831
865.603	211.155
865.653	217.095
865.704	224.207
865.754	223.674
865.805	212.512
865.855	215.228
865.906	218.905
865.956	213.701
866.007	224.311
866.058	236.327
866.108	217.565
866.159	215.183
866.209	220.724
866.26	231.416
866.31	223.118
866.361	212.05
866.412	217.563
866.462	216.701
866.513	218.223
866.563	222.874
866.614	208.778
866.664	207.137
866.715	217.833
866.766	220.328
866.816	228.193
866.867	218.657
866.917	218.7
866.968	214.982
867.018	227.278
867.069	216.964
867.119	211.114
867.17	210.517
867.22	210.133
867.271	218.801
867.322	231.307
867.372	212.189
867.423	207.743
867.473	220.353
867.524	206.952
867.574	208.092
867.625	204.772
867.675	213.317
867.726	219.303
867.776	201.35
867.827	215.878
867.878	219.324
867.928	205.365
867.979	200.661
868.029	208.195
868.08	213.334
868.13	222.688
868.181	201.685
868.231	204.994
868.282	213.043
868.332	224.352
868.383	212.327
868.433	192.585
868.484	205.547
868.535	221.116
868.585	204.263
868.636	205.029
868.686	209.881
868.737	201.846
868.787	217.875
868.838	212.651
868.888	210.477
868.939	198.158
868.989	198.769
869.04	210.369
869.09	203.209
869.141	207.216
869.191	204.544
869.242	188.888
869.292	206.276
869.343	211.954
869.394	212.149
869.444	197.472
869.495	202.743
869.545	205.776
869.596	208.882
869.646	202.893
869.697	194.437
869.747	207.877
869.798	207.51
869.848	207.924
869.899	208
869.949	204.901
870	198.137
870.05	204.418
870.101	204.538
870.151	199.316
870.202	197.358
870.252	198.244
870.303	198.36
870.353	198.908
870.404	199.617
870.454	200.439
870.505	190.914
870.555	185.528
870.606	198.486
870.656	197.237
870.707	207.512
870.757	200.266
870.808	190.83
870.858	200.28
870.909	190.577
870.959	199.613
871.01	202.655
871.06	196.393
871.111	199.787
871.161	193.6
871.212	196.755
871.262	191.695
871.313	186.298
871.363	192.087
871.414	195.395
871.464	199.277
871.515	202.664
871.565	194.945
871.616	193.315
871.666	205.256
871.717	189.016
871.767	191.627
871.818	191.123
871.868	190.793
871.919	201.45
871.969	194.204
872.02	195.935
872.07	198.95
872.121	197.142
872.171	186.257
872.222	193.769
872.272	190.816
872.323	188.053
872.373	181.005
872.424	205.433
872.474	189.973
872.525	183.631
872.575	199.151
872.626	195.152
872.676	190.211
872.727	192.9
872.777	194.722
872.828	192.693
872.878	184.842
872.929	199.426
872.979	194.995
873.03	190.109
873.08	195.763
873.13	179.195
873.181	178.081
873.231	195.942
873.282	186.551
873.332	191.184
873.383	190.796
873.433	183.078
873.484	187.169
873.534	176.122
873.585	187.354
873.635	183.192
873.686	189.065
873.736	179.63
873.787	182.515
873.837	184.394
873.888	183.659
873.938	182.696
873.988	185.924
874.039	187.175
874.089	181.983
874.14	174.032
874.19	183.423
874.241	188.994
874.291	185.831
874.342	189.699
874.392	178.005
874.443	185.695
874.493	186.897
874.544	169.415
874.594	184.776
874.644	182.309
874.695	185.02
874.745	195.09
874.796	188.937
874.846	187.521
874.897	174.697
874.947	176.864
874.998	180.324
875.048	184.548
875.099	181.249
875.149	185.023
875.199	183.182
875.25	171.284
875.3	181.917
875.351	183.779
875.401	179.206
875.452	177.57
875.502	170.919
875.553	184.971
875.603	178.283
875.653	184.217
875.704	178.507
875.754	173.102
875.805	175.706
875.855	184.994
875.906	179.955
875.956	168.561
876.006	186.868
876.057	173.394
876.107	181.018
876.158	174.197
876.208	175.196
876.259	178.843
876.309	174.046
876.36	165.248
876.41	171.896
876.46	180.942
876.511	162.661
876.561	172.007
876.612	173.243
876.662	176.447
876.713	165.95
876.763	174.239
876.813	164.169
876.864	172.38
876.914	175.883
876.965	163.292
877.015	179.008
877.065	173.276
877.116	165.099
877.166	173.673
877.217	170.358
877.267	177.23
877.318	180.002
877.368	174.346
877.418	178.278
877.469	176.836
877.519	177.146
877.57	173.9
877.62	180.486
877.671	178.437
877.721	175.585
877.771	171.918
877.822	169.703
877.872	172.853
877.923	180.676
877.973	174.615
878.023	169.329
878.074	177.008
878.124	187.643
878.175	172.32
878.225	168.167
878.276	176.205
878.326	170.555
878.376	167.705
878.427	166.07
878.477	168.26
878.528	168.115
878.578	180.238
878.628	170.538
878.679	172.838
878.729	167.627
878.78	172.107
878.83	162.326
878.88	166.574
878.931	163.602
878.981	163.521
879.031	161.678
879.082	168.22
879.132	166.943
879.183	164.283
879.233	171.976
879.284	163.811
879.334	160.404
879.384	161.937
879.435	161.347
879.485	161.205
879.535	169.399
879.586	165.363
879.636	166.256
879.687	167.315
879.737	166.725
879.787	157.589
879.838	166.852
879.888	162.931
879.939	169.007
879.989	170.317
880.039	163.545
880.09	169.653
880.14	168.682
880.19	160.768
880.241	163.923
880.291	159.422
880.342	152.106
880.392	164.573
880.442	164.136
880.493	157.283
880.543	160.417
880.594	159.074
880.644	154.449
880.694	158.273
880.745	159.844
880.795	159.819
880.845	159.408
880.896	153.715
880.946	157.995
880.996	158.421
881.047	160.283
881.097	159.665
881.148	167.266
881.198	158.931
881.248	152.752
881.299	155.615
881.349	160.865
881.399	164.401
881.45	154.962
881.5	161.603
881.551	161.003
881.601	160.516
881.651	162.466
881.702	160.631
881.752	165.179
881.802	158.692
881.853	151.849
881.903	150.389
881.953	154.506
882.004	153.065
882.054	155.295
882.104	159.254
882.155	158.428
882.205	151.309
882.256	155.496
882.306	159.6
882.356	160.968
882.407	158.975
882.457	158.727
882.507	157.086
882.558	155.594
882.608	156.615
882.658	147.755
882.709	148.76
882.759	154.87
882.809	151.468
882.86	161.028
882.91	158.981
882.96	150.205
883.011	156.018
883.061	150.821
883.111	151.233
883.162	153.99
883.212	143.829
883.262	154.964
883.313	158.722
883.363	159.3
883.413	159.299
883.464	156.327
883.514	146.503
883.565	150.552
883.615	148.978
883.665	153.291
883.716	156.748
883.766	151.015
883.816	148.498
883.867	148.43
883.917	152.8
883.967	158.001
884.017	151.187
884.068	145.997
884.118	151.553
884.168	152.467
884.219	153.802
884.269	152.508
884.319	139.206
884.37	148.385
884.42	144.903
884.47	144.765
884.521	142.805
884.571	149.897
884.621	145.007
884.672	141.704
884.722	148.17
884.772	147.65
884.823	150.687
884.873	142.872
884.923	152.335
884.974	152.393
885.024	146.654
885.074	134.804
885.125	153.209
885.175	154.01
885.225	143.375
885.276	141.032
885.326	142.009
885.376	150.687
885.426	146.971
885.477	154.203
885.527	155.696
885.577	146.469
885.628	148.056
885.678	140.551
885.728	145.408
885.779	147.682
885.829	148.708
885.879	140.459
885.93	143.065
885.98	140.572
886.03	144.057
886.08	145.11
886.131	155.764
886.181	139.749
886.231	146.067
886.282	138.558
886.332	136.131
886.382	135.558
886.432	144.747
886.483	144.027
886.533	145.554
886.583	141.572
886.634	137.21
886.684	140.041
886.734	143.491
886.785	142.977
886.835	128.292
886.885	141.435
886.935	133.187
886.986	143.301
887.036	146.623
887.086	134.438
887.137	135.786
887.187	124.165
887.237	146.596
887.287	141.809
887.338	136.753
887.388	143.728
887.438	132.241
887.489	132.232
887.539	141.514
887.589	150.071
887.639	149.949
887.69	136.297
887.74	143.795
887.79	143.66
887.841	143.959
887.891	140.012
887.941	143.856
887.943	143.954
887.993	143.913
888.044	136.087
888.094	153.561
888.144	141.731
888.195	139.937
888.245	137.983
888.296	141.69
888.346	128.541
888.397	130.36
888.447	136.107
888.498	131.73
888.548	141.401
888.599	130.082
888.649	143.313
888.699	146.721
888.75	146.402
888.8	134.099
888.851	138.118
888.901	133.596
888.952	139.471
889.002	141.058
889.053	139.671
889.103	141.403
889.153	137.037
889.204	124.589
889.254	127.658
889.305	126.592
889.355	132.443
889.406	133.27
889.456	136.854
889.507	125.883
889.557	133.166
889.607	134.936
889.658	133.741
889.708	137.582
889.759	124.282
889.809	132.54
889.86	136.066
889.91	137.346
889.96	137.713
890.011	129.113
890.061	144.042
890.112	135.717
890.162	131.527
890.213	140.018
890.263	122.287
890.313	136.084
890.364	127.114
890.414	140.154
890.465	131.863
890.515	132.316
890.566	135.158
890.616	130.643
890.666	136.575
890.717	132.92
890.767	128.438
890.818	118.145
890.868	137.994
890.919	135.779
890.969	133.245
891.019	124.926
891.07	120.401
891.12	122.739
891.171	128
891.221	122.615
891.271	137.135
891.322	126.416
891.372	124.893
891.423	130.696
891.473	125.188
891.523	130.793
891.574	124.071
891.624	127.475
891.675	125.873
891.725	125.272
891.776	129.735
891.826	120.657
891.876	128.937
891.927	124.475
891.977	129.653
892.028	117.83
892.078	120.274
892.128	129.715
892.179	123.47
892.229	129.493
892.28	122.256
892.33	128.172
892.38	119.673
892.431	117.16
892.481	122.134
892.532	127.841
892.582	127.908
892.632	134.63
892.683	126.564
892.733	127.706
892.784	127.362
892.834	122.381
892.884	122.622
892.935	123.896
892.985	120
893.036	117.952
893.086	123.616
893.136	127.818
893.187	121.566
893.237	117.675
893.288	127.16
893.338	128.659
893.388	116.824
893.439	118.928
893.489	122.477
893.539	126.367
893.59	118.731
893.64	123.28
893.691	116.166
893.741	112.252
893.791	127.703
893.842	120.301
893.892	124.891
893.943	113.017
893.993	114.027
894.043	116.033
894.094	120.993
894.144	117.014
894.194	122.992
894.245	117.017
894.295	114.986
894.346	116.017
894.396	116.012
894.446	114.913
894.497	123
894.547	117
894.597	110.145
894.648	120.92
894.698	120.06
894.749	125.804
894.799	117.181
894.849	115
894.9	128.739
894.95	115.184
895	116.05
895.051	124.052
895.101	126.778
895.151	119.118
895.202	115
895.252	117
895.303	125.656
895.353	118.499
895.403	116
895.454	118.764
895.504	116.411
895.554	106.592
895.605	116.87
895.655	116.272
895.706	116.094
895.756	106.193
895.806	117.499
895.857	115.104
895.907	118.426
895.957	113.56
896.008	107.568
896.058	116.768
896.108	121.402
896.159	109.099
896.209	109.744
896.259	109.292
896.31	117.209
896.36	114.729
896.41	118.138
896.461	117
896.511	109.146
896.561	107.041
896.612	112.239
896.662	116.845
896.713	115.525
896.763	113.804
896.813	111.836
896.864	117
896.914	118.971
896.964	116.696
897.015	118.822
897.065	118.36
897.115	118
897.166	113.625
897.216	116.57
897.266	118.034
897.317	110.591
897.367	113.002
897.417	110
897.468	109.586
897.518	110.37
897.568	116.787
897.619	108.515
897.669	113.242
897.719	116.89
897.77	108.904
897.82	112.082
897.87	110.467
897.921	110.764
897.971	103.478
898.021	107.215
898.072	103.036
898.122	107.495
898.172	112.476
898.223	105.82
898.273	116.447
898.323	106.05
898.374	110.206
898.424	107.616
898.474	111.007
898.524	100.654
898.575	109.444
898.625	108.127
898.675	114.011
898.726	110.863
898.776	111.585
898.826	103.475
898.877	115.221
898.927	118.108
898.977	107.609
899.028	102.85
899.078	108.757
899.128	108.057
899.179	106.59
899.229	108.077
899.279	114.028
899.33	109.294
899.38	109.337
899.43	110.669
899.48	104.651
899.531	106
899.581	106.655
899.631	113.694
899.682	107.597
899.732	108.354
899.782	110.074
899.833	100.362
899.883	110.364
899.933	93.838
899.984	104.518
