#Acq. time (s)=	3
#Accumulations=	2
#Range (nm)=	520...900
#Windows=	16
#Auto scanning=	On
#Autofocus=	Off
#AutoExposure=	Off
#Spike filter=	Multiple accum.
#Delay time (s)=	0
#Binning=	1
#Readout mode=	Signal
#DeNoise=	Off
#ICS correction=	Off
#Dark correction=	Off
#Inst. Process=	Off
#Detector temperature (°C)=	-59.98
#Instrument=	LabRAM HR Evol
#Detector=	Syncerity OE
#Objective=	x50_VIS
#Grating=	600 (500nm)
#ND Filter=	10%
#Laser=	514nm_Edge
#Hole=	199.981
#Range=	Auto
#StageXY=	Marzhauser
#StageZ=	Marzhauser
#X (µm)=	1931.1
#Y (µm)=	-221.9
#Z (µm)=	-219.5
#Full time(mm:ss)=	2:39
#Project=	
#Sample=	
#Site=	
#Title=	PL_Fatia_SCD_021223
#Remark=	
#Date=	18.12.2023 18:08
#Acquired=	18.12.2023 18:08:42
520.042	95
520.094	97.7849
520.147	100.136
520.199	96
520.251	86.1954
520.304	90.2049
520.356	98.6857
520.408	97
520.461	89.114
520.513	82.291
520.565	93.6438
520.618	91.1256
520.67	93.064
520.723	90.8044
520.775	93.2026
520.827	95.0698
520.88	90.7113
520.932	85.1467
520.984	91.1513
521.037	89
521.089	82.1581
521.141	84.9185
521.194	95.5041
521.246	93.4249
521.298	89.7416
521.351	93.7314
521.403	98.2724
521.455	88.1863
521.508	84.0943
521.56	80.0966
521.612	88.9022
521.665	85.5058
521.717	86.1804
521.769	77.7334
521.822	83.5762
521.874	88.7835
521.926	90.7811
521.979	87.1118
522.031	85.5646
522.083	85.8848
522.136	85.1186
522.188	82
522.24	83.5111
522.293	89
522.345	87.8743
522.397	90.8719
522.45	88.6461
522.502	92.2107
522.554	87.4016
522.607	87.865
522.659	84.6868
522.711	86.1397
522.764	89.7183
522.816	84.5704
522.868	86.4366
522.921	88.7334
522.973	82.851
523.025	79.6973
523.078	88.5425
523.13	88
523.182	86.1572
523.234	81.1595
523.287	87.3574
523.339	87.326
523.391	85.1653
523.444	89.4971
523.496	92.3248
523.548	82.3613
523.601	85.3446
523.653	85.8254
523.705	87.4691
523.758	79.8906
523.81	76.8196
523.862	86
523.915	84
523.967	81.8126
524.019	79.6224
524.072	94.2363
524.124	81.9604
524.176	93.0279
524.229	83.5902
524.281	87.8009
524.333	85.4009
524.385	87.2026
524.438	82
524.49	81.4144
524.542	82.4191
524.595	83.7343
524.647	82.6356
524.699	87.5716
524.752	87.5669
524.804	82.4377
524.856	86.1189
524.909	91
524.961	87.4494
525.013	88.546
525.066	84.3706
525.118	90.617
525.17	85.1641
525.222	80.2972
525.275	81.1816
525.327	86.0454
525.379	86.2413
525.432	84.2433
525.484	82.7544
525.536	76.4878
525.589	82.2541
525.641	81.7544
525.693	77
525.745	80.7448
525.798	77.7718
525.85	79.5175
525.902	76.9569
525.955	83.4715
526.007	79.5315
526.059	79
526.112	81.1898
526.164	83.4569
526.216	74.7357
526.268	77.3427
526.321	84.4435
526.373	78.958
526.425	75.4366
526.478	80.4319
526.53	80.1469
526.582	81.8452
526.635	85.2587
526.687	78.7532
526.739	75.7622
526.791	75.7031
526.844	82.4033
526.896	75.099
526.948	80
527.001	75.61
527.053	76.2261
527.105	73.0745
527.157	75.6224
527.21	79
527.262	76.3706
527.314	67.9534
527.367	73.4033
527.419	79.6795
527.471	77.3236
527.523	69.2762
527.576	79.7101
527.628	79.6702
527.68	77.6636
527.733	77
527.785	79.6643
527.837	80.6624
527.889	78.3403
527.942	74.683
527.994	77.3108
528.046	81.9231
528.099	77.0955
528.151	81.4033
528.203	82.1748
528.255	79.7753
528.308	79.3566
528.36	77.641
528.412	84.4738
528.464	85.5455
528.517	85.8112
528.569	83.7343
528.621	80.4761
528.674	79.6282
528.726	75.1224
528.778	77.4959
528.83	87.1061
528.883	87.5198
528.935	81.6177
528.987	81.305
529.039	76.8392
529.092	82
529.144	77.5618
529.196	76.8217
529.249	77.8161
529.301	83.6026
529.353	81.7995
529.405	77.4009
529.458	83.3869
529.51	82.844
529.562	72.7762
529.614	79
529.667	88.5874
529.719	78.655
529.771	73
529.823	79.1618
529.876	80.7378
529.928	82
529.98	83
530.033	78.2832
530.085	83.7133
530.137	81.7249
530.189	76.4336
530.242	75.9487
530.294	82.3706
530.346	78.0396
530.398	83.3287
530.451	76
530.503	85.3147
530.555	80.8974
530.607	81.8042
530.66	74
530.712	74.5443
530.764	81.2063
530.816	75.317
530.869	80.5385
530.921	81.8555
530.973	80.4662
531.025	75.4685
531.078	78.1748
531.13	82.4196
531.182	86.049
531.234	83.5221
531.287	81
531.339	84.4825
531.391	85.0326
531.443	79.9125
531.496	76.5128
531.548	80.5734
531.6	80.9184
531.652	79.5291
531.705	87.014
531.757	91
531.809	87
531.861	83.5175
531.914	81.9883
531.966	78.5531
532.018	79.4534
532.07	76
532.123	79.9441
532.175	85.035
532.227	78.5198
532.279	79.4352
532.332	80.5233
532.384	86.9487
532.436	85.6399
532.488	82
532.541	83
532.593	82.7972
532.645	86.0723
532.697	82
532.75	88.3757
532.802	87.5431
532.854	92.6364
532.906	86.9044
532.958	87.5496
533.011	85.6573
533.063	84.4452
533.115	75.1142
533.167	82.7643
533.22	89.8788
533.272	91.5641
533.324	82.6978
533.376	92.5944
533.429	88.8451
533.481	81.1392
533.533	79.4187
533.585	85.5312
533.638	88.3212
533.69	79.7857
533.742	86.5182
533.794	84.4898
533.846	89.7295
533.899	88.4598
533.951	83.4884
534.003	87.8353
534.055	87.5757
534.108	88.418
534.16	88.9302
534.212	96.391
534.264	92.9335
534.316	90.0005
534.369	87.9144
534.421	92.3487
534.473	88.4162
534.525	94.2363
534.578	95.0072
534.63	95.4018
534.682	95.3529
534.734	80.6149
534.786	89.701
534.839	93.9708
534.891	92.2145
534.943	89.5705
534.995	84.6905
535.047	88.2553
535.1	98.2448
535.152	91.8108
535.204	92.2262
535.256	95.3927
535.309	99.3713
535.361	89.9558
535.413	88.7114
535.465	99.1498
535.517	91.0693
535.57	87.4335
535.622	94.5452
535.674	95.2466
535.726	100.363
535.778	93.2683
535.831	88.7332
535.883	95.2157
535.935	96.4231
535.987	97.1322
536.039	94.1212
536.092	92.3476
536.144	91.6625
536.196	93.1546
536.248	93.5512
536.301	92.2372
536.353	99.0687
536.405	92.4434
536.457	94.4599
536.509	92.0131
536.562	94.5922
536.614	94.9181
536.666	92.6181
536.718	94.606
536.77	93.0014
536.823	84.736
536.875	91.0548
536.927	96.4173
536.979	91.8082
537.031	94.4579
537.083	100.245
537.136	92.409
537.188	95.759
537.24	88.9709
537.292	96.6204
537.344	95.7063
537.397	96.9064
537.449	95.4584
537.501	96.868
537.553	102.64
537.605	92.3153
537.658	90.7211
537.71	97.686
537.762	101.674
537.814	100.703
537.866	99.944
537.919	99.7257
537.971	97.857
538.023	100.556
538.075	90.0072
538.127	97.013
538.18	101.92
538.232	96.9078
538.284	96.0415
538.336	101.05
538.388	106.913
538.44	102.94
538.493	94.5029
538.545	100.098
538.597	96.0599
538.649	104.372
538.701	105.649
538.754	106.169
538.806	93.4712
538.858	103.411
538.91	101.278
538.962	105.059
539.014	97.3268
539.067	105.002
539.119	107.315
539.171	107.529
539.223	105.518
539.275	95.5207
539.327	102.118
539.38	103.631
539.432	107.617
539.484	99.4811
539.536	106.074
539.588	107.263
539.641	105.02
539.693	102.748
539.745	106.393
539.797	104.29
539.849	107.301
539.901	106.3
539.954	104.092
540.006	101.614
540.058	106.289
540.11	98.7565
540.162	111.613
540.214	107.534
540.267	99.6102
540.319	107.16
540.371	100.907
540.423	107.106
540.475	103.708
540.527	107.803
540.58	101.398
540.632	117.75
540.684	102.394
540.736	102.03
540.788	109.197
540.84	113.034
540.892	115.879
540.945	105.585
540.997	104.274
541.049	115.724
541.101	113.397
541.153	112.047
541.205	117.966
541.258	111.681
541.31	109.294
541.362	115.83
541.414	118.635
541.466	112.143
541.518	109.147
541.57	112.742
541.623	113.821
541.675	119.416
541.727	115.821
541.779	111.503
541.831	125.388
541.883	117.949
541.936	114.15
541.988	116.927
542.04	109.671
542.092	115.745
542.144	109.592
542.196	106.651
542.248	117.265
542.301	124.982
542.353	111.522
542.405	120.959
542.457	131.889
542.509	122.836
542.561	120.209
542.613	112.426
542.666	123.57
542.718	127.728
542.77	130.072
542.822	108.678
542.874	122.27
542.926	121.427
542.978	123.988
543.031	124.276
543.083	122.832
543.135	134.25
543.187	112.43
543.239	125.252
543.291	131.217
543.343	125.429
543.396	120.789
543.448	128.541
543.5	126.58
543.552	124.056
543.604	133.468
543.656	121.365
543.708	120.675
543.76	125.555
543.813	127.704
543.865	122.04
543.917	128.905
543.969	137.745
544.021	129.088
544.073	133.499
544.125	138.37
544.177	126.302
544.23	127.185
544.282	128.061
544.334	129.068
544.386	133.261
544.438	128.75
544.49	128.665
544.542	136.62
544.594	127.221
544.647	127.082
544.699	133.662
544.751	129.815
544.803	137.144
544.855	127.335
544.907	121.893
544.959	132.053
545.011	136.633
545.064	134.444
545.116	147.667
545.168	136.233
545.22	138.134
545.272	141.351
545.324	136.457
545.376	143.385
545.428	140.851
545.48	134.716
545.533	147.876
545.585	143.499
545.637	134.069
545.689	148.935
545.741	148.749
545.793	144.542
545.845	137.555
545.897	146.301
545.949	139.896
546.002	143.49
546.054	144.049
546.106	149.307
546.158	150.205
546.21	159.767
546.262	152.03
546.314	145.134
546.366	155.811
546.418	146.615
546.471	163.802
546.523	166.35
546.575	162.794
546.627	158.76
546.679	169.366
546.689	171.925
546.741	173.92
546.793	185.858
546.845	164.058
546.898	169.894
546.95	160.101
547.002	160.074
547.054	160.101
547.106	158.138
547.159	152.378
547.211	169.961
547.263	160.16
547.315	167.95
547.368	156.222
547.42	164.123
547.472	154.616
547.524	156.43
547.577	165.707
547.629	169.395
547.681	163.748
547.733	161.645
547.785	161.815
547.838	173.862
547.89	174.117
547.942	170.122
547.994	165.984
548.047	164.064
548.099	169.867
548.151	171.802
548.203	176.02
548.255	183.512
548.308	164.794
548.36	166.62
548.412	175.898
548.464	173.69
548.517	176.272
548.569	189.26
548.621	172.6
548.673	175.963
548.725	173.869
548.778	178.339
548.83	178.003
548.882	188.337
548.934	206.523
548.987	179.879
549.039	174.912
549.091	189.485
549.143	182.756
549.195	187.263
549.248	188.705
549.3	191.849
549.352	179.721
549.404	177.377
549.456	190.409
549.509	199.834
549.561	190.515
549.613	201.097
549.665	201.701
549.718	203.328
549.77	185.853
549.822	192.61
549.874	198.502
549.926	198.419
549.979	201.924
550.031	193.852
550.083	199.043
550.135	200.197
550.187	209.631
550.24	195.479
550.292	214.121
550.344	202.092
550.396	196.775
550.448	210.099
550.501	210.184
550.553	224.797
550.605	202.238
550.657	202.475
550.709	214.11
550.762	200.423
550.814	216.205
550.866	218.839
550.918	220.815
550.97	232.861
551.023	214.124
551.075	239.696
551.127	228.928
551.179	228.697
551.231	233.755
551.284	242.863
551.336	241.617
551.388	240.304
551.44	246.486
551.492	252.795
551.545	247.55
551.597	258.103
551.649	253.562
551.701	256.768
551.753	266.452
551.806	270.42
551.858	274.379
551.91	282.571
551.962	285.344
552.014	299.754
552.067	311.283
552.119	327.511
552.171	333.17
552.223	378.533
552.275	379.735
552.327	450.7
552.38	554.889
552.432	885.459
552.484	1681.32
552.536	3021.32
552.588	5411.48
552.641	9586.85
552.693	12293
552.745	9129.55
552.797	5008
552.849	2242.46
552.901	1023.33
552.954	611.372
553.006	485.646
553.058	423.858
553.11	376.777
553.162	359.961
553.215	343.057
553.267	326.289
553.319	299.998
553.371	315.738
553.423	306.259
553.475	315.422
553.528	303.743
553.58	299.739
553.632	312.455
553.684	289.891
553.736	284.922
553.788	310.708
553.841	292.038
553.893	289.998
553.945	296
553.997	292.373
554.049	281.407
554.102	293.383
554.154	299.045
554.206	297.338
554.258	303.748
554.31	291.908
554.362	299.409
554.414	310.596
554.467	305.951
554.519	289.92
554.571	295.188
554.623	299.978
554.675	309.45
554.727	301.016
554.78	284.498
554.832	317.518
554.884	315.935
554.936	305.066
554.988	299.708
555.04	304.653
555.093	309.898
555.145	316.34
555.197	299.976
555.249	314.653
555.301	325.112
555.353	317.166
555.406	315.566
555.458	302.556
555.51	319.501
555.562	314.709
555.614	295.927
555.666	319.579
555.719	319.737
555.771	325.122
555.823	329.838
555.875	330.821
555.927	343.145
555.979	316.934
556.031	326.729
556.084	337.002
556.136	319.097
556.188	334.121
556.24	339.413
556.292	344.609
556.344	346.601
556.396	354.577
556.449	350.523
556.501	341.083
556.553	351.316
556.605	362.449
556.657	356.723
556.709	377.533
556.762	355.989
556.814	364.621
556.866	366.616
556.918	361.277
556.97	367.861
557.022	369.441
557.074	372.465
557.127	368.169
557.179	372.669
557.231	371.964
557.283	365.35
557.335	359.776
557.387	384.906
557.439	356.668
557.492	373.831
557.544	374.251
557.596	382.812
557.648	378.121
557.7	368.778
557.752	371.781
557.804	368.753
557.856	388.004
557.909	382.23
557.961	385.98
558.013	386.25
558.065	373.292
558.117	396.99
558.169	387.665
558.221	396.432
558.273	398.509
558.326	388.639
558.378	395.586
558.43	404.86
558.482	389.926
558.534	406.526
558.586	403.363
558.638	397.731
558.691	413.572
558.743	404.038
558.795	414.942
558.847	399.168
558.899	395.914
558.951	399.706
559.003	398.071
559.055	407.249
559.108	402.766
559.16	404.029
559.212	418.327
559.264	418.128
559.316	420.02
559.368	419.634
559.42	432.338
559.472	422.293
559.525	429.307
559.577	425.665
559.629	433.344
559.681	442.63
559.733	423.429
559.785	434.478
559.837	441.454
559.889	429.516
559.941	427.043
559.994	430.415
560.046	438.064
560.098	440.715
560.15	431.247
560.202	451.069
560.254	444.38
560.306	449.837
560.358	457.825
560.41	455.867
560.463	456.733
560.515	459.316
560.567	465.996
560.619	460.272
560.671	463.282
560.723	467.859
560.775	460.367
560.827	489.66
560.879	484.802
560.932	492.201
560.984	470.963
561.036	483.756
561.088	494.759
561.14	471.1
561.192	488.955
561.244	494.135
561.296	483.383
561.348	486.872
561.4	487.379
561.453	496.148
561.505	506.779
561.557	490.904
561.609	507.717
561.661	497.788
561.713	510.265
561.765	524.449
561.817	528.405
561.869	523.13
561.921	534.573
561.974	528.054
562.026	531.235
562.078	531.205
562.13	529.448
562.182	551.23
562.234	530.927
562.286	541.275
562.338	548.477
562.39	537.053
562.442	550.462
562.494	560.581
562.547	551.6
562.599	557.553
562.651	553.675
562.703	565.028
562.755	568.394
562.807	574.938
562.859	582.96
562.911	559.782
562.963	574.538
563.015	567.089
563.067	571.897
563.12	577.373
563.172	552.722
563.224	566.416
563.276	596.711
563.328	581.328
563.38	594.807
563.432	594.604
563.484	589.783
563.536	590.575
563.588	599.833
563.64	601.288
563.692	583.444
563.744	577.127
563.797	598.863
563.849	595.216
563.901	612.964
563.953	601.577
564.005	602.494
564.057	611.334
564.109	621.261
564.161	619.512
564.213	619.549
564.265	625.74
564.317	624.882
564.369	627.167
564.421	629.731
564.474	633.839
564.526	636.703
564.578	635.3
564.63	632.457
564.682	631.591
564.734	639.061
564.786	631.367
564.838	641.31
564.89	656.921
564.942	664.867
564.994	659.735
565.046	652.15
565.098	662.123
565.15	669.836
565.202	663.389
565.255	667.811
565.307	670.664
565.359	687.873
565.411	680.12
565.463	681.955
565.515	678.201
565.567	686.728
565.619	691.223
565.671	684.367
565.723	700.574
565.775	693.687
565.827	696.467
565.879	695.403
565.931	701.466
565.983	719.841
566.035	717.766
566.087	710.698
566.139	708.603
566.192	711.807
566.244	714.004
566.296	732.606
566.348	723.967
566.4	735.504
566.452	727.2
566.504	733.66
566.556	730.943
566.608	736.768
566.66	745.847
566.712	752.814
566.764	762.372
566.816	777.425
566.868	784.664
566.92	779.548
566.972	761.338
567.024	781.175
567.076	775.844
567.128	775.413
567.18	787.187
567.232	793.91
567.285	784.522
567.337	788.843
567.389	788.668
567.441	785.971
567.493	785.38
567.545	783.91
567.597	782.095
567.649	795.528
567.701	806.81
567.753	803.539
567.805	797.421
567.857	818.014
567.909	830.612
567.961	826.09
568.013	817.739
568.065	818.178
568.117	822.186
568.169	827.533
568.221	826.513
568.273	846.18
568.325	851.192
568.377	846.953
568.429	842.29
568.481	852.212
568.533	844.19
568.585	831.448
568.637	838.098
568.69	843.667
568.742	857.489
568.794	860.632
568.846	866.163
568.898	881.494
568.95	870.878
569.002	883.259
569.054	878.897
569.106	878.552
569.158	890.468
569.21	902.444
569.262	902.412
569.314	900.489
569.366	906.28
569.418	909.186
569.47	920.751
569.522	916.693
569.574	918.352
569.626	920.027
569.678	930.941
569.73	949.619
569.782	953.097
569.834	962.235
569.886	961.386
569.938	950.708
569.99	957.421
570.042	971.26
570.094	985.172
570.146	995.799
570.198	992.22
570.25	982.538
570.302	999.85
570.354	1016.5
570.406	1012.86
570.458	1011.14
570.51	1018.69
570.562	1053.24
570.614	1056.81
570.666	1042.3
570.718	1056.9
570.77	1091.24
570.822	1085.74
570.874	1087.23
570.926	1096
570.978	1093.71
571.03	1105.67
571.082	1108.61
571.134	1121.88
571.186	1128.05
571.238	1141.96
571.29	1178.52
571.342	1184.98
571.394	1187.45
571.446	1182.6
571.498	1201.4
571.55	1225.4
571.602	1238.51
571.654	1259.9
571.706	1251.68
571.758	1245.33
571.81	1237.58
571.862	1255.55
571.914	1287.67
571.966	1311.53
572.018	1321.18
572.07	1348.35
572.122	1360.76
572.174	1355.54
572.226	1361.35
572.278	1405.69
572.33	1417.96
572.382	1430.04
572.434	1441.03
572.486	1440.97
572.538	1499.67
572.59	1519.09
572.642	1507
572.694	1525.54
572.746	1541.13
572.798	1538.08
572.85	1569.96
572.902	1625.67
572.954	1620.81
573.006	1623.99
573.058	1670.34
573.11	1716.4
573.162	1722.06
573.214	1734.49
573.266	1726.54
573.302	1760.14
573.355	1776.26
573.407	1778.62
573.459	1848
573.511	1878.03
573.563	1913.91
573.615	1947.34
573.667	1932.56
573.719	1990.6
573.772	2000.92
573.824	2050.34
573.876	2113.37
573.928	2122.06
573.98	2159.64
574.032	2154.16
574.084	2198.02
574.136	2257.7
574.188	2254.25
574.241	2296.8
574.293	2387.16
574.345	2409.21
574.397	2446.94
574.449	2504.29
574.501	2477.66
574.553	2526.04
574.605	2568.42
574.657	2634.37
574.71	2701.94
574.762	2713.1
574.814	2728.04
574.866	2811.94
574.918	2872.06
574.97	2837.27
575.022	2911.37
575.074	2997.56
575.126	2975.8
575.178	2978.15
575.231	3026.97
575.283	3107.4
575.335	3121.73
575.387	3077.96
575.439	3146.65
575.491	3203.75
575.543	3193.33
575.595	3321.54
575.647	3222.19
575.7	3299.7
575.752	3227.8
575.804	3272
575.856	3278.11
575.908	3266.9
575.96	3240.29
576.012	3260.66
576.064	3291.64
576.116	3296.16
576.168	3265.21
576.22	3270.11
576.273	3267.81
576.325	3237.81
576.377	3270.36
576.429	3214.97
576.481	3185.39
576.533	3178.67
576.585	3162.46
576.637	3129.79
576.689	3107.28
576.741	3067.95
576.793	3056.8
576.846	3037.15
576.898	3013.61
576.95	2953.37
577.002	2952.25
577.054	2876.25
577.106	2859.35
577.158	2869.67
577.21	2822.32
577.262	2807.78
577.314	2759.85
577.366	2759.55
577.418	2680.61
577.471	2665.13
577.523	2625.36
577.575	2614.84
577.627	2577.32
577.679	2574.78
577.731	2543.77
577.783	2498.62
577.835	2502.57
577.887	2483.21
577.939	2433.34
577.991	2407.4
578.043	2409.06
578.095	2370.81
578.148	2375.78
578.2	2363.1
578.252	2374.86
578.304	2326.02
578.356	2355.3
578.408	2274.4
578.46	2260.75
578.512	2234.71
578.564	2242.36
578.616	2222.01
578.668	2246.29
578.72	2204.14
578.772	2177.32
578.824	2191.02
578.877	2168.64
578.929	2149
578.981	2171.47
579.033	2140
579.085	2118.29
579.137	2125.41
579.189	2133.94
579.241	2116.15
579.293	2115.08
579.345	2073.9
579.397	2084.9
579.449	2098.3
579.501	2082.36
579.553	2077.56
579.605	2060.68
579.658	2081.3
579.71	2076.99
579.762	2063.17
579.814	2074.8
579.866	2086.33
579.918	2065.2
579.97	2042.05
580.022	2053.47
580.074	2062.89
580.126	2093.49
580.178	2075.3
580.23	2062.78
580.282	2052.91
580.334	2080.8
580.386	2079.3
580.438	2080.11
580.49	2051.49
580.542	2052.71
580.595	2064.98
580.647	2074.65
580.699	2073.01
580.751	2101.68
580.803	2071.97
580.855	2083.1
580.907	2050.87
580.959	2090.85
581.011	2062.02
581.063	2117.19
581.115	2118.18
581.167	2117.8
581.219	2131.62
581.271	2105.36
581.323	2073.19
581.375	2112.09
581.427	2106.79
581.479	2106.97
581.531	2100.75
581.583	2128.03
581.635	2128.98
581.688	2095.26
581.74	2120.69
581.792	2134.88
581.844	2170.88
581.896	2157.33
581.948	2140.03
582	2169
582.052	2144.03
582.104	2151.81
582.156	2186.25
582.208	2112.79
582.26	2163.62
582.312	2150.49
582.364	2218.81
582.416	2198.57
582.468	2157.62
582.52	2173.76
582.572	2183.59
582.624	2196.34
582.676	2193
582.728	2167.85
582.78	2241.29
582.832	2187.94
582.884	2216.29
582.936	2219.49
582.988	2236.8
583.04	2239.32
583.092	2239.38
583.144	2265.86
583.196	2225.96
583.249	2235.77
583.301	2265.21
583.353	2259.62
583.405	2277.57
583.457	2258.21
583.509	2303.92
583.561	2293.63
583.613	2304.03
583.665	2289.04
583.717	2324.11
583.769	2309.29
583.821	2353.88
583.873	2318.17
583.925	2308.87
583.977	2331.92
584.029	2364.49
584.081	2382.34
584.133	2378.78
584.185	2364.62
584.237	2366.99
584.289	2395.44
584.341	2389.18
584.393	2437.21
584.445	2420.98
584.497	2415.49
584.549	2433.63
584.601	2432.64
584.653	2485.81
584.705	2461.96
584.757	2499.4
584.809	2456.64
584.861	2438.82
584.913	2504.18
584.965	2505.74
585.017	2512.76
585.069	2525.54
585.121	2526.46
585.173	2509.02
585.225	2557.16
585.277	2561.04
585.329	2577.51
585.381	2582.57
585.433	2568.66
585.485	2583.58
585.537	2563.35
585.589	2611.27
585.641	2614.38
585.693	2606.12
585.745	2601.06
585.797	2645.83
585.849	2590.97
585.901	2656.53
585.953	2624.79
586.005	2670.5
586.057	2686.25
586.109	2701.03
586.161	2678.91
586.213	2700.83
586.265	2671.45
586.317	2688.96
586.369	2703.32
586.421	2694.76
586.473	2724.36
586.525	2746.97
586.577	2738.28
586.629	2737.9
586.681	2751.56
586.733	2745.22
586.785	2757.96
586.837	2764.13
586.889	2762.58
586.941	2763.97
586.993	2770.93
587.045	2764.43
587.097	2778.55
587.149	2765.5
587.201	2798.27
587.253	2796.46
587.305	2779.17
587.357	2812.43
587.409	2781.87
587.461	2804.13
587.513	2817.66
587.565	2814.01
587.617	2779.4
587.669	2756.12
587.721	2779.16
587.773	2840.8
587.825	2853.29
587.877	2820.38
587.929	2813.59
587.981	2827.23
588.033	2797.54
588.085	2803.93
588.137	2775.21
588.189	2845.38
588.241	2814.5
588.293	2813.22
588.345	2797.85
588.397	2833.71
588.449	2820.28
588.501	2832.04
588.552	2872.38
588.604	2823.97
588.656	2805.8
588.708	2867.23
588.76	2850.9
588.812	2878.06
588.864	2856.7
588.916	2853.22
588.968	2860.14
589.02	2889.19
589.072	2876.23
589.124	2851.8
589.176	2859.86
589.228	2871.99
589.28	2881.93
589.332	2902.15
589.384	2891.51
589.436	2869.72
589.488	2928
589.54	2893.65
589.592	2871.61
589.644	2894.88
589.696	2930.59
589.748	2939.7
589.8	2915.55
589.852	2881.17
589.904	2895.34
589.956	2902.35
590.008	2889.08
590.06	2868.62
590.112	2884.26
590.163	2882.94
590.215	2900.13
590.267	2923.68
590.319	2897.4
590.371	2875.15
590.423	2899.4
590.475	2895.27
590.527	2916.19
590.579	2933.17
590.631	2889.59
590.683	2923.27
590.735	2924.47
590.787	2913.68
590.839	2904.56
590.891	2890.39
590.943	2908.78
590.995	2940.74
591.047	2924.07
591.099	2935.18
591.151	2908.42
591.203	2890
591.254	2889
591.306	2923.52
591.358	2931.24
591.41	2931.64
591.462	2905.07
591.514	2915.76
591.566	2907.44
591.618	2870.24
591.67	2869.41
591.722	2887.58
591.774	2889.04
591.826	2870.74
591.878	2854.69
591.93	2857.28
591.982	2868.73
592.034	2887.33
592.086	2864.04
592.137	2854.31
592.189	2843.72
592.241	2836.34
592.293	2879.01
592.345	2892.56
592.397	2846
592.449	2883.53
592.501	2878.81
592.553	2872.81
592.605	2901.06
592.657	2864.94
592.709	2869.6
592.761	2862.07
592.813	2892.89
592.865	2869.44
592.916	2887.58
592.968	2895.93
593.02	2895.75
593.072	2868.46
593.124	2843.17
593.176	2869.92
593.228	2893.32
593.28	2870.68
593.332	2883.85
593.384	2889.58
593.436	2906.73
593.488	2900.32
593.54	2896.14
593.591	2895.17
593.643	2897.75
593.695	2866.9
593.747	2884.9
593.799	2894.72
593.851	2920.46
593.903	2918.31
593.955	2908.92
594.007	2925.74
594.059	2905.83
594.111	2890.67
594.163	2895.33
594.215	2916.72
594.266	2921.28
594.318	2941.23
594.37	2945.32
594.422	2924.4
594.474	2921.23
594.526	2946.15
594.578	2952.19
594.63	2916.45
594.682	2959.63
594.734	2962.86
594.786	2938.41
594.837	2925.1
594.889	2958.26
594.941	2991.47
594.993	2987.63
595.045	2960.78
595.097	2965.27
595.149	2979.26
595.201	2977.26
595.253	2963.08
595.305	2980.88
595.357	2998.37
595.408	2995.41
595.46	3028.74
595.512	3010.75
595.564	3014.11
595.616	3017.57
595.668	3014.6
595.72	3017.75
595.772	3056.79
595.824	3067.64
595.876	3057.17
595.927	3038.02
595.979	3040.65
596.031	3073.05
596.083	3075.43
596.135	3074.71
596.187	3097.92
596.239	3112.9
596.291	3104.81
596.343	3099.2
596.394	3116.68
596.446	3166.93
596.498	3159.21
596.55	3120.37
596.602	3118.18
596.654	3145.06
596.706	3164.54
596.758	3178.19
596.81	3161.27
596.862	3168.23
596.913	3185.18
596.965	3174.23
597.017	3189.88
597.069	3185.24
597.121	3198.24
597.173	3205
597.225	3211.88
597.277	3184.74
597.328	3175.55
597.38	3194.04
597.432	3212.45
597.484	3208.2
597.536	3196.41
597.588	3233.32
597.64	3240.62
597.692	3214.34
597.744	3206.38
597.795	3251.73
597.847	3265.77
597.899	3236.86
597.951	3233.14
598.003	3231.37
598.055	3248.79
598.107	3252.75
598.159	3252.14
598.21	3284.69
598.262	3271.8
598.314	3291.73
598.366	3336.28
598.418	3313.45
598.47	3297.14
598.522	3310.22
598.574	3308.41
598.625	3293.14
598.677	3288.17
598.729	3297.17
598.781	3304.18
598.833	3289.38
598.885	3312.67
598.937	3348.63
598.988	3336.41
599.04	3320.02
599.092	3342.12
599.144	3299.09
599.196	3341.02
599.248	3393.06
599.3	3381.79
599.352	3364.97
599.403	3358.1
599.455	3380.04
599.507	3355.1
599.559	3366.22
599.611	3424.18
599.663	3388.39
599.715	3321.44
599.766	3367.54
599.803	3393.98
599.855	3332.09
599.907	3326.15
599.959	3383.97
600.011	3421.43
600.063	3387.18
600.115	3419.42
600.167	3380.25
600.219	3328.96
600.271	3383.79
600.323	3433.07
600.375	3387.9
600.427	3372.24
600.479	3363.75
600.531	3388.96
600.583	3423.28
600.635	3422.15
600.686	3399.3
600.738	3382.82
600.79	3414.06
600.842	3373.44
600.894	3317.88
600.946	3454.11
600.998	3366.92
601.05	3336.19
601.102	3440.57
601.154	3439.89
601.206	3443.09
601.258	3443.77
601.31	3434.07
601.362	3389.62
601.414	3392.03
601.466	3458.62
601.518	3381.77
601.57	3401.57
601.622	3449.99
601.674	3396.77
601.726	3431.58
601.778	3442.34
601.83	3447.69
601.882	3426.16
601.934	3441.5
601.986	3512.7
602.038	3481.54
602.09	3465.48
602.142	3405.82
602.194	3484.72
602.246	3474.48
602.298	3452.34
602.35	3454.22
602.402	3485.31
602.454	3479.51
602.506	3447.08
602.558	3489.89
602.61	3492.34
602.662	3474.09
602.714	3471.4
602.766	3484.5
602.818	3486.15
602.87	3558.58
602.922	3451.68
602.974	3499.91
603.026	3508.01
603.078	3447.26
603.13	3528.13
603.182	3471.21
603.234	3526.7
603.285	3517.73
603.337	3506.49
603.389	3394.95
603.441	3538.61
603.493	3465.41
603.545	3528.5
603.597	3518.64
603.649	3539.73
603.701	3504.89
603.753	3432.35
603.805	3502.09
603.857	3529.98
603.909	3558.26
603.961	3510.32
604.013	3584.73
604.065	3461.38
604.117	3559.54
604.169	3552.48
604.221	3572.61
604.273	3594.42
604.325	3546.61
604.377	3534.17
604.429	3568.05
604.481	3577.94
604.533	3570.41
604.584	3524.23
604.636	3611.51
604.688	3540.25
604.74	3550.6
604.792	3559.98
604.844	3575.85
604.896	3558.96
604.948	3528.81
605	3562.18
605.052	3527.32
605.104	3570.22
605.156	3529.9
605.208	3588.44
605.26	3500.83
605.312	3579.58
605.364	3554.52
605.416	3513.39
605.468	3516.64
605.52	3521.39
605.572	3545.95
605.623	3556.57
605.675	3602.83
605.727	3534.13
605.779	3579.9
605.831	3563.85
605.883	3593.84
605.935	3546.06
605.987	3526.75
606.039	3534.97
606.091	3573.57
606.143	3556.8
606.195	3537.55
606.247	3539.56
606.299	3528.97
606.351	3538.56
606.403	3528.13
606.455	3567.62
606.506	3576.63
606.558	3526.95
606.61	3565.52
606.662	3566.6
606.714	3555.34
606.766	3613.09
606.818	3513.51
606.87	3527.59
606.922	3553.16
606.974	3565.63
607.026	3529.69
607.078	3561.97
607.13	3576.08
607.182	3575.81
607.234	3569.31
607.285	3577.43
607.337	3536.09
607.389	3539.12
607.441	3564.08
607.493	3595.13
607.545	3579.87
607.597	3535.26
607.649	3569.11
607.701	3558.05
607.753	3593.69
607.805	3565.48
607.857	3593.51
607.909	3630.05
607.96	3622.32
608.012	3581.9
608.064	3559.52
608.116	3585
608.168	3578.45
608.22	3576.93
608.272	3614.67
608.324	3617.75
608.376	3618.76
608.428	3578.29
608.48	3577.05
608.532	3618.7
608.583	3621.79
608.635	3619.96
608.687	3608.8
608.739	3639.32
608.791	3657.78
608.843	3628.22
608.895	3674.97
608.947	3673.44
608.999	3639.6
609.051	3621.39
609.103	3679.02
609.155	3625.13
609.206	3659.99
609.258	3651.25
609.31	3667.13
609.362	3670.08
609.414	3705.37
609.466	3696.22
609.518	3725.22
609.57	3704.51
609.622	3725.77
609.674	3750.14
609.725	3719.11
609.777	3664.47
609.829	3711.86
609.881	3743.04
609.933	3723.9
609.985	3725.63
610.037	3753.58
610.089	3755.38
610.141	3780.2
610.193	3750.71
610.245	3772.99
610.296	3720.53
610.348	3699.47
610.4	3745.89
610.452	3779.3
610.504	3779.74
610.556	3729.78
610.608	3751.1
610.66	3746.17
610.712	3759.55
610.763	3767.97
610.815	3762.47
610.867	3784.57
610.919	3795.73
610.971	3794.85
611.023	3774.02
611.075	3808.02
611.127	3778.8
611.179	3805.45
611.23	3796
611.282	3766.56
611.334	3831.58
611.386	3793.78
611.438	3807.37
611.49	3821.28
611.542	3828.02
611.594	3810.64
611.646	3793.84
611.697	3771.32
611.749	3780.82
611.801	3788.18
611.853	3783.51
611.905	3850.78
611.957	3881.76
612.009	3804.69
612.061	3859.15
612.113	3854.48
612.164	3868.63
612.216	3790.81
612.268	3877.74
612.32	3881.19
612.372	3890.82
612.424	3863.39
612.476	3902.6
612.528	3852.7
612.579	3875.55
612.631	3897.06
612.683	3846.8
612.735	3918.05
612.787	3903.82
612.839	3898.34
612.891	3945.74
612.943	3904.24
612.994	3925.34
613.046	3951.96
613.098	3927.06
613.15	3905.85
613.202	3921.11
613.254	3968.68
613.306	3968.9
613.357	3962.39
613.409	3972.77
613.461	3990.61
613.513	3980.42
613.565	3995.02
613.617	3969.06
613.669	3992.12
613.721	4004.2
613.772	4010.61
613.824	3999.41
613.876	4064.44
613.928	4038.39
613.98	4023.6
614.032	4012.22
614.084	4050.15
614.135	4053.11
614.187	4048.15
614.239	4009.35
614.291	4058.75
614.343	4027.08
614.395	4052.68
614.447	4082.06
614.498	4074.32
614.55	4068.94
614.602	4063.61
614.654	4085.67
614.706	4103.91
614.758	4114.31
614.81	4150.07
614.861	4117.92
614.913	4122.2
614.965	4138.75
615.017	4115.69
615.069	4114.4
615.121	4161.97
615.172	4118.13
615.224	4147.99
615.276	4154.81
615.328	4176.91
615.38	4187.8
615.432	4174.69
615.484	4172.89
615.535	4178.6
615.587	4178.99
615.639	4226.82
615.691	4192.13
615.743	4220.95
615.795	4184.7
615.846	4211.92
615.898	4229.62
615.95	4222.38
616.002	4255.61
616.054	4267.58
616.106	4276.44
616.158	4277.37
616.209	4266.75
616.261	4315.67
616.313	4286.36
616.365	4291.18
616.417	4308.43
616.469	4317.43
616.52	4281.31
616.572	4320.97
616.624	4340.21
616.676	4330.37
616.728	4376.27
616.78	4315.37
616.831	4329.16
616.883	4371.08
616.935	4384.36
616.987	4398.2
617.039	4373.53
617.091	4396.31
617.142	4371.78
617.194	4372.25
617.246	4396.11
617.298	4356.91
617.35	4381.05
617.401	4435.94
617.453	4465.59
617.505	4451.96
617.557	4443.8
617.609	4469.3
617.661	4461.73
617.712	4458.03
617.764	4440.66
617.816	4519.46
617.868	4463.45
617.92	4499.6
617.972	4493.09
618.023	4490.6
618.075	4491.92
618.127	4553.57
618.179	4553
618.231	4519.93
618.282	4511.58
618.334	4521.2
618.386	4548.31
618.438	4515.53
618.49	4558.43
618.542	4536.63
618.593	4594.82
618.645	4610.25
618.697	4614.66
618.749	4610.8
618.801	4566.95
618.852	4608.4
618.904	4620.62
618.956	4621.91
619.008	4582.77
619.06	4641.35
619.111	4622.4
619.163	4616.63
619.215	4677.18
619.267	4672.56
619.319	4656.45
619.37	4648.24
619.422	4651.45
619.474	4681.78
619.526	4682.57
619.578	4678.25
619.63	4706.15
619.681	4707.57
619.733	4755.58
619.785	4726.59
619.837	4704.27
619.888	4707.01
619.94	4730.53
619.992	4747.58
620.044	4707.1
620.096	4785.96
620.147	4779.82
620.199	4732.34
620.251	4784.77
620.303	4772.63
620.355	4754.59
620.406	4775.12
620.458	4807.31
620.51	4779.13
620.562	4774.49
620.614	4805.89
620.665	4766.72
620.717	4815.27
620.769	4785.42
620.821	4790.04
620.873	4841.17
620.924	4796.36
620.976	4824.02
621.028	4817.06
621.08	4815.7
621.132	4792.39
621.183	4843.14
621.235	4829.14
621.287	4864.52
621.339	4826.03
621.39	4822.48
621.442	4776.71
621.494	4805.55
621.546	4784.87
621.598	4830.29
621.649	4863.23
621.701	4835.44
621.753	4827.16
621.805	4797.36
621.856	4872.42
621.908	4900.84
621.96	4839.17
622.012	4848.57
622.064	4891.05
622.115	4902.87
622.167	4879.82
622.219	4834.33
622.271	4848.51
622.322	4932.58
622.374	4880.11
622.426	4872.74
622.478	4898.03
622.53	4873.97
622.581	4878.44
622.633	4858.48
622.685	4855.25
622.737	4886.54
622.788	4900.8
622.84	4888.61
622.892	4906.36
622.944	4918.05
622.995	4874.99
623.047	4908.26
623.099	4889.47
623.151	4943.83
623.203	4864.21
623.254	4897.3
623.306	4965.49
623.358	4893.55
623.41	4891.31
623.461	4845.39
623.513	4872.42
623.565	4950.52
623.617	4931.53
623.668	4866.48
623.72	4962.26
623.772	4952.81
623.824	4963.69
623.875	4974.63
623.927	4926.86
623.979	4962.82
624.031	4932.68
624.082	4953.38
624.134	4969.31
624.186	4898.53
624.238	4914.9
624.289	4908.28
624.341	5015.58
624.393	4906.86
624.445	4901.07
624.496	4923.2
624.548	4926.09
624.6	4952.2
624.652	4968.69
624.703	4957.07
624.755	5017.81
624.807	4993.79
624.859	5029.34
624.91	4980.39
624.962	4919.28
625.014	5003.2
625.066	4998.79
625.117	5029.84
625.169	4981.7
625.221	4990.76
625.273	4977.43
625.324	5046.86
625.376	5058.86
625.428	4955.48
625.48	5008.01
625.531	5032.61
625.583	5062.26
625.635	4999.82
625.687	5034.53
625.738	5035.26
625.79	5065.69
625.842	5000.59
625.893	5011.05
625.945	5022.48
625.997	5055.23
626.049	5079.77
626.1	5093.95
626.152	5118.19
626.204	5128.98
626.256	5142
626.307	5155.68
626.316	5157.89
626.368	5068.32
626.42	5096.4
626.472	5084.12
626.523	5181.36
626.575	5166.85
626.627	5185.6
626.679	5188.38
626.731	5154.59
626.783	5098.07
626.835	5156.77
626.887	5145.1
626.938	5089.6
626.99	5147.42
627.042	5159.65
627.094	5200.36
627.146	5143.18
627.198	5165.1
627.25	5197.96
627.302	5233.66
627.353	5194.61
627.405	5179.83
627.457	5077.84
627.509	5251.77
627.561	5205.82
627.613	5219.43
627.665	5205.96
627.716	5237.74
627.768	5237.9
627.82	5187.7
627.872	5177.37
627.924	5253.48
627.976	5215.11
628.028	5169.83
628.079	5312.24
628.131	5278.97
628.183	5244.5
628.235	5271.62
628.287	5259.64
628.339	5235.44
628.391	5284.56
628.443	5288.23
628.494	5253.87
628.546	5305.98
628.598	5350.39
628.65	5311.33
628.702	5372.56
628.754	5284.44
628.805	5193.89
628.857	5342.2
628.909	5271.75
628.961	5345.44
629.013	5300.85
629.065	5324.49
629.117	5322.68
629.168	5357.99
629.22	5362.99
629.272	5305
629.324	5352.36
629.376	5352.14
629.428	5407.02
629.479	5397.66
629.531	5445.71
629.583	5376.13
629.635	5388.37
629.687	5437.38
629.739	5437.32
629.791	5385.71
629.842	5378.89
629.894	5460.47
629.946	5457.66
629.998	5445.71
630.05	5404.99
630.102	5422.15
630.153	5469.95
630.205	5416.08
630.257	5413.55
630.309	5471.72
630.361	5520.83
630.413	5356.28
630.464	5432.25
630.516	5470.3
630.568	5574.06
630.62	5519.13
630.672	5508.36
630.724	5466.93
630.776	5450.87
630.827	5457.85
630.879	5540.58
630.931	5573.67
630.983	5545.08
631.035	5558.14
631.086	5554.55
631.138	5559.8
631.19	5535.49
631.242	5561.77
631.294	5605.53
631.346	5584.84
631.397	5543.34
631.449	5630.77
631.501	5608.47
631.553	5623.92
631.605	5563.94
631.657	5644.87
631.708	5637.9
631.76	5686.67
631.812	5611.38
631.864	5642.8
631.916	5718.41
631.967	5700.3
632.019	5707.79
632.071	5652.28
632.123	5663.2
632.175	5656.69
632.227	5750.83
632.278	5719.59
632.33	5765.53
632.382	5749.88
632.434	5733.1
632.486	5744.37
632.537	5838.65
632.589	5712.42
632.641	5799.01
632.693	5801.27
632.745	5797.56
632.797	5783.27
632.848	5861.64
632.9	5823.08
632.952	5846.93
633.004	5861.18
633.056	5835.94
633.107	5865.33
633.159	5802.95
633.211	5942.23
633.263	5925.98
633.315	5930.6
633.366	5970.9
633.418	5930.81
633.47	6001.19
633.522	5962.13
633.574	5956.55
633.625	5959.51
633.677	5939
633.729	5954.06
633.781	5916.07
633.833	5961.46
633.885	5968.33
633.936	6065.95
633.988	6030.32
634.04	6066.25
634.092	6046.63
634.143	6070.27
634.195	6147.96
634.247	6112.28
634.299	6142.15
634.351	6136.23
634.403	6128.67
634.454	6113.28
634.506	6170.3
634.558	6159.02
634.61	6173.51
634.661	6193.84
634.713	6181.31
634.765	6268.3
634.817	6288.98
634.869	6257.17
634.92	6297.74
634.972	6256.25
635.024	6297.5
635.076	6368.51
635.128	6379.07
635.179	6364.01
635.231	6426.92
635.283	6444.71
635.335	6411.16
635.387	6472.32
635.438	6513.09
635.49	6541.31
635.542	6532.69
635.594	6590.63
635.645	6571.75
635.697	6647.38
635.749	6676.37
635.801	6717.61
635.853	6733.9
635.904	6729.46
635.956	6814.7
636.008	6812.92
636.06	6899.29
636.112	6888.93
636.163	6886.57
636.215	6989.5
636.267	7017.83
636.319	7021.27
636.37	7089
636.422	7166.77
636.474	7231.88
636.526	7244.11
636.577	7363.06
636.629	7365.12
636.681	7439.23
636.733	7457.65
636.785	7474.72
636.836	7568.03
636.888	7587.31
636.94	7700.81
636.992	7690.62
637.043	7752.12
637.095	7815.27
637.147	7850.61
637.199	7882.46
637.25	7986.75
637.302	7969.6
637.354	8044.4
637.406	8103.26
637.458	8136.07
637.509	8146.75
637.561	8275.16
637.613	8258.88
637.665	8277.85
637.716	8328.04
637.768	8405.37
637.82	8446.27
637.872	8484.92
637.923	8436.43
637.975	8469.52
638.027	8501.26
638.079	8539.75
638.13	8525.36
638.182	8480.2
638.234	8557.18
638.286	8492.57
638.337	8548.36
638.389	8537.27
638.441	8539.43
638.493	8576.51
638.544	8580.78
638.596	8545.02
638.648	8488.96
638.7	8526.43
638.752	8572.73
638.803	8557.53
638.855	8472.21
638.907	8493.78
638.958	8488.23
639.01	8395.39
639.062	8392.34
639.114	8340.71
639.165	8381.44
639.217	8329.89
639.269	8270.28
639.321	8275.34
639.372	8276.44
639.424	8220.32
639.476	8154.91
639.528	8202.29
639.579	8147.92
639.631	8122.48
639.683	8123.75
639.735	8098.98
639.786	8049.58
639.838	8009.87
639.89	7975.42
639.942	8001.84
639.993	7905.03
640.045	7921.8
640.097	7866.98
640.149	7885.15
640.2	7929.49
640.252	7790.65
640.304	7823.61
640.356	7794.09
640.407	7781.52
640.459	7769.01
640.511	7746.21
640.562	7717.7
640.614	7691.99
640.666	7630.01
640.718	7636.07
640.769	7673.91
640.821	7621.43
640.873	7621.4
640.925	7580.19
640.976	7573.74
641.028	7571.79
641.08	7502.22
641.131	7555.56
641.183	7546.79
641.235	7525.65
641.287	7468.83
641.338	7503.42
641.39	7450.13
641.442	7481.68
641.494	7532.76
641.545	7474.28
641.597	7485.84
641.649	7525.13
641.7	7444.4
641.752	7466.67
641.804	7459.84
641.856	7438
641.907	7424.29
641.959	7461.12
642.011	7405.3
642.063	7425.23
642.114	7423.16
642.166	7410.22
642.218	7449.12
642.269	7433.2
642.321	7420.72
642.373	7378.4
642.424	7438.87
642.476	7429.75
642.528	7444.8
642.58	7469.57
642.631	7475.02
642.683	7436.86
642.735	7473.31
642.786	7435.53
642.838	7442.99
642.89	7426.35
642.942	7460.92
642.993	7474.97
643.045	7495.61
643.097	7480.14
643.148	7493.27
643.2	7469.28
643.252	7501.51
643.304	7555.95
643.355	7481.6
643.407	7526.83
643.459	7487.13
643.51	7475.65
643.562	7478.65
643.614	7489.47
643.665	7517.78
643.717	7531.42
643.769	7518.17
643.82	7541.65
643.872	7458.32
643.924	7526.77
643.976	7557.75
644.027	7534.49
644.079	7559.36
644.131	7539.23
644.182	7604.57
644.234	7623
644.286	7647.83
644.337	7555.36
644.389	7630.37
644.441	7608.54
644.493	7572.41
644.544	7605.18
644.596	7641.08
644.648	7670.59
644.699	7673.71
644.751	7601.12
644.803	7610.04
644.854	7646.12
644.906	7681.52
644.958	7685.63
645.009	7637.98
645.061	7662.97
645.113	7644.9
645.164	7654.37
645.216	7683.94
645.268	7595.37
645.32	7653.08
645.371	7664.66
645.423	7583.79
645.475	7718.28
645.526	7732.04
645.578	7662.1
645.63	7649.36
645.681	7726
645.733	7676.7
645.785	7737.21
645.836	7764.85
645.888	7760.17
645.94	7746.38
645.991	7792.32
646.043	7792.34
646.095	7685.67
646.146	7764.79
646.198	7822.93
646.25	7868.01
646.301	7734.92
646.353	7791.77
646.405	7747.06
646.456	7776.74
646.508	7805.8
646.56	7736.85
646.611	7821.31
646.663	7840.12
646.715	7826.79
646.766	7774.56
646.818	7918.77
646.87	7845.99
646.921	7869.68
646.973	7887.28
647.025	7885.42
647.076	7922.45
647.128	7935.34
647.18	7906.87
647.231	7952.22
647.283	7949.86
647.335	7952.96
647.386	7894.65
647.438	7898.86
647.49	7926.26
647.541	7942.18
647.593	7926.91
647.645	7924.44
647.696	7982.37
647.748	8030.29
647.8	8006.63
647.851	8014.82
647.903	7926.67
647.955	8100.54
648.006	8041.68
648.058	8029.14
648.109	7976.4
648.161	8000.56
648.213	7996.11
648.264	8009.15
648.316	7971.48
648.368	8009.73
648.419	8064.67
648.471	8116.23
648.523	8122.5
648.574	8075.03
648.626	8093.01
648.678	8104.78
648.729	7995.03
648.781	8099.75
648.833	8130.69
648.884	8127.39
648.936	8167.7
648.987	8119.47
649.039	8160.01
649.091	8199.87
649.142	8154.23
649.194	8204.92
649.246	8116.87
649.297	8169.76
649.349	8278.45
649.401	8241.45
649.452	8247.44
649.504	8293.21
649.555	8283.1
649.607	8266.72
649.659	8340.96
649.71	8330.54
649.762	8408.59
649.814	8351.36
649.865	8373.25
649.917	8348.68
649.969	8336.38
650.02	8314.92
650.072	8307.2
650.123	8307.03
650.175	8386.54
650.227	8454.87
650.278	8476.77
650.33	8448.85
650.382	8393.66
650.433	8492.3
650.485	8465.16
650.536	8546.04
650.588	8511.86
650.64	8487.54
650.691	8533.51
650.743	8465.29
650.795	8534.62
650.846	8596.46
650.898	8558.69
650.949	8604.46
651.001	8556.06
651.053	8631.46
651.104	8589.74
651.156	8598.28
651.208	8586.5
651.259	8586.32
651.311	8574.13
651.362	8637.41
651.414	8672.38
651.466	8623.97
651.517	8735.25
651.569	8715.61
651.62	8668.57
651.672	8631.84
651.724	8682.38
651.775	8718.28
651.827	8781.28
651.878	8793.24
651.93	8732.85
651.982	8653.98
652.033	8706.89
652.085	8749.35
652.137	8789.41
652.188	8788.01
652.24	8772.4
652.291	8805
652.343	8831.75
652.395	8885.12
652.446	8801.19
652.498	8790.09
652.549	8888.21
652.601	8951.12
652.653	8908.74
652.704	8882.67
652.756	8853.7
652.772	8840.84
652.824	8901.06
652.876	8923.36
652.927	8954.04
652.979	8914.77
653.031	9029.63
653.083	8980
653.134	8968.8
653.186	8960.24
653.238	8994.94
653.29	8891.1
653.341	9057.44
653.393	9086.16
653.445	9077.77
653.497	9069.88
653.548	9084.25
653.6	9185.36
653.652	9091.41
653.704	9163.03
653.755	9161.41
653.807	9133.97
653.859	9177.63
653.91	9225.42
653.962	9151.88
654.014	9250.29
654.066	9202.71
654.117	9217.54
654.169	9249.69
654.221	9130.39
654.273	9366.77
654.324	9241.28
654.376	9315.01
654.428	9347.65
654.48	9393.91
654.531	9368.34
654.583	9419.54
654.635	9295.23
654.686	9280.13
654.738	9401.54
654.79	9433.73
654.842	9543.51
654.893	9382.43
654.945	9455.04
654.997	9612.94
655.049	9571.29
655.1	9679.42
655.152	9595.48
655.204	9644.35
655.255	9661.78
655.307	9567.84
655.359	9663.9
655.411	9647.17
655.462	9671.35
655.514	9746.92
655.566	9739.79
655.618	9785.72
655.669	9757.85
655.721	9790.42
655.773	9760.16
655.824	9763.81
655.876	9814.98
655.928	9864
655.98	9835.66
656.031	9920.56
656.083	9895.98
656.135	9930.29
656.186	9939.09
656.238	9858.74
656.29	9994.76
656.342	10001.4
656.393	10052.4
656.445	9975.78
656.497	10086.9
656.548	10020.2
656.6	10030.7
656.652	10091.2
656.704	10080.5
656.755	10189.4
656.807	10137
656.859	10087.6
656.91	10152.4
656.962	10159.7
657.014	10173
657.065	10237.4
657.117	10185.7
657.169	10389.8
657.221	10383.1
657.272	10311.1
657.324	10328.1
657.376	10419
657.427	10351.5
657.479	10389.4
657.531	10322.2
657.583	10254.9
657.634	10469.3
657.686	10411
657.738	10560.3
657.789	10465.4
657.841	10531.8
657.893	10535.8
657.944	10529.7
657.996	10529.5
658.048	10464.1
658.099	10584.7
658.151	10566.4
658.203	10565.7
658.255	10562
658.306	10647.3
658.358	10601.2
658.41	10575.8
658.461	10647.7
658.513	10556
658.565	10695.8
658.616	10612.9
658.668	10676.6
658.72	10641
658.771	10636.8
658.823	10774.4
658.875	10627.6
658.927	10569.6
658.978	10539.2
659.03	10777.3
659.082	10743.7
659.133	10718.2
659.185	10726.8
659.237	10796
659.288	10718.2
659.34	10775.7
659.392	10768.4
659.443	10751.1
659.495	10822.5
659.547	10829.3
659.598	10754.4
659.65	10820.4
659.702	10738.3
659.753	10783.6
659.805	10683.4
659.857	10833
659.909	10789.6
659.96	10825.6
660.012	10837.3
660.064	10867.1
660.115	10814.3
660.167	10724.9
660.219	10884.1
660.27	10800.4
660.322	10799.8
660.374	10837.5
660.425	10832.6
660.477	10866.3
660.529	10857.7
660.58	10806.2
660.632	10830.6
660.684	10704.5
660.735	10804.7
660.787	10833.1
660.839	10798.5
660.89	10763.8
660.942	10806.5
660.994	10816.2
661.045	10913.6
661.097	10766.8
661.149	10848.3
661.2	10802.9
661.252	10817.1
661.304	10831.4
661.355	10846.2
661.407	10885.2
661.459	10878.7
661.51	10845.9
661.562	10859
661.614	10840
661.665	10794.6
661.717	10892.7
661.768	10825
661.82	10899.6
661.872	10912.1
661.923	10764.5
661.975	10838.9
662.027	10929.6
662.078	10809.6
662.13	10867.3
662.182	10850.7
662.233	10863.4
662.285	10893.7
662.337	10890.3
662.388	10880.4
662.44	10857.4
662.492	10917.9
662.543	10830.9
662.595	10818.5
662.647	10804.7
662.698	10834.6
662.75	10759.3
662.802	10877.4
662.853	10789.1
662.905	10791.6
662.956	10830.8
663.008	10894.2
663.06	10889.8
663.111	10824.5
663.163	10852.6
663.215	10798.9
663.266	10901.2
663.318	10844.9
663.37	10863.7
663.421	10875
663.473	10863.6
663.525	10929
663.576	10876.2
663.628	10808.5
663.679	10802.9
663.731	10957.8
663.783	10911.7
663.834	10859
663.886	10894.7
663.938	10832.8
663.989	10993.6
664.041	10828.4
664.093	10916.1
664.144	10862.2
664.196	10905.8
664.247	10915.8
664.299	10858.1
664.351	10890.4
664.402	10894.4
664.454	10932.8
664.506	10950.4
664.557	10907.9
664.609	10886.8
664.66	10890.2
664.712	10848.1
664.764	10854.1
664.815	10849.8
664.867	10867
664.919	10873.7
664.97	10855
665.022	10873.8
665.073	10844.7
665.125	10833.9
665.177	10905.9
665.228	10848.9
665.28	10898.3
665.332	10831.8
665.383	10796.4
665.435	10857.7
665.486	10921.6
665.538	10901.8
665.59	10871.1
665.641	10767.9
665.693	10913.6
665.745	10860
665.796	10884.8
665.848	10833.3
665.899	10773.3
665.951	10809.8
666.003	10816.6
666.054	10795.1
666.106	10851.5
666.157	10778.4
666.209	10850.9
666.261	10836.8
666.312	10781.3
666.364	10842.8
666.415	10820.4
666.467	10878.5
666.519	10782
666.57	10856.8
666.622	10757.2
666.673	10848.5
666.725	10837.3
666.777	10873
666.828	10762.5
666.88	10788.2
666.931	10782.1
666.983	10756.7
667.035	10818.1
667.086	10779.7
667.138	10709.8
667.189	10771.7
667.241	10790.7
667.293	10815
667.344	10775.8
667.396	10792.5
667.447	10847.1
667.499	10795.8
667.551	10762.2
667.602	10851.1
667.654	10751.7
667.705	10808.3
667.757	10822.8
667.809	10892.2
667.86	10776.7
667.912	10788.1
667.963	10868.5
668.015	10829.5
668.067	10800.9
668.118	10799.4
668.17	10789.2
668.221	10814.2
668.273	10776.7
668.325	10828
668.376	10805.5
668.428	10800.1
668.479	10826.9
668.531	10815.3
668.582	10765.8
668.634	10905.2
668.686	10783.4
668.737	10817
668.789	10768.8
668.84	10865.7
668.892	10757.1
668.944	10833.4
668.995	10727.2
669.047	10838.5
669.098	10739.6
669.15	10747
669.201	10748.5
669.253	10865.2
669.305	10834.2
669.356	10795.5
669.408	10751.8
669.459	10814.6
669.511	10777.4
669.562	10756
669.614	10831.8
669.666	10739.7
669.717	10814.6
669.769	10808.7
669.82	10783.9
669.872	10758.3
669.923	10757.9
669.975	10810.6
670.027	10812.1
670.078	10752.5
670.13	10792.2
670.181	10841.7
670.233	10812.1
670.284	10743.4
670.336	10847.9
670.388	10828.4
670.439	10848.7
670.491	10752.6
670.542	10816.6
670.594	10793.7
670.645	10826.3
670.697	10780.5
670.748	10816.1
670.8	10873.1
670.852	10858.3
670.903	10778.3
670.955	10662.7
671.006	10761.9
671.058	10766.1
671.109	10800.8
671.161	10849.3
671.212	10797.2
671.264	10763.8
671.316	10807.2
671.367	10840.9
671.419	10833.2
671.47	10793.2
671.522	10782.8
671.573	10880.7
671.625	10762.7
671.676	10797.4
671.728	10812.9
671.78	10780.9
671.831	10807.3
671.883	10847.8
671.934	10777.3
671.986	10844.3
672.037	10885.2
672.089	10822.1
672.14	10820.3
672.192	10810.3
672.243	10881.6
672.295	10880.3
672.347	10856.7
672.398	10894.2
672.45	10837
672.501	10899.2
672.553	10897.7
672.604	10969.3
672.656	10923.1
672.707	10890.1
672.759	10972.5
672.81	10852.3
672.862	10904.9
672.913	10922
672.965	11004.8
673.017	10948.9
673.068	10956.9
673.12	10930.7
673.171	10993.6
673.223	11071.3
673.274	11008.6
673.326	11015.9
673.377	11032
673.429	11043.2
673.48	11086.4
673.532	11082.7
673.583	11107.6
673.635	11068
673.686	11077.9
673.738	11068.1
673.789	11094.1
673.841	11094.5
673.893	11106.8
673.944	11087.3
673.996	11102.7
674.047	11120.9
674.099	11185.9
674.15	11187.1
674.202	11152.3
674.253	11176
674.305	11185.8
674.356	11257.8
674.408	11256.8
674.459	11217.7
674.511	11209.9
674.562	11195.2
674.614	11176.7
674.665	11273.2
674.717	11285.7
674.768	11348.4
674.82	11375.6
674.871	11353.4
674.923	11289.2
674.974	11368.9
675.026	11379.7
675.077	11369.4
675.129	11349.5
675.18	11288.2
675.232	11324.9
675.284	11360.8
675.335	11359.4
675.387	11358.4
675.438	11393.8
675.49	11366.7
675.541	11444.8
675.593	11458
675.644	11419.1
675.696	11469.6
675.747	11479.6
675.799	11375.5
675.85	11445.9
675.902	11513.8
675.953	11415.2
676.005	11453.4
676.056	11489.2
676.108	11423.9
676.159	11406.2
676.211	11521.6
676.262	11542.5
676.314	11545
676.365	11512.1
676.417	11564.1
676.468	11527.7
676.52	11506.1
676.571	11480.3
676.623	11489.9
676.674	11566.9
676.726	11517.8
676.777	11511.7
676.828	11479.3
676.88	11488.3
676.932	11500
676.983	11525.8
677.034	11555.8
677.086	11535.2
677.137	11488.5
677.189	11504.2
677.24	11585.1
677.292	11633.4
677.343	11541.3
677.395	11524.5
677.446	11550.4
677.498	11533.1
677.549	11501.4
677.601	11436.7
677.652	11557.5
677.704	11524.5
677.755	11511.3
677.807	11538.3
677.858	11495.5
677.91	11519.4
677.961	11516.8
678.013	11468.1
678.064	11470.9
678.116	11551.3
678.167	11594
678.219	11589.7
678.27	11556
678.322	11515.3
678.373	11474.5
678.424	11484.2
678.476	11541.8
678.527	11538.8
678.579	11555.1
678.63	11590.8
678.682	11488.4
678.733	11466.7
678.785	11505.3
678.836	11499.6
678.888	11522.2
678.939	11468.1
678.991	11445.1
679.042	11407.7
679.094	11451.1
679.122	11600.5
679.173	11507
679.225	11459
679.277	11565.3
679.328	11439.3
679.38	11524.5
679.432	11601
679.483	11562.2
679.535	11490.5
679.586	11550.7
679.638	11539.5
679.69	11579.2
679.741	11566.9
679.793	11548.6
679.844	11519.8
679.896	11618.9
679.948	11531.9
679.999	11529.1
680.051	11713.5
680.103	11662.2
680.154	11696.1
680.206	11604.5
680.257	11587.1
680.309	11566.7
680.361	11640.2
680.412	11548.4
680.464	11583.7
680.515	11554.3
680.567	11686.9
680.619	11704.5
680.67	11758
680.722	11706.7
680.773	11649.2
680.825	11662.9
680.877	11636.9
680.928	11656.3
680.98	11569.1
681.031	11748.6
681.083	11701.8
681.135	11634.8
681.186	11778.5
681.238	11691.3
681.289	11675.1
681.341	11715.1
681.393	11726
681.444	11694
681.496	11770.4
681.547	11894.1
681.599	11831.2
681.651	11749.7
681.702	11836.9
681.754	11825.1
681.805	11787.3
681.857	11808.3
681.909	11807.5
681.96	11810.3
682.012	11721.5
682.063	11856.8
682.115	11777
682.166	11820.5
682.218	11884.7
682.27	11891.7
682.321	11900.7
682.373	11832.7
682.424	11855.5
682.476	11865
682.528	11828.1
682.579	11905.9
682.631	11884.7
682.682	11894
682.734	11934.1
682.785	11920.5
682.837	11928.5
682.889	11798.2
682.94	11996.3
682.992	11963.9
683.043	11949.4
683.095	11891.8
683.146	11865.3
683.198	11889.6
683.25	11962.5
683.301	11896.4
683.353	11933.9
683.404	11927.1
683.456	11900.2
683.508	11861.5
683.559	11759.2
683.611	11871.7
683.662	11863.7
683.714	11875.1
683.765	11947.9
683.817	11912.4
683.869	11866.5
683.92	11926.3
683.972	11918.9
684.023	11949.4
684.075	11826.1
684.126	11834.7
684.178	11869.4
684.229	11833.8
684.281	11730.8
684.333	11762.4
684.384	11861
684.436	11808.3
684.487	11882
684.539	11839.7
684.59	11852.3
684.642	11817.3
684.694	11771.3
684.745	11759.8
684.797	11825.2
684.848	11692.2
684.9	11771.4
684.951	11787.9
685.003	11760.8
685.055	11788.9
685.106	11797.7
685.158	11791.5
685.209	11762
685.261	11707.3
685.312	11737.8
685.364	11742.5
685.415	11742.5
685.467	11671.1
685.518	11769.2
685.57	11717.5
685.622	11754.1
685.673	11667.1
685.725	11763.4
685.776	11670.7
685.828	11716.7
685.879	11750.4
685.931	11778.5
685.982	11639.7
686.034	11648
686.086	11726.4
686.137	11701.6
686.189	11643.7
686.24	11757.7
686.292	11711
686.343	11752
686.395	11670
686.446	11580.3
686.498	11681.3
686.549	11630.4
686.601	11625.6
686.652	11586.5
686.704	11704.5
686.756	11635.1
686.807	11603.5
686.859	11594.6
686.91	11699.4
686.962	11579.8
687.013	11525.8
687.065	11653.5
687.116	11615.2
687.168	11501
687.219	11552.5
687.271	11598.3
687.322	11613.9
687.374	11577.8
687.426	11628.1
687.477	11583.9
687.529	11541.2
687.58	11551.1
687.632	11588.7
687.683	11479
687.735	11534.5
687.786	11593.7
687.838	11584.9
687.889	11563.9
687.941	11583.7
687.992	11596.6
688.044	11535.6
688.095	11538.5
688.147	11616.6
688.198	11558.7
688.25	11582.8
688.302	11500.4
688.353	11672.7
688.405	11542
688.456	11578.5
688.508	11553.4
688.559	11542.6
688.611	11592
688.662	11540.3
688.714	11593.7
688.765	11563.2
688.817	11523.2
688.868	11509
688.92	11511.6
688.971	11478.9
689.023	11551.4
689.074	11556.1
689.126	11480.5
689.177	11551.3
689.229	11492.4
689.28	11535.9
689.332	11513.5
689.383	11598.9
689.435	11473.3
689.486	11487.9
689.538	11536.2
689.589	11515.3
689.641	11446.2
689.692	11451.4
689.744	11500.2
689.795	11512.2
689.847	11518.3
689.898	11542.2
689.95	11465.1
690.001	11465.1
690.053	11525.7
690.104	11495
690.156	11454
690.207	11493.1
690.259	11531.4
690.31	11412.8
690.362	11399.5
690.413	11538.8
690.465	11401.2
690.516	11475.8
690.568	11414.9
690.619	11357.8
690.671	11438.4
690.722	11333
690.774	11466.5
690.825	11344.5
690.877	11371.5
690.928	11452
690.98	11401.8
691.031	11378.9
691.083	11353
691.134	11313.3
691.186	11363.9
691.237	11368.1
691.289	11366.9
691.34	11356.4
691.392	11304.6
691.443	11271.3
691.495	11343.6
691.546	11267
691.598	11333.7
691.649	11277.9
691.701	11255
691.752	11309.3
691.804	11266.7
691.855	11313.4
691.907	11227.6
691.958	11232.6
692.01	11234.6
692.061	11261.4
692.113	11254.7
692.164	11173.3
692.216	11199.9
692.267	11177.5
692.319	11199.7
692.37	11171.4
692.421	11106.6
692.473	11175.2
692.524	11204.6
692.576	11225.1
692.627	11114.1
692.679	11098.7
692.73	11231.1
692.782	11209.2
692.833	11105.5
692.885	11152.2
692.936	11066.7
692.988	11058.3
693.039	11107.9
693.091	11113.2
693.142	11075.4
693.194	11048.6
693.245	11068.5
693.297	11086.4
693.348	11131.1
693.399	11098.1
693.451	11134.1
693.502	11086.6
693.554	10999.3
693.605	11047.4
693.657	11037.7
693.708	11027.2
693.76	11020.2
693.811	11045.1
693.863	11020.1
693.914	11027.3
693.966	10982.4
694.017	11054.8
694.068	10902.4
694.12	11028.5
694.171	11054.4
694.223	11009.1
694.274	11013.8
694.326	10885.4
694.377	10912.3
694.429	11003.5
694.48	10952
694.532	10976.7
694.583	10976.3
694.634	10968.1
694.686	11021.2
694.737	10966.5
694.789	10982.2
694.84	10877.4
694.892	10933.6
694.943	10960.2
694.995	10926.4
695.046	10916.5
695.097	10960.9
695.149	10920.8
695.2	10910
695.252	10934.4
695.303	10889.5
695.355	10931.4
695.406	10920.9
695.458	10943.1
695.509	10882.2
695.56	10920.1
695.612	10845.6
695.663	10835.9
695.715	10833.3
695.766	10827.3
695.818	10813.6
695.869	10831.9
695.921	10807.2
695.972	10801.8
696.023	10883.7
696.075	10864.9
696.126	10793.1
696.178	10795.5
696.229	10849.9
696.281	10784.6
696.332	10808.8
696.383	10784.6
696.435	10831.3
696.486	10812.5
696.538	10795.6
696.589	10759.9
696.641	10777.9
696.692	10817.7
696.744	10747.1
696.795	10744.8
696.846	10740.8
696.898	10768.9
696.949	10731.8
697.001	10726
697.052	10694.5
697.104	10690
697.155	10710
697.206	10579.1
697.258	10565
697.309	10672.9
697.361	10682.3
697.412	10641.1
697.463	10661.9
697.515	10615.2
697.566	10578.3
697.618	10629.3
697.669	10574.4
697.721	10657.1
697.772	10565.3
697.823	10600.9
697.875	10564.3
697.926	10567.8
697.978	10545.7
698.029	10569.6
698.08	10460.1
698.132	10484
698.183	10473.2
698.235	10547.3
698.286	10499.6
698.338	10491.2
698.389	10499.9
698.44	10437.8
698.492	10433.7
698.543	10438.6
698.595	10380.3
698.646	10415.3
698.697	10462.9
698.749	10447.8
698.8	10412
698.852	10390
698.903	10393
698.954	10436.9
699.006	10392.9
699.057	10398.8
699.109	10371.7
699.16	10349.3
699.211	10352.4
699.263	10263.7
699.314	10259.7
699.366	10310.9
699.417	10322.5
699.468	10377.5
699.52	10279.8
699.571	10270.1
699.623	10335.1
699.674	10292.1
699.725	10261.8
699.777	10286.7
699.828	10322.5
699.88	10340.9
699.931	10267.1
699.982	10245.5
700.034	10317.5
700.085	10257.2
700.137	10289.8
700.188	10287.3
700.239	10239
700.291	10269.8
700.342	10250.7
700.393	10237
700.445	10277.7
700.496	10251.5
700.548	10250.1
700.599	10220.2
700.65	10233.4
700.702	10221.9
700.753	10228.4
700.805	10206.5
700.856	10257.6
700.907	10275
700.959	10257.4
701.01	10277.7
701.061	10266
701.113	10258.1
701.164	10214.5
701.216	10173.4
701.267	10161.1
701.318	10230.2
701.37	10283.1
701.421	10280.5
701.472	10266
701.524	10294.8
701.575	10219.8
701.627	10147.9
701.678	10221.9
701.729	10184.8
701.781	10199.5
701.832	10193.7
701.883	10202.1
701.935	10190.9
701.986	10236
702.038	10274.6
702.089	10277.8
702.14	10214.4
702.192	10225.3
702.243	10218.7
702.294	10198.2
702.346	10223.5
702.397	10200
702.448	10202.6
702.5	10233.9
702.551	10245.9
702.603	10213.2
702.654	10258.8
702.705	10275.2
702.757	10237.4
702.808	10176
702.859	10113.1
702.911	10194.9
702.962	10295.3
703.013	10322.9
703.065	10309.2
703.116	10257.2
703.167	10253.8
703.219	10196.6
703.27	10214.3
703.322	10225.3
703.373	10168.2
703.424	10160.9
703.476	10158.6
703.527	10155.2
703.578	10154.3
703.63	10172.8
703.681	10143.5
703.732	10111.1
703.784	10153.6
703.835	10159.6
703.886	10134.1
703.938	10184.1
703.989	10198.5
704.04	10159.1
704.092	10139.2
704.143	10080.7
704.194	10104.5
704.246	10153.8
704.297	10087.1
704.348	10063
704.4	10107.3
704.451	10102.3
704.503	10121.9
704.554	10062.1
704.605	10021.1
704.656	10030.6
704.708	10040.1
704.759	10050.6
704.81	10035.1
704.862	10029
704.913	9995.36
704.964	9963.8
705.016	9959.12
705.067	9984.82
705.119	9992.91
705.17	10018.3
705.221	10042.5
705.273	10006.7
705.324	9916.11
705.375	9915.62
705.408	10002
705.459	9976
705.511	9882.23
705.562	9908.48
705.614	9946.75
705.665	9837.86
705.717	9902.03
705.768	9939.33
705.82	9891.8
705.871	9910.48
705.923	9835.71
705.974	9877.82
706.026	9791.66
706.077	9867.3
706.129	9717.51
706.18	9811.58
706.232	9845.99
706.283	9766.93
706.335	9780.94
706.386	9798.6
706.438	9806.51
706.489	9759.04
706.541	9745.05
706.592	9812.17
706.643	9737.15
706.695	9737.02
706.746	9765.37
706.798	9663.74
706.849	9677.58
706.901	9781.75
706.952	9630.58
707.004	9587.55
707.055	9627.13
707.107	9661.43
707.158	9589.97
707.21	9722.43
707.261	9677.13
707.313	9500.83
707.364	9519.45
707.416	9621.83
707.467	9598.96
707.518	9596.55
707.57	9577.53
707.621	9631.27
707.673	9617.63
707.724	9642.55
707.776	9631.13
707.827	9564.95
707.879	9549.53
707.93	9557.81
707.982	9589.05
708.033	9507.86
708.084	9534.04
708.136	9514.05
708.187	9455.63
708.239	9602.56
708.29	9578.85
708.342	9472.88
708.393	9568.41
708.445	9448.23
708.496	9544.3
708.548	9468.65
708.599	9486.19
708.651	9480.25
708.702	9447.42
708.753	9491.62
708.805	9515.42
708.856	9475.17
708.908	9434.03
708.959	9486.55
709.011	9333.89
709.062	9502.3
709.114	9541.32
709.165	9387.51
709.216	9368.86
709.268	9339.57
709.319	9467.95
709.371	9339.91
709.422	9418.21
709.474	9479.76
709.525	9362.87
709.577	9421.51
709.628	9371.27
709.679	9325.91
709.731	9348.91
709.782	9406.37
709.834	9399
709.885	9444.72
709.937	9376.31
709.988	9341.9
710.039	9320.48
710.091	9340.48
710.142	9329.87
710.194	9312.79
710.245	9361.03
710.297	9318.32
710.348	9420.2
710.4	9313.72
710.451	9447.83
710.502	9329.03
710.554	9286.23
710.605	9279.73
710.657	9332.11
710.708	9217.12
710.76	9321.25
710.811	9281.25
710.862	9273.89
710.914	9221.12
710.965	9211.77
711.017	9296.39
711.068	9308
711.12	9263.76
711.171	9230.52
711.222	9166.13
711.274	9175.82
711.325	9242.49
711.377	9233.69
711.428	9183.49
711.479	9113.51
711.531	9150.62
711.582	9189
711.634	9221.67
711.685	9225.57
711.737	9082.5
711.788	9153.48
711.839	9124.92
711.891	9113.43
711.942	9084
711.994	9050.09
712.045	9062.37
712.096	9092.23
712.148	9087.94
712.199	9047.5
712.251	8997.83
712.302	9081.31
712.354	9009.43
712.405	8967.95
712.456	9066.21
712.508	8987.26
712.559	8972.11
712.611	8979.83
712.662	8981.14
712.713	8985.47
712.765	8985.48
712.816	8941.54
712.868	8919.41
712.919	8891.16
712.97	8892.38
713.022	8899.57
713.073	8950.98
713.125	8888.14
713.176	8850.52
713.227	8885.36
713.279	8901.64
713.33	8873.45
713.382	8834.37
713.433	8874.82
713.484	8868.1
713.536	8806.63
713.587	8818.87
713.639	8875.55
713.69	8743.35
713.741	8812.26
713.793	8728.52
713.844	8815.68
713.896	8720.61
713.947	8719.56
713.998	8694.26
714.05	8709.69
714.101	8708.85
714.153	8705.72
714.204	8695.21
714.255	8678.09
714.307	8661.22
714.358	8705.3
714.41	8644.62
714.461	8605.4
714.512	8607.13
714.564	8639.88
714.615	8636.92
714.666	8550.1
714.718	8566.26
714.769	8583.21
714.821	8583.55
714.872	8609.17
714.923	8539.54
714.975	8636.11
715.026	8548.7
715.078	8480.78
715.129	8549.85
715.18	8559
715.232	8496.19
715.283	8500.09
715.334	8504.86
715.386	8509.25
715.437	8501.03
715.489	8553.63
715.54	8507.97
715.591	8474.68
715.643	8448.26
715.694	8505.74
715.745	8426.01
715.797	8456.83
715.848	8373.16
715.9	8397.98
715.951	8467.74
716.002	8427.8
716.054	8404.09
716.105	8408.83
716.156	8397.73
716.208	8409.9
716.259	8388.87
716.31	8308.4
716.362	8343.59
716.413	8344.46
716.465	8341.46
716.516	8367.77
716.567	8346.2
716.619	8348.11
716.67	8357.85
716.721	8386.79
716.773	8338.06
716.824	8287.31
716.875	8277.37
716.927	8322.72
716.978	8311.7
717.03	8253.73
717.081	8364.27
717.132	8316.42
717.184	8333.71
717.235	8305.68
717.286	8323.74
717.338	8264.12
717.389	8272.46
717.44	8243.8
717.492	8356.86
717.543	8303.54
717.594	8224.27
717.646	8269.47
717.697	8243.54
717.749	8221.72
717.8	8273.02
717.851	8196.77
717.903	8219.19
717.954	8192.33
718.005	8217.76
718.057	8240.86
718.108	8214.06
718.159	8242.71
718.211	8228.42
718.262	8170.85
718.313	8201.75
718.365	8101.19
718.416	8089.11
718.467	8076.73
718.519	8098.19
718.57	8122.46
718.621	8168.43
718.673	8161.59
718.724	8177.18
718.775	8144.47
718.827	8124.02
718.878	8061.97
718.93	8081.06
718.981	8057.18
719.032	8042.78
719.083	8063.99
719.135	8087.33
719.186	8077.54
719.237	8083.59
719.289	8053.37
719.34	8015.28
719.391	8020.14
719.443	8047.67
719.494	7991.9
719.545	7996.41
719.597	7992.29
719.648	7990.82
719.699	7998.8
719.751	7971.85
719.802	7972.41
719.853	7907.65
719.905	7948.32
719.956	7977.2
720.007	7933.04
720.059	7968.39
720.11	7947.65
720.161	7946.7
720.213	7903.43
720.264	7903.47
720.315	7885.27
720.367	7885.68
720.418	7861.33
720.469	7872.52
720.521	7851.65
720.572	7856.58
720.623	7807.27
720.675	7836.44
720.726	7804.65
720.777	7873.62
720.829	7809.04
720.88	7779.25
720.931	7809.19
720.982	7806.88
721.034	7794
721.085	7758.35
721.136	7776.36
721.188	7756.92
721.239	7738.15
721.29	7703.18
721.342	7681.09
721.393	7703.66
721.444	7712.82
721.496	7667.29
721.547	7691.9
721.598	7661.53
721.65	7684.13
721.701	7688.13
721.752	7693.87
721.803	7689.15
721.855	7635.4
721.906	7653.2
721.957	7640.6
722.009	7644.78
722.06	7617.27
722.111	7646.85
722.163	7616.08
722.214	7569.38
722.265	7582.92
722.316	7622.44
722.368	7590.85
722.419	7549.76
722.47	7553.84
722.522	7557.96
722.573	7558.93
722.624	7506.08
722.676	7493.17
722.727	7480.8
722.778	7519.57
722.829	7494.08
722.881	7429.07
722.932	7424.83
722.983	7507.52
723.035	7461.28
723.086	7463.68
723.137	7482.62
723.188	7466.54
723.24	7467.29
723.291	7491.52
723.342	7457.3
723.394	7419.86
723.445	7464.4
723.496	7442.17
723.547	7367.88
723.599	7416.36
723.65	7430.62
723.701	7446.81
723.753	7453.07
723.804	7393.28
723.855	7380.07
723.906	7384.26
723.958	7411.8
724.009	7392.21
724.06	7380.19
724.112	7389.91
724.163	7400.83
724.214	7366.63
724.265	7362.82
724.317	7333.2
724.368	7332.68
724.419	7347.72
724.47	7336.93
724.522	7305.22
724.573	7304.43
724.624	7298.29
724.676	7290.17
724.727	7307.83
724.778	7275.34
724.829	7281
724.881	7296.08
724.932	7264.16
724.983	7323.23
725.034	7336.55
725.086	7288.07
725.137	7270.9
725.188	7291.66
725.24	7294.17
725.291	7237.48
725.342	7228.46
725.393	7253.08
725.445	7255.7
725.496	7252.29
725.547	7218.21
725.598	7249.5
725.65	7210.09
725.701	7195.12
725.752	7195.99
725.803	7165.86
725.855	7164.28
725.906	7214.45
725.957	7241.09
726.008	7205.15
726.06	7191.75
726.111	7226.35
726.162	7168.34
726.213	7169.53
726.265	7215.72
726.316	7200.32
726.367	7175.63
726.418	7150.53
726.47	7100.46
726.521	7132.66
726.572	7094.45
726.623	7086.79
726.675	7087.79
726.726	7134.07
726.777	7132.95
726.828	7101.62
726.88	7116.75
726.931	7091.31
726.982	7076.45
727.033	7057.38
727.085	7051.56
727.136	7050.99
727.187	7034.18
727.238	7007.88
727.29	7034.58
727.341	7070.96
727.392	6977.52
727.443	7053
727.495	7019.02
727.546	7070.06
727.597	7024.26
727.648	6964.66
727.7	6933.59
727.751	6971.73
727.802	7017.8
727.853	7014.22
727.904	6929.96
727.956	7012.91
728.007	6943.54
728.058	6929.61
728.109	6930.09
728.161	6921.15
728.212	6946.93
728.263	6911.57
728.314	6941.14
728.366	6950.46
728.417	6876.08
728.468	6853.64
728.519	6821.46
728.57	6892.98
728.622	6820.86
728.673	6781.71
728.724	6794.38
728.775	6766.9
728.827	6855.98
728.878	6845.22
728.929	6830.32
728.98	6747.07
729.031	6698.22
729.083	6774.15
729.134	6793.03
729.185	6692.29
729.236	6731.06
729.288	6704.69
729.339	6753.55
729.39	6746.06
729.441	6667.22
729.492	6762.98
729.544	6705.67
729.595	6731.08
729.646	6682.1
729.697	6655.8
729.748	6697.83
729.8	6639.97
729.851	6664.44
729.902	6660.69
729.953	6646.67
730.004	6569.46
730.056	6578.85
730.107	6621.8
730.158	6616.73
730.209	6608.1
730.26	6639.15
730.312	6529.88
730.363	6495.26
730.414	6556.34
730.465	6514.58
730.517	6463.29
730.568	6452.25
730.619	6489.56
730.67	6447.57
730.721	6412.23
730.773	6446.78
730.824	6500.41
730.875	6441.52
730.926	6459.15
730.977	6507.53
731.029	6497.04
731.08	6385.86
731.131	6491.3
731.182	6522.42
731.233	6416.02
731.284	6488.91
731.336	6358.72
731.387	6397.96
731.438	6428.49
731.489	6452.33
731.54	6369.61
731.592	6416.64
731.643	6388.42
731.643	6388
731.694	6334
731.746	6384
731.797	6396.19
731.848	6446.4
731.9	6348.76
731.951	6376.7
732.002	6296.56
732.054	6370.33
732.105	6313.32
732.156	6347.31
732.208	6384.66
732.259	6237.21
732.311	6346.31
732.362	6415.1
732.413	6346.34
732.465	6315.23
732.516	6282.98
732.567	6310.19
732.619	6338.63
732.67	6317.11
732.721	6317.72
732.773	6395.37
732.824	6330.58
732.875	6407.76
732.927	6383.91
732.978	6304.01
733.029	6339.81
733.081	6318.48
733.132	6299.29
733.183	6337.15
733.235	6359.8
733.286	6295.54
733.337	6360.62
733.389	6359.46
733.44	6331.64
733.491	6363.21
733.543	6268.73
733.594	6412.04
733.645	6322.31
733.697	6358.41
733.748	6367.47
733.799	6431.37
733.851	6363.48
733.902	6364.72
733.953	6396.04
734.005	6398.63
734.056	6378.5
734.107	6473.39
734.158	6426.79
734.21	6466.19
734.261	6490.94
734.312	6435.41
734.364	6445.82
734.415	6463.82
734.466	6513.6
734.518	6512.34
734.569	6349.92
734.62	6370.45
734.672	6414.63
734.723	6469.39
734.774	6491.23
734.826	6440.68
734.877	6468.87
734.928	6481.03
734.98	6484.61
735.031	6500.34
735.082	6453.31
735.133	6532.28
735.185	6606.04
735.236	6560.39
735.287	6610.88
735.339	6534.02
735.39	6594.97
735.441	6651.95
735.493	6613.22
735.544	6603.8
735.595	6657.75
735.647	6630.69
735.698	6626.74
735.749	6674.53
735.8	6651.69
735.852	6758.94
735.903	6726.91
735.954	6761.47
736.006	6771.27
736.057	6797.8
736.108	6770.1
736.16	6853.42
736.211	6883.71
736.262	6893.53
736.313	6900.95
736.365	6992.56
736.416	6957
736.467	6934.7
736.519	7028.2
736.57	7038.82
736.621	7075.36
736.673	7007.27
736.724	7051.64
736.775	7047.08
736.826	7107.52
736.878	7115.07
736.929	7137.06
736.98	7174
737.032	7203.3
737.083	7197.67
737.134	7279.19
737.185	7348.02
737.237	7377.9
737.288	7332.64
737.339	7378.38
737.391	7371.55
737.442	7413.79
737.493	7424.01
737.544	7479.99
737.596	7455.34
737.647	7558.64
737.698	7570.68
737.75	7560.51
737.801	7585.79
737.852	7620.05
737.903	7686.83
737.955	7620.86
738.006	7679.5
738.057	7565.86
738.109	7613.22
738.16	7704.68
738.211	7649.96
738.262	7703.79
738.314	7670.72
738.365	7770.15
738.416	7661.2
738.468	7661.03
738.519	7635.89
738.57	7649.78
738.621	7624.24
738.673	7607.37
738.724	7626.23
738.775	7620.84
738.826	7567.5
738.878	7655.12
738.929	7542.66
738.98	7580.19
739.031	7512.99
739.083	7489.3
739.134	7499.97
739.185	7385.66
739.237	7328.27
739.288	7364.98
739.339	7355.78
739.39	7369.8
739.442	7364.32
739.493	7227.2
739.544	7171.98
739.595	7241.95
739.647	7170.5
739.698	7189.55
739.749	7133.81
739.8	7065.19
739.852	7013.06
739.903	7028.92
739.954	6979.35
740.005	6949.06
740.057	6963.88
740.108	6828.75
740.159	6855.85
740.211	6805.88
740.262	6790.84
740.313	6752.72
740.364	6747.17
740.416	6698.43
740.467	6698.76
740.518	6679.64
740.569	6638.1
740.621	6632.62
740.672	6560.79
740.723	6581.81
740.774	6542.85
740.826	6524.27
740.877	6506.8
740.928	6470.64
740.979	6418.93
741.031	6437.17
741.082	6388.86
741.133	6395.59
741.184	6363.94
741.235	6355.23
741.287	6301.08
741.338	6251.09
741.389	6259.08
741.44	6269.9
741.492	6265.76
741.543	6201.29
741.594	6176.09
741.645	6150.09
741.697	6167.89
741.748	6147.49
741.799	6162.62
741.85	6120.04
741.902	6013.71
741.953	6022.83
742.004	6061.66
742.055	6049.13
742.107	6047.23
742.158	5987.76
742.209	5985.14
742.26	5966.78
742.311	5978.67
742.363	5890.69
742.414	5943.94
742.465	5945.27
742.516	5840.7
742.568	5887.05
742.619	5823.97
742.67	5895.28
742.721	5877.25
742.773	5818.11
742.824	5767.43
742.875	5823.82
742.926	5757.86
742.977	5729.07
743.029	5786.99
743.08	5782.49
743.131	5749.96
743.182	5724.91
743.234	5759.29
743.285	5707.34
743.336	5718.63
743.387	5728.92
743.438	5711.34
743.49	5644.65
743.541	5718.26
743.592	5652.48
743.643	5589.21
743.694	5645.41
743.746	5643.98
743.797	5631.67
743.848	5573.43
743.899	5650.32
743.951	5565.36
744.002	5514.22
744.053	5560.76
744.104	5501.15
744.155	5539.78
744.207	5551.88
744.258	5474.97
744.309	5512.84
744.36	5516.01
744.411	5520.38
744.463	5494.3
744.514	5466.1
744.565	5479.56
744.616	5488.62
744.667	5453.23
744.719	5413.66
744.77	5443.62
744.821	5451
744.872	5424.25
744.923	5426.59
744.975	5414.6
745.026	5402.07
745.077	5396.81
745.128	5385.71
745.179	5402.77
745.231	5386.64
745.282	5424.17
745.333	5359.78
745.384	5342.85
745.435	5356.85
745.487	5315.97
745.538	5302.68
745.589	5316.1
745.64	5343.87
745.691	5338.95
745.743	5282.09
745.794	5301.65
745.845	5311.47
745.896	5281.4
745.947	5242.02
745.998	5293.88
746.05	5250.6
746.101	5279.72
746.152	5239.74
746.203	5218.52
746.254	5203.92
746.306	5243.1
746.357	5214
746.408	5173.68
746.459	5170.37
746.51	5209.01
746.562	5157.1
746.613	5186.49
746.664	5186.49
746.715	5194.49
746.766	5174.97
746.817	5190.3
746.869	5169.81
746.92	5157.93
746.971	5156.02
747.022	5097.32
747.073	5072.12
747.125	5104.47
747.176	5123.73
747.227	5125.09
747.278	5127.26
747.329	5089.27
747.38	5089.31
747.432	5100.4
747.483	5052.46
747.534	5095.86
747.585	5113.79
747.636	5076.11
747.687	5100.54
747.739	5066.85
747.79	5072.22
747.841	5043.47
747.892	5003.86
747.943	5024.74
747.994	5059.29
748.046	5086.42
748.097	5043.47
748.148	5003.35
748.199	4997.68
748.25	5014
748.301	5029.41
748.352	5036.46
748.404	5028
748.455	5004.67
748.506	4999.01
748.557	5051.6
748.608	4995.27
748.659	5008.58
748.711	4986.52
748.762	4989.72
748.813	4940.43
748.864	4961.36
748.915	4961.52
748.966	4994.48
749.018	4988.31
749.069	4980.97
749.12	4936.95
749.171	4923.99
749.222	4932.05
749.273	4945.81
749.324	4914.61
749.376	4874.52
749.427	4907.73
749.478	4907.78
749.529	4891.21
749.58	4929.03
749.631	4933.33
749.682	4913.37
749.734	4877.8
749.785	4849.08
749.836	4851.18
749.887	4901.12
749.938	4843.39
749.989	4880.08
750.04	4911
750.092	4857.36
750.143	4866.54
750.194	4854.68
750.245	4845.15
750.296	4851.76
750.347	4841.08
750.398	4821.84
750.45	4817.14
750.501	4841.4
750.552	4769.34
750.603	4752.69
750.654	4802.41
750.705	4817.75
750.756	4801.68
750.807	4789.61
750.859	4800.16
750.91	4802.41
750.961	4777.55
751.012	4741.36
751.063	4719.49
751.114	4754.24
751.165	4738.13
751.216	4752.65
751.268	4746.32
751.319	4757.74
751.37	4737.14
751.421	4738.04
751.472	4762.39
751.523	4727.78
751.574	4709.07
751.625	4684.59
751.677	4713.24
751.728	4677.08
751.779	4648.01
751.83	4658.81
751.881	4702.89
751.932	4683.17
751.983	4646.21
752.034	4675.94
752.086	4657.05
752.137	4652.76
752.188	4675.44
752.239	4624.37
752.29	4619.91
752.341	4640.03
752.392	4630.93
752.443	4558.74
752.494	4589.05
752.546	4577.04
752.597	4593.71
752.648	4606.04
752.699	4589.06
752.75	4585.87
752.801	4580.35
752.852	4547.97
752.903	4596.7
752.954	4553.36
753.005	4584.16
753.057	4487.15
753.108	4537.08
753.159	4545.28
753.21	4553.74
753.261	4533.21
753.312	4491
753.363	4530.75
753.414	4529.04
753.465	4448.55
753.516	4519.83
753.568	4534.13
753.619	4530.04
753.67	4500.37
753.721	4426.84
753.772	4374.93
753.823	4435.6
753.874	4442.62
753.925	4464.69
753.976	4381.98
754.027	4459.36
754.079	4432.03
754.13	4387.32
754.181	4481.26
754.232	4477.04
754.283	4458.22
754.334	4412.85
754.385	4405.2
754.436	4430.57
754.487	4391.37
754.538	4371.94
754.589	4428.47
754.641	4335.88
754.692	4343.78
754.743	4344.92
754.794	4370.24
754.845	4344.61
754.896	4368.65
754.947	4381.43
754.998	4323.63
755.049	4252.86
755.1	4317.84
755.151	4313.34
755.202	4309.82
755.253	4346.08
755.305	4352.63
755.356	4281.02
755.407	4319.41
755.458	4243.1
755.509	4294.7
755.56	4297.82
755.611	4310.01
755.662	4288.81
755.713	4334.69
755.764	4263.53
755.815	4304.61
755.866	4352.33
755.917	4272.83
755.968	4310.39
756.02	4195.96
756.071	4173.3
756.122	4243.37
756.173	4195.02
756.224	4191.57
756.275	4170.84
756.326	4214.63
756.377	4198.35
756.428	4180.92
756.479	4236.46
756.53	4246.23
756.581	4215.6
756.632	4199.25
756.683	4148.56
756.734	4199.7
756.785	4190.05
756.837	4196.18
756.888	4134.41
756.939	4190.41
756.99	4120.85
757.041	4148.68
757.092	4157.68
757.143	4149.16
757.194	4116.56
757.245	4165.43
757.296	4132.8
757.347	4137.98
757.398	4136.31
757.449	4106.07
757.5	4076.31
757.551	4115.31
757.602	4140.79
757.653	4078.92
757.704	4083.25
757.755	4121.63
757.807	4109.57
757.858	4094.36
757.909	4090.41
757.917	4090
757.968	4086.04
758.02	4060.16
758.071	4111.95
758.122	4103.7
758.173	4075.62
758.224	4036.34
758.276	4004.43
758.327	4038.16
758.378	4005.08
758.429	4012.71
758.48	4020.97
758.532	4061.81
758.583	4004.27
758.634	3985.05
758.685	4001.27
758.736	3968.99
758.788	3944.21
758.839	3947.07
758.89	3948.16
758.941	3963.01
758.992	4019.26
759.044	4002.02
759.095	3968.29
759.146	4026.78
759.197	3966.38
759.248	3933.98
759.3	3963.49
759.351	3895.38
759.402	3920.09
759.453	3928.56
759.504	3992.19
759.556	3924.64
759.607	3936.37
759.658	3935.11
759.709	3982.66
759.76	3890.61
759.811	3877.53
759.863	3936.3
759.914	3854.13
759.965	3878.38
760.016	3883.99
760.067	3844.59
760.119	3922.55
760.17	3818.06
760.221	3852.63
760.272	3889.97
760.323	3817.64
760.375	3824.9
760.426	3889.32
760.477	3802.28
760.528	3830.42
760.579	3807.85
760.63	3745
760.682	3790.42
760.733	3834.97
760.784	3808.57
760.835	3819.28
760.886	3767.21
760.937	3743.51
760.989	3811.46
761.04	3763.34
761.091	3766.44
761.142	3751.94
761.193	3804.21
761.245	3766.03
761.296	3708.11
761.347	3701.11
761.398	3781.98
761.449	3775.89
761.5	3722.38
761.552	3749.78
761.603	3750.65
761.654	3702.74
761.705	3705.82
761.756	3710.62
761.807	3697.97
761.859	3753.95
761.91	3748.24
761.961	3716.44
762.012	3706.93
762.063	3666.32
762.114	3700.68
762.165	3697.74
762.217	3715.52
762.268	3693.47
762.319	3700.09
762.37	3634.1
762.421	3667.51
762.472	3667.9
762.524	3706.44
762.575	3687.69
762.626	3651.78
762.677	3661.59
762.728	3650.05
762.779	3694.84
762.831	3623.19
762.882	3667.73
762.933	3667.88
762.984	3606.71
763.035	3652.79
763.086	3635.8
763.137	3558.6
763.189	3631.71
763.24	3645.49
763.291	3659.05
763.342	3658.4
763.393	3634.2
763.444	3577.25
763.495	3584.17
763.547	3556.93
763.598	3603.5
763.649	3582.33
763.7	3545.93
763.751	3579.74
763.802	3518.59
763.853	3514.77
763.905	3585.83
763.956	3535.66
764.007	3509.89
764.058	3547.26
764.109	3529.83
764.16	3567.58
764.211	3590.96
764.263	3573.56
764.314	3481.5
764.365	3502.6
764.416	3452.36
764.467	3538.52
764.518	3531.62
764.569	3506.84
764.621	3508.25
764.672	3464.15
764.723	3435.64
764.774	3476.56
764.825	3474.75
764.876	3497.69
764.927	3459.31
764.978	3517.75
765.03	3500.2
765.081	3469.76
765.132	3509.33
765.183	3475.93
765.234	3487.91
765.285	3463.73
765.336	3426.09
765.387	3449.32
765.439	3446.38
765.49	3449.49
765.541	3469.76
765.592	3458.23
765.643	3445.13
765.694	3438.5
765.745	3396.18
765.796	3439.02
765.848	3444
765.899	3439.52
765.95	3411.36
766.001	3380.15
766.052	3417.9
766.103	3415.68
766.154	3432.97
766.205	3429.07
766.256	3412.81
766.308	3379.3
766.359	3390.95
766.41	3363.88
766.461	3339.32
766.512	3314.55
766.563	3382.01
766.614	3370.41
766.665	3378.54
766.716	3352.68
766.768	3282.99
766.819	3381.2
766.87	3350.37
766.921	3296.72
766.972	3333.58
767.023	3321.49
767.074	3300.52
767.125	3350.36
767.176	3356.02
767.227	3304.83
767.279	3301.39
767.33	3281.4
767.381	3281.74
767.432	3257.41
767.483	3281.33
767.534	3287.63
767.585	3261.51
767.636	3259.39
767.687	3287.02
767.739	3338.53
767.79	3235.82
767.841	3266.43
767.892	3260.87
767.943	3225.96
767.994	3209.76
768.045	3249.76
768.096	3235.81
768.147	3226.72
768.198	3226.28
768.249	3209.31
768.301	3229.62
768.352	3255.03
768.403	3220.64
768.454	3209.08
768.505	3180.22
768.556	3188.56
768.607	3201.67
768.658	3215.41
768.709	3173.92
768.76	3173.25
768.811	3199.87
768.862	3167.93
768.914	3145.08
768.965	3121.8
769.016	3174.77
769.067	3143.14
769.118	3111.2
769.169	3151.47
769.22	3126.26
769.271	3116.97
769.322	3106.32
769.373	3111.66
769.424	3136.9
769.475	3131.62
769.526	3073.4
769.578	3123.74
769.629	3100.41
769.68	3109.31
769.731	3085.98
769.782	3056.39
769.833	3097.19
769.884	3069.99
769.935	3064.52
769.986	3070.11
770.037	3072.84
770.088	3045.8
770.139	3013.97
770.19	3014.71
770.242	3026.79
770.293	3035.5
770.344	3042.92
770.395	3027.63
770.446	3017.12
770.497	3015.08
770.548	2994.7
770.599	2998.6
770.65	3032.16
770.701	2987.29
770.752	2951.86
770.803	3002.66
770.854	2969.15
770.905	3000.57
770.956	2953.87
771.007	2998.6
771.058	2966.7
771.11	2975.49
771.161	2970.21
771.212	2952.24
771.263	2945.52
771.314	2910.09
771.365	2969.27
771.416	2966.71
771.467	2928.73
771.518	2933.4
771.569	2940.02
771.62	2907.85
771.671	2913.66
771.722	2921.31
771.773	2886.34
771.824	2892.79
771.875	2867.27
771.926	2894.53
771.977	2906.66
772.028	2870.61
772.079	2853.86
772.131	2868.95
772.182	2862.56
772.233	2860.01
772.284	2852.11
772.335	2836.74
772.386	2834.59
772.437	2838.14
772.488	2838.85
772.539	2829.73
772.59	2838.44
772.641	2798.76
772.692	2788.11
772.743	2850.29
772.794	2855.55
772.845	2803.65
772.896	2831.75
772.947	2772.89
772.998	2768.52
773.049	2746.83
773.1	2780.74
773.151	2784.1
773.202	2775.94
773.253	2750.35
773.304	2791.61
773.355	2767.66
773.406	2740.26
773.457	2766.65
773.508	2748.22
773.56	2757.63
773.611	2756.84
773.662	2728.19
773.713	2744.25
773.764	2721.57
773.815	2750.52
773.866	2709.33
773.917	2725.82
773.968	2698.82
774.019	2733.83
774.07	2673.11
774.121	2689.17
774.172	2720.49
774.223	2676.17
774.274	2699.54
774.325	2710.07
774.376	2711.73
774.427	2690.72
774.478	2668.78
774.529	2653.87
774.58	2658.8
774.631	2656.31
774.682	2643.44
774.733	2641.51
774.784	2669.56
774.835	2633.29
774.886	2653.63
774.937	2629.48
774.988	2653.69
775.039	2650.97
775.09	2633.26
775.141	2613.07
775.192	2617.41
775.243	2617.81
775.294	2622.77
775.345	2605.92
775.396	2602.56
775.447	2615.52
775.498	2596.13
775.549	2607.75
775.6	2615.49
775.651	2582.95
775.702	2571.81
775.753	2595.2
775.804	2607.01
775.855	2600.92
775.906	2595.33
775.957	2569.79
776.008	2584.46
776.059	2565.37
776.11	2561.56
776.161	2551.21
776.212	2529.77
776.263	2544.69
776.314	2552.74
776.365	2538.69
776.416	2537.13
776.467	2530.11
776.518	2520.68
776.569	2520.21
776.62	2525.63
776.671	2520.73
776.722	2511.38
776.773	2502.19
776.824	2505.28
776.875	2533.28
776.926	2530.32
776.977	2502.82
777.028	2519.63
777.079	2473.87
777.13	2469.7
777.181	2468.72
777.232	2484.04
777.283	2482.39
777.334	2471.41
777.385	2470.86
777.436	2464.04
777.487	2486.66
777.538	2456.56
777.589	2455.14
777.64	2437.71
777.691	2457.89
777.742	2458.87
777.793	2443.07
777.844	2435.39
777.895	2414.01
777.946	2418.17
777.997	2427.33
778.047	2428.29
778.098	2425.09
778.149	2411.27
778.2	2413.77
778.251	2427.05
778.302	2425.13
778.353	2423.44
778.404	2436.68
778.455	2393.29
778.506	2386.65
778.557	2381.4
778.608	2378.25
778.659	2359.72
778.71	2375.61
778.761	2397.77
778.812	2372.59
778.863	2378.79
778.914	2373.68
778.965	2376.61
779.016	2371
779.067	2357.44
779.118	2321.67
779.169	2339.91
779.22	2355.91
779.271	2335.62
779.322	2329.12
779.373	2338.68
779.424	2345.22
779.474	2326.62
779.525	2336.04
779.576	2324.9
779.627	2306.69
779.678	2318.55
779.729	2304.35
779.78	2292.41
779.831	2309.92
779.882	2320.82
779.933	2295.87
779.984	2314.48
780.035	2337.58
780.086	2315.58
780.137	2313.82
780.188	2279.46
780.239	2282.57
780.29	2269.25
780.341	2249.8
780.392	2248.14
780.442	2246.86
780.493	2257.82
780.544	2260.6
780.595	2249.32
780.646	2220
780.697	2205.53
780.748	2219.96
780.799	2231.28
780.85	2223.58
780.901	2230.61
780.952	2230.57
781.003	2219.75
781.054	2235.51
781.105	2228.19
781.156	2184.18
781.207	2224.45
781.257	2219.76
781.308	2199.08
781.359	2195.35
781.41	2187.63
781.461	2184.67
781.512	2198.2
781.563	2213.4
781.614	2223.2
781.665	2191.64
781.716	2179.78
781.767	2194.77
781.818	2218.25
781.869	2190.02
781.919	2177.44
781.97	2169.88
782.021	2155.64
782.072	2155.38
782.123	2152.29
782.174	2112.46
782.225	2126.19
782.276	2132.49
782.327	2168.45
782.378	2145.48
782.429	2119.66
782.48	2138.76
782.531	2106.55
782.581	2121.76
782.632	2130.37
782.683	2121.49
782.734	2112.9
782.785	2099.66
782.836	2071.42
782.887	2085.33
782.938	2106.29
782.989	2114.87
783.04	2121.5
783.091	2097.95
783.141	2065.6
783.192	2086.4
783.243	2093.25
783.294	2105.64
783.345	2093.82
783.396	2057.66
783.447	2046.73
783.498	2042.13
783.549	2100.62
783.6	2056.67
783.651	2031.41
783.701	2048.44
783.752	2039.83
783.803	2069.34
783.854	2065.42
783.905	2068.85
783.956	2066.02
784.007	2076.36
784.058	2040.71
784.1	2044
784.151	2000.05
784.202	2002.11
784.253	1996.18
784.304	2034.18
784.355	2036.14
784.406	2051.72
784.458	1974.52
784.509	2008.48
784.56	1982.59
784.611	1984.79
784.662	1984.99
784.713	2017.41
784.764	1995.83
784.815	1964.45
784.866	1998.53
784.917	2005.77
784.968	1965.14
785.019	1965.08
785.07	1978.63
785.121	1994.57
785.172	1989.09
785.223	1984.12
785.274	1976.15
785.326	1974.08
785.377	1985.63
785.428	1935.82
785.479	1937.26
785.53	1955.58
785.581	1921.56
785.632	1918.02
785.683	1979.41
785.734	1963.36
785.785	1970.6
785.836	1931.18
785.887	1939.52
785.938	1900.55
785.989	1888.34
786.04	1920.35
786.091	1938.49
786.142	1956.79
786.193	1890.46
786.244	1903.72
786.295	1893.44
786.346	1911.13
786.397	1917.5
786.448	1910.39
786.5	1914.34
786.551	1890.13
786.602	1869.66
786.653	1894.73
786.704	1896.21
786.755	1857.43
786.806	1890.1
786.857	1878.67
786.908	1888.17
786.959	1905.23
787.01	1855.27
787.061	1848.44
787.112	1810.68
787.163	1841.88
787.214	1863.8
787.265	1871.41
787.316	1854.39
787.367	1839.15
787.418	1828.27
787.469	1816.89
787.52	1847.91
787.571	1805.62
787.622	1864.25
787.673	1787.54
787.724	1808.33
787.775	1806.49
787.826	1808.57
787.877	1863.97
787.928	1840.18
787.979	1832.88
788.03	1804.73
788.081	1783.56
788.132	1809.49
788.183	1799.06
788.234	1814.25
788.285	1830.77
788.336	1793.51
788.387	1821.43
788.438	1762.48
788.49	1793.46
788.541	1777.74
788.591	1787.98
788.643	1787.34
788.694	1796.52
788.745	1780.15
788.796	1796.87
788.847	1790.65
788.898	1725.34
788.949	1779.7
789	1746.28
789.051	1767.51
789.102	1771.51
789.153	1792.82
789.204	1764.03
789.255	1762.47
789.306	1744.41
789.357	1755.89
789.408	1778.27
789.459	1750.35
789.51	1756.01
789.561	1770
789.612	1761.65
789.663	1740.74
789.714	1724.71
789.765	1735.63
789.816	1769.89
789.867	1725.63
789.918	1730.61
789.969	1691.42
790.02	1696.32
790.071	1740.86
790.122	1725.43
790.173	1703.83
790.224	1733.81
790.275	1712.23
790.326	1715.8
790.377	1706.26
790.428	1673.4
790.479	1664.11
790.53	1716.1
790.581	1713.72
790.632	1691.89
790.682	1675.42
790.734	1655.91
790.784	1683.62
790.836	1679.09
790.886	1677.23
790.937	1701.67
790.988	1707.88
791.039	1680.23
791.09	1684.53
791.141	1673.42
791.192	1645.56
791.243	1660.35
791.294	1653.3
791.345	1689.86
791.396	1665.16
791.447	1613.65
791.498	1674.83
791.549	1661.31
791.6	1664.89
791.651	1616.04
791.702	1608.98
791.753	1637.85
791.804	1627.26
791.855	1602.87
791.906	1646.59
791.957	1614.5
792.008	1634.49
792.059	1613.2
792.11	1620.14
792.161	1624.48
792.212	1652.01
792.263	1608.85
792.314	1608.1
792.365	1604.06
792.416	1600.97
792.467	1592.16
792.518	1594.58
792.569	1592.41
792.62	1605.1
792.671	1560.71
792.722	1602.09
792.773	1589.29
792.823	1574.65
792.874	1587.8
792.925	1575.17
792.976	1560.3
793.027	1610.68
793.078	1570.4
793.129	1575.03
793.18	1546.71
793.231	1528.87
793.282	1561.79
793.333	1562.74
793.384	1590.78
793.435	1576.72
793.486	1536.68
793.537	1551.83
793.588	1561.87
793.639	1521.44
793.69	1552.65
793.741	1544.05
793.792	1544.95
793.843	1537.88
793.894	1544.18
793.945	1523.86
793.995	1538.54
794.046	1528.3
794.097	1526.38
794.148	1529.58
794.199	1521.94
794.25	1505.76
794.301	1503.6
794.352	1509.94
794.403	1539.01
794.454	1541.84
794.505	1510.83
794.556	1529.14
794.607	1508.29
794.658	1505.63
794.709	1486.92
794.76	1487.43
794.811	1493.11
794.862	1514.98
794.912	1493.32
794.963	1492.85
795.014	1480.49
795.065	1471.36
795.116	1481.06
795.167	1489.22
795.218	1493.57
795.269	1468.36
795.32	1483.31
795.371	1465.27
795.422	1477.33
795.473	1457.72
795.524	1471.37
795.575	1470
795.625	1449.24
795.676	1465.89
795.727	1460.18
795.778	1449.27
795.829	1456.89
795.88	1434.37
795.931	1451.91
795.982	1448.64
796.033	1449.29
796.084	1439.83
796.135	1452.23
796.186	1432.9
796.237	1454.03
796.287	1445.02
796.338	1420.19
796.389	1450.25
796.44	1412.18
796.491	1415.79
796.542	1418.19
796.593	1417.13
796.644	1435.73
796.695	1428.43
796.746	1427.08
796.797	1418.66
796.848	1398.03
796.898	1420.3
796.949	1412.38
797	1402.91
797.051	1396.75
797.102	1399.42
797.153	1411.31
797.204	1388.58
797.255	1390.37
797.306	1406.07
797.357	1386.5
797.408	1376.5
797.458	1393.62
797.509	1389.08
797.56	1407.23
797.611	1407.27
797.662	1387.1
797.713	1391.22
797.764	1387.93
797.815	1369.57
797.866	1388.12
797.917	1365.12
797.968	1359.75
798.018	1344.56
798.069	1357.16
798.12	1327.99
798.171	1336.97
798.222	1345.87
798.273	1332.45
798.324	1322.3
798.375	1363.5
798.426	1346.99
798.477	1327.75
798.527	1320.4
798.578	1334.47
798.629	1345.27
798.68	1334.61
798.731	1341.42
798.782	1320.71
798.833	1333.9
798.884	1330.12
798.935	1336.74
798.985	1331.83
799.036	1323.03
799.087	1329.27
799.138	1313.84
799.189	1327.71
799.24	1298.34
799.291	1310.36
799.342	1322.12
799.393	1339.66
799.443	1326.59
799.494	1297.64
799.545	1316.22
799.596	1305.4
799.647	1300.03
799.698	1285.11
799.749	1293.77
799.8	1290.71
799.85	1299.5
799.901	1305.71
799.952	1315.65
800.003	1323.22
800.054	1298.59
800.105	1282.15
800.156	1279.59
800.207	1298.41
800.257	1266.48
800.308	1282.13
800.359	1285.49
800.41	1262.27
800.461	1264.5
800.512	1257.73
800.563	1266.02
800.613	1292.4
800.664	1270.16
800.715	1247.6
800.766	1266.2
800.817	1248.5
800.868	1237.67
800.919	1239.77
800.97	1240.6
801.02	1245.5
801.071	1252.94
801.122	1236.58
801.173	1218.01
801.224	1235.62
801.275	1233.72
801.326	1248.77
801.376	1265.01
801.427	1233.27
801.478	1220.41
801.529	1227.14
801.58	1224.22
801.631	1228.34
801.682	1223.45
801.732	1221.97
801.783	1237.44
801.834	1209.6
801.885	1211.95
801.936	1225.58
801.987	1205.25
802.038	1190.66
802.088	1215.33
802.139	1200.64
802.19	1200.32
802.241	1201.99
802.292	1194.15
802.343	1183.56
802.393	1204.87
802.444	1184.81
802.495	1194.91
802.546	1188.41
802.597	1172.93
802.648	1186.66
802.698	1176.89
802.749	1185.51
802.8	1187.87
802.851	1174.25
802.902	1149.01
802.953	1185.33
803.004	1167.31
803.054	1175
803.105	1179.37
803.156	1169.21
803.207	1162.39
803.258	1161.57
803.309	1167.92
803.359	1171.96
803.41	1155.96
803.461	1148.89
803.512	1162.68
803.563	1151.24
803.614	1151.84
803.664	1148.21
803.715	1154.93
803.766	1153.14
803.817	1119.34
803.868	1137.02
803.919	1145.65
803.969	1124.06
804.02	1139.11
804.071	1118.23
804.122	1118.61
804.173	1104.51
804.223	1136.99
804.274	1118.52
804.325	1101.96
804.376	1139.11
804.427	1126.2
804.478	1113.47
804.528	1132.47
804.579	1128.08
804.63	1105.9
804.681	1119.35
804.732	1109.76
804.782	1131.97
804.833	1101.33
804.884	1081.54
804.935	1114.66
804.986	1113.87
805.036	1137.73
805.087	1090.16
805.138	1087.76
805.189	1103
805.24	1115.1
805.291	1085.73
805.341	1084.46
805.392	1083.85
805.443	1100.63
805.494	1079.03
805.545	1104.26
805.595	1114.75
805.646	1068.45
805.697	1116.67
805.748	1086.24
805.799	1098.4
805.849	1060.89
805.9	1108.55
805.951	1113.91
806.002	1062.96
806.053	1053.24
806.103	1081.16
806.154	1080.02
806.205	1064.44
806.256	1077.46
806.307	1079.77
806.357	1077.02
806.408	1063.25
806.459	1087.42
806.51	1069.96
806.561	1095.22
806.611	1061.41
806.662	1055.6
806.713	1058.14
806.764	1070.71
806.815	1037.88
806.865	1058.27
806.916	1059.02
806.967	1034.15
807.018	1051.08
807.068	1034.49
807.119	1063.05
807.17	1053.27
807.221	1056.99
807.272	1060.23
807.322	1039.06
807.373	1046.47
807.424	1038.23
807.475	1027.1
807.526	1034.67
807.576	1027.95
807.627	1039.48
807.678	1043.15
807.729	1039.4
807.779	1038.54
807.83	1026.12
807.881	1015.48
807.932	1027.08
807.982	1046.66
808.033	998.793
808.084	1034.14
808.135	1019.54
808.186	1011.37
808.236	1026.1
808.287	1010.95
808.338	1021.15
808.389	1023.7
808.439	1010.07
808.49	1020
808.541	1010.89
808.592	1000.03
808.643	1012.35
808.693	1032.28
808.744	1005.73
808.795	1013.72
808.846	1011.98
808.896	1006.05
808.947	992.241
808.998	998.177
809.049	977.242
809.099	979.982
809.15	1000.2
809.201	981.014
809.252	994.907
809.302	989.4
809.353	978.969
809.404	981.315
809.455	973.966
809.505	977.434
809.556	983.276
809.607	999.253
809.658	984.465
809.708	971.557
809.759	971.052
809.81	965.379
809.861	963.286
809.911	982.359
809.962	972.207
810.013	976.266
810.064	952.948
810.114	964.335
810.133	980
810.183	942
810.234	983.982
810.285	993.978
810.336	950.129
810.387	956.205
810.438	958.132
810.489	949.795
810.54	947.624
810.591	955.825
810.642	959.791
810.693	959.768
810.743	955.836
810.794	954.409
810.845	942.488
810.896	971.657
810.947	931.148
810.998	912.434
811.049	944.483
811.1	925.274
811.151	957.341
811.202	931.852
811.253	947.645
811.303	911.798
811.354	916.995
811.405	926.209
811.456	933.009
811.507	934.181
811.558	958.785
811.609	914.656
811.66	938.441
811.711	904.544
811.762	925.577
811.813	923.49
811.863	948.311
811.914	932.174
811.965	912.718
812.016	921.061
812.067	902.09
812.118	909.212
812.169	923.993
812.22	900.042
812.271	916.942
812.321	922.272
812.372	925.221
812.423	903.305
812.474	908.096
812.525	899.282
812.576	870.106
812.627	886.179
812.678	902.562
812.729	880.511
812.779	898.241
812.83	889.654
812.881	915.995
812.932	887.573
812.983	898.444
813.034	879.977
813.085	878.548
813.136	886.331
813.187	890.793
813.237	875.245
813.288	864.327
813.339	869.539
813.39	878.719
813.441	876.717
813.492	883.035
813.543	901.079
813.594	871.892
813.644	887.356
813.695	881.247
813.746	868.672
813.797	856.851
813.848	877.654
813.899	869.419
813.95	893.076
814.001	859.003
814.051	851.122
814.102	869.192
814.153	862.814
814.204	863.328
814.255	860.243
814.306	869.49
814.357	832.003
814.408	839.764
814.458	860.47
814.509	848.775
814.56	824.622
814.611	862.829
814.662	854.416
814.713	866.804
814.764	844.802
814.814	854.196
814.865	858.371
814.916	858.841
814.967	825.26
815.018	828.943
815.069	848.174
815.12	848.237
815.17	834.236
815.221	850.54
815.272	819.794
815.323	828.134
815.374	834.189
815.425	831.395
815.476	834.405
815.526	839.182
815.577	823.909
815.628	835.989
815.679	825.87
815.73	831.656
815.781	806.099
815.832	801.222
815.882	824.675
815.933	812.421
815.984	825.367
816.035	816.017
816.086	844.296
816.137	818.532
816.188	813.564
816.238	822.413
816.289	831.777
816.34	806.194
816.391	807.276
816.442	811.939
816.493	807.444
816.543	795.534
816.594	798.11
816.645	792.758
816.696	827.147
816.747	801.095
816.798	778.139
816.848	765.705
816.899	788.272
816.95	789.22
817.001	812.03
817.052	771.812
817.103	804.516
817.153	804.089
817.204	804.233
817.255	792.681
817.306	795.149
817.357	811.046
817.408	786.255
817.458	782.726
817.509	796.228
817.56	783.239
817.611	786.64
817.662	769.865
817.713	764.79
817.763	783.19
817.814	780.086
817.865	771.069
817.916	756.91
817.967	782.42
818.018	771.323
818.068	769.651
818.119	757.28
818.17	767.808
818.221	748.709
818.272	759.036
818.323	776.958
818.373	758.478
818.424	760.629
818.475	765.357
818.526	754.096
818.577	750.241
818.627	759.778
818.678	771.686
818.729	764.099
818.78	758.803
818.831	740.769
818.881	759.79
818.932	770.233
818.983	738.319
819.034	750.199
819.085	754.716
819.135	745.499
819.186	762.546
819.237	747.35
819.288	740.745
819.339	751.943
819.39	747.694
819.44	735.247
819.491	751.663
819.542	710.338
819.593	724.405
819.644	750.183
819.694	745.092
819.745	740.792
819.796	735.651
819.847	723.663
819.898	710.804
819.948	722.812
819.999	711.886
820.05	726.761
820.101	740.987
820.152	732.91
820.202	702.318
820.253	727.129
820.304	731.303
820.355	709.86
820.406	698.339
820.456	737.058
820.507	722.697
820.558	704.478
820.609	721.284
820.66	705.009
820.71	732.72
820.761	714.908
820.812	719.417
820.863	719.724
820.914	689.148
820.964	724.398
821.015	730.006
821.066	714.058
821.117	711.918
821.167	712.352
821.218	688.434
821.269	712.951
821.32	706.724
821.371	694.315
821.421	686.433
821.472	697.767
821.523	697.75
821.574	699.352
821.624	683.048
821.675	699.041
821.726	701.742
821.777	680.798
821.828	710.413
821.878	695.402
821.929	680.141
821.98	693.197
822.031	696.84
822.081	669.332
822.132	673.367
822.183	686.529
822.234	698.686
822.285	672.761
822.335	677.591
822.386	663.006
822.437	668.404
822.488	677.19
822.538	674.992
822.589	678.523
822.64	686.528
822.691	682.512
822.741	653.706
822.792	674.53
822.843	684.656
822.894	668.131
822.945	658.649
822.995	670.516
823.046	676.888
823.097	672.951
823.148	649.934
823.198	655.04
823.249	656.187
823.3	667.949
823.351	654.833
823.401	650.273
823.452	666.57
823.503	652.725
823.554	658.107
823.604	674.779
823.655	638.054
823.706	636.656
823.757	644.435
823.807	649.311
823.858	641.051
823.909	658.287
823.96	626.694
824.01	655.517
824.061	643.359
824.112	646.758
824.163	641.603
824.213	644.049
824.264	643.082
824.315	648.992
824.366	631.346
824.416	641.001
824.467	629.311
824.518	639.323
824.569	627.385
824.619	636.185
824.67	652.149
824.721	632.073
824.772	645.075
824.822	613.939
824.873	643.053
824.924	663.574
824.974	649.257
825.025	632.936
825.076	621.807
825.127	628.199
825.177	624.427
825.228	622.745
825.279	623.308
825.33	621.809
825.38	633.394
825.431	634.917
825.482	636.475
825.533	622.852
825.583	623.375
825.634	630.511
825.685	627.966
825.735	612.955
825.786	618.637
825.837	620.311
825.888	606.025
825.938	601.538
825.989	618.019
826.04	609.799
826.091	597.89
826.141	606.988
826.192	612.638
826.243	616.868
826.293	613.12
826.344	620.004
826.395	604.539
826.446	625.479
826.496	612.728
826.547	612.145
826.598	601.144
826.648	622.339
826.699	602.369
826.75	599.067
826.801	594.315
826.851	600.097
826.902	591.945
826.953	601.982
827.003	603.427
827.054	606.678
827.105	616.098
827.156	587.407
827.206	594.901
827.257	601.508
827.308	592.907
827.358	581.112
827.409	589.093
827.46	576.011
827.511	591.503
827.561	597.782
827.612	603.957
827.663	595.411
827.713	565.06
827.764	591.877
827.815	596.932
827.865	594.526
827.916	582.693
827.967	588.208
828.018	585.552
828.068	571.376
828.119	581.618
828.17	582.915
828.22	587.859
828.271	575.046
828.322	579.482
828.372	593.596
828.423	575.059
828.474	562.818
828.525	567.526
828.575	581.576
828.626	573.003
828.677	576.066
828.727	571.471
828.778	576.064
828.829	576.138
828.879	574.419
828.93	562.878
828.981	573.816
829.031	583.934
829.082	580.63
829.133	560.734
829.183	574.09
829.234	572.288
829.285	583.12
829.336	586.902
829.386	581.207
829.437	571.72
829.488	562.133
829.538	573.313
829.589	569.344
829.64	560.309
829.69	563.764
829.741	554.826
829.792	558.852
829.842	571.248
829.893	564.406
829.944	552.532
829.994	566.09
830.045	556.457
830.096	541.802
830.146	558.211
830.197	568.484
830.248	555.294
830.298	547.699
830.349	553.784
830.4	545.151
830.45	544.15
830.501	565.809
830.552	565.338
830.602	543.122
830.653	544.681
830.704	541.896
830.754	542.117
830.805	541.775
830.856	546.728
830.906	553.584
830.957	537.937
831.008	512.437
831.058	524.526
831.109	533.144
831.16	534.898
831.21	540.877
831.261	540.815
831.312	540.022
831.362	532.329
831.413	534.651
831.464	548.166
831.514	546.752
831.565	536.987
831.616	536.694
831.666	544.466
831.717	525.699
831.767	526.681
831.818	538.654
831.869	543.449
831.919	532.902
831.97	529.464
832.021	530.393
832.071	516.686
832.122	512.933
832.173	519.262
832.223	529.092
832.274	523.968
832.325	520.078
832.375	527.166
832.426	531.016
832.477	540.949
832.527	541.022
832.578	536.116
832.628	521.504
832.679	517.89
832.73	512.183
832.78	510.246
832.831	520.674
832.882	523.87
832.932	519.889
832.983	529.096
833.034	528.784
833.084	525.787
833.135	527.039
833.185	514.956
833.236	507.212
833.287	517.456
833.337	521.105
833.388	511.81
833.439	512.21
833.489	508.907
833.54	508.734
833.59	508.612
833.641	509.613
833.692	512.446
833.742	514.233
833.793	496.665
833.844	517.113
833.894	521.061
833.945	507.9
833.995	500.307
834.046	509.561
834.097	502.735
834.147	489.724
834.198	499.697
834.249	497.739
834.299	500.781
834.35	505.978
834.4	504.251
834.451	496.934
834.502	499.548
834.552	488.307
834.603	494.475
834.653	491.896
834.704	498.119
834.755	471.841
834.805	494.311
834.856	499.83
834.906	512.362
834.957	499.324
835.008	490.528
835.058	490.902
835.109	491.087
835.16	475.651
835.21	471.93
835.261	484.24
835.311	481.28
835.362	472.758
835.413	491.003
835.463	490.057
835.514	488.244
835.564	481.076
835.615	489.086
835.666	486.875
835.716	485.384
835.767	486.496
835.817	496.573
835.868	494.051
835.919	477.074
835.969	489.667
836.02	499.168
836.07	507.415
836.121	487.172
836.161	476
836.212	500
836.263	479.961
836.314	476.001
836.365	493.879
836.415	481.868
836.466	460.218
836.517	472.089
836.568	460.105
836.618	472.054
836.669	473.96
836.72	460.156
836.771	466.008
836.821	448.334
836.872	471.755
836.923	474.059
836.974	462.243
837.024	482.991
837.075	483.277
837.126	459.992
837.177	489.459
837.227	456.798
837.278	475.629
837.329	459.91
837.38	450.399
837.43	450.46
837.481	446.598
837.532	470.381
837.583	473.659
837.633	446.135
837.684	451.554
837.735	453.766
837.786	456.027
837.836	465.325
837.887	468.702
837.938	455.764
837.989	460.285
838.039	463.47
838.09	440.033
838.141	457.545
838.192	458.253
838.242	444.334
838.293	433.744
838.344	451.356
838.395	457.444
838.445	461.369
838.496	470.432
838.547	469.322
838.598	447.314
838.648	440.901
838.699	441.223
838.75	468.511
838.801	451.117
838.851	446.033
838.902	470.533
838.953	469.864
839.003	448.944
839.054	469.176
839.105	449.545
839.156	432.989
839.206	461.421
839.257	466.644
839.308	448.341
839.359	451.998
839.409	443.911
839.46	444.341
839.511	463.331
839.562	441.457
839.612	426.116
839.663	436.006
839.714	463.315
839.764	424.607
839.815	455.035
839.866	447.767
839.917	433.149
839.967	433.786
840.018	441.608
840.069	436.495
840.119	437.957
840.17	428.723
840.221	428.065
840.272	451.657
840.322	427.914
840.373	424.455
840.424	442.969
840.474	451.062
840.525	433.594
840.576	448.755
840.627	424.534
840.677	428.947
840.728	420.269
840.779	432.394
840.829	444.21
840.88	440.19
840.931	417.547
840.982	417.064
841.032	420.054
841.083	419.809
841.134	430.711
841.184	428.474
841.235	434.558
841.286	441.423
841.337	427.578
841.387	430.411
841.438	434.233
841.489	435.952
841.539	403.815
841.59	426.853
841.641	435.522
841.691	420.865
841.742	428.238
841.793	411.343
841.844	418.589
841.894	409.484
841.945	433.817
841.996	411.779
842.046	424.867
842.097	439.641
842.148	417.516
842.198	426.819
842.249	430.868
842.3	402.188
842.351	418.84
842.401	406.086
842.452	412.143
842.503	419.429
842.553	414.21
842.604	416.982
842.655	408.331
842.705	417.277
842.756	409.625
842.807	401.96
842.857	415.128
842.908	400.859
842.959	399.698
843.009	411.957
843.06	407.414
843.111	403.209
843.161	396.166
843.212	411.474
843.263	411.098
843.314	412.913
843.364	401.789
843.415	422.328
843.466	391.614
843.516	395.902
843.567	396.383
843.618	407.947
843.668	391.784
843.719	416.366
843.77	410.928
843.82	400.325
843.871	408.214
843.922	404.211
843.972	400.218
844.023	404.81
844.074	386.983
844.124	395.67
844.175	402.226
844.226	389.778
844.276	393.2
844.327	389.425
844.378	393.16
844.428	402.369
844.479	394.852
844.53	392.357
844.58	396.839
844.631	397.472
844.682	394.925
844.732	400.223
844.783	390.598
844.834	395.772
844.884	395.335
844.935	401.554
844.986	392.028
845.036	390.213
845.087	378.304
845.138	389.831
845.188	376.588
845.239	397.554
845.29	389.1
845.34	365.039
845.391	396.504
845.442	376.707
845.492	392.599
845.543	386.972
845.594	383.061
845.644	384.094
845.695	400.123
845.745	378.337
845.796	384.933
845.847	385.403
845.897	382.423
845.948	374.838
845.999	396.548
846.049	381.293
846.1	375.897
846.151	363.405
846.201	378.379
846.252	381.576
846.303	369.23
846.353	363.952
846.404	383.205
846.455	375.924
846.505	374.162
846.556	379.383
846.606	387.901
846.657	379.208
846.708	379.835
846.758	371.652
846.809	377.938
846.86	356.706
846.91	383.706
846.961	378.55
847.012	364.658
847.062	366.991
847.113	375.948
847.163	364.927
847.214	377.145
847.265	371.785
847.315	367.31
847.366	362.731
847.417	379.685
847.467	376.011
847.518	367.798
847.568	369.589
847.619	363.779
847.67	372.568
847.72	363.597
847.771	358.446
847.822	360.032
847.872	379.318
847.923	367.53
847.973	365.915
848.024	355.697
848.075	346.985
848.125	356.25
848.176	373.4
848.227	354.629
848.277	359.916
848.328	368.29
848.378	372.06
848.429	372.775
848.48	359.472
848.53	357.904
848.581	362.658
848.631	355.746
848.682	366.683
848.733	348.426
848.783	356.539
848.834	361.603
848.885	359.088
848.935	353.579
848.986	363.273
849.036	362.735
849.087	346.85
849.138	363.004
849.188	354.236
849.239	358.174
849.289	343.522
849.34	355.843
849.391	348.856
849.441	355.147
849.492	351.686
849.542	345.764
849.593	350.737
849.644	354.715
849.694	349.721
849.745	333.219
849.795	352.039
849.846	359.25
849.897	346.808
849.947	329.03
849.998	334.599
850.048	365.828
850.099	350.149
850.15	359.847
850.2	345.26
850.251	334.478
850.301	337.42
850.352	346.221
850.403	347.38
850.453	349.48
850.504	354.058
850.554	344.559
850.605	338.591
850.656	331.768
850.706	325.943
850.757	341.862
850.807	336.916
850.858	332.878
850.908	338.24
850.959	347.351
851.01	337.098
851.06	331.26
851.111	330.397
851.161	339.925
851.212	332.476
851.263	334.646
851.313	334.951
851.364	336.774
851.414	339.09
851.465	341.629
851.515	327.139
851.566	338.896
851.617	335.601
851.667	335.959
851.718	324.177
851.768	334.379
851.819	331.391
851.869	343.221
851.92	336.536
851.971	340.64
852.021	326.047
852.072	333.554
852.122	340.565
852.173	328.581
852.223	326.706
852.274	327.522
852.325	331.514
852.375	325.18
852.426	324.818
852.476	331.517
852.527	325.802
852.577	331.848
852.628	325.089
852.678	326.315
852.729	338.508
852.78	320.385
852.83	327.984
852.881	329.624
852.931	311.65
852.982	319.045
853.032	331.029
853.083	323.094
853.133	312.742
853.184	318.484
853.235	327.982
853.285	324.494
853.336	330.589
853.386	314.811
853.437	316.918
853.487	315.232
853.538	312.683
853.588	326.104
853.639	317.601
853.69	307.881
853.74	316.755
853.791	322.86
853.841	309.36
853.892	315.402
853.942	324.888
853.993	329.829
854.043	318.453
854.094	314.145
854.144	301.074
854.195	317.384
854.246	314.655
854.296	306.599
854.347	302.794
854.397	318.475
854.448	314.521
854.498	310.165
854.549	312.898
854.599	317.094
854.65	313.383
854.7	306.995
854.751	302.854
854.801	298.255
854.852	302.778
854.902	312.628
854.953	309.18
855.004	304.883
855.054	314.108
855.105	310.842
855.155	304.829
855.206	297.948
855.256	302.449
855.307	292.458
855.357	304.347
855.408	306.149
855.458	301.602
855.509	300.097
855.559	298.391
855.61	309.376
855.66	297.896
855.711	302.593
855.761	311.329
855.812	304.455
855.862	303.45
855.913	295.826
855.964	293.921
856.014	282.701
856.065	292.398
856.115	294.428
856.166	287.793
856.216	292.425
856.267	308.973
856.317	300.557
856.368	293.745
856.418	299.965
856.469	303.513
856.519	292.098
856.57	311.734
856.62	306.685
856.671	295.538
856.721	294.379
856.772	296.207
856.822	303.626
856.873	300.737
856.923	295.369
856.974	302.871
857.024	292.78
857.075	287.36
857.125	298.014
857.176	291.31
857.226	288.695
857.277	291.82
857.327	293.041
857.378	294.946
857.428	296.985
857.479	302.949
857.529	303.024
857.58	295.786
857.63	297.056
857.681	294.398
857.731	287.514
857.782	301.968
857.832	298.606
857.883	289.729
857.933	284.42
857.984	289.693
858.034	290.39
858.085	280.178
858.135	288.847
858.186	302.416
858.236	294.134
858.287	291.992
858.337	283.844
858.388	284.427
858.438	293.071
858.489	299.747
858.539	290.315
858.589	286.796
858.64	286.379
858.69	295.37
858.741	296.877
858.791	302.5
858.842	297.544
858.892	284.797
858.943	282.446
858.993	283.31
859.044	279.047
859.094	280.949
859.145	281.771
859.195	282.037
859.246	287.803
859.296	282.003
859.347	280.828
859.397	289.957
859.448	274.551
859.498	269.892
859.549	276.662
859.599	288.329
859.649	288.09
859.7	288.313
859.75	291.088
859.801	284.976
859.851	283.336
859.902	278.102
859.952	293.722
860.003	286.331
860.053	269.569
860.104	279.831
860.154	275.659
860.205	267.07
860.255	275.038
860.305	274.329
860.356	272.063
860.406	276.268
860.457	278.822
860.507	278.782
860.558	283.316
860.608	275.423
860.659	268.17
860.709	272.612
860.76	265.425
860.81	267.057
860.861	251.489
860.911	262.303
860.961	275.779
861.012	275.074
861.062	259.487
861.113	268.449
861.163	261.963
861.214	261.05
861.264	275.613
861.315	275.515
861.365	272.717
861.415	265.582
861.466	274.296
861.516	270.147
861.567	274.394
861.617	271.083
861.668	278.061
861.718	265.941
861.769	268.242
861.819	272.912
861.869	263.63
861.92	267.862
861.97	262.507
862.021	273.233
862.071	275.168
862.112	264.008
862.162	277.96
862.213	275.922
862.263	265.976
862.314	258.064
862.365	252.07
862.415	254.047
862.466	246.187
862.516	252.018
862.567	271.66
862.618	250.222
862.668	261.774
862.719	256.235
862.77	252.611
862.82	266.035
862.871	244.497
862.921	265.932
862.972	267.679
863.023	259.796
863.073	254.297
863.124	258.273
863.174	256.48
863.225	258.376
863.276	266.117
863.326	269.5
863.377	260.007
863.427	253.116
863.478	254.39
863.529	246.789
863.579	252.464
863.63	259.524
863.68	261.789
863.731	254.909
863.782	254.611
863.832	255.711
863.883	268.995
863.933	247.138
863.984	257.365
864.034	271.692
864.085	246.637
864.136	254.556
864.186	252.892
864.237	250.479
864.287	252.181
864.338	252.518
864.389	259.377
864.439	248.454
864.49	255.815
864.54	263.147
864.591	274.643
864.642	259.337
864.692	247.588
864.743	244.707
864.793	243.452
864.844	251.318
864.894	249.493
864.945	237.602
864.996	248.564
865.046	250.48
865.097	250.857
865.147	239.103
865.198	243.021
865.248	257.94
865.299	250.427
865.35	244.236
865.4	245.219
865.451	259.956
865.501	240.642
865.552	240.801
865.603	242.777
865.653	249.526
865.704	251.083
865.754	241.413
865.805	241.795
865.855	241.353
865.906	240
865.956	232.229
866.007	260.117
866.058	252.078
866.108	255.677
866.159	246.253
866.209	248.891
866.26	240.212
866.31	243.707
866.361	236.329
866.412	243.642
866.462	247.484
866.513	229.271
866.563	253.214
866.614	245.819
866.664	252.301
866.715	238.609
866.766	243.478
866.816	241.559
866.867	238.815
866.917	234.77
866.968	253.234
867.018	239.602
867.069	232.36
867.119	227.118
867.17	243.132
867.22	252.447
867.271	235.865
867.322	234.941
867.372	238.541
867.423	244.91
867.473	235.881
867.524	233.964
867.574	243.844
867.625	248.745
867.675	241.703
867.726	238.469
867.776	237.162
867.827	234.806
867.878	239.37
867.928	234.94
867.979	240.999
868.029	238.473
868.08	229.522
868.13	223.194
868.181	227.593
868.231	239.086
868.282	232.35
868.332	232.648
868.383	242.951
868.433	240.919
868.484	231.196
868.535	234.61
868.585	239.113
868.636	230.231
868.686	227.965
868.737	222.755
868.787	243.633
868.838	235.69
868.888	229.476
868.939	224.687
868.989	231.051
869.04	230.513
869.09	238.341
869.141	221.263
869.191	230.358
869.242	237.714
869.292	211.042
869.343	230.116
869.394	220.391
869.444	233.495
869.495	231.201
869.545	230.463
869.596	219.383
869.646	233.921
869.697	228.022
869.747	234.959
869.798	235.248
869.848	223.296
869.899	215.912
869.949	219.42
870	225.489
870.05	220.259
870.101	220.664
870.151	215.411
870.202	207.818
870.252	232.948
870.303	218.624
870.353	219.272
870.404	223.632
870.454	229.265
870.505	223.563
870.555	226.175
870.606	218.886
870.656	221.712
870.707	229.429
870.757	219.659
870.808	216.568
870.858	229.661
870.909	212.872
870.959	217.978
871.01	218.242
871.06	228.62
871.111	207.146
871.161	216.265
871.212	224.377
871.262	221.642
871.313	211.418
871.363	222.542
871.414	209.754
871.464	214.893
871.515	217.454
871.565	221.575
871.616	227.758
871.666	205.313
871.717	218.743
871.767	209.67
871.818	217.412
871.868	211.509
871.919	208.777
871.969	220.111
872.02	216.669
872.07	209.391
872.121	213.371
872.171	217.343
872.222	225.242
872.272	209.384
872.323	201.516
872.373	219.392
872.424	211.365
872.474	203.635
872.525	218.431
872.575	223.603
872.626	221.195
872.676	218.074
872.727	213.454
872.777	211.74
872.828	206.642
872.878	208.04
872.929	202.096
872.979	212.152
873.03	205.211
873.08	213.898
873.13	205.586
873.181	195.018
873.231	210.099
873.282	208.124
873.332	205.01
873.383	218.606
873.433	203.204
873.484	216.29
873.534	208.005
873.585	213.339
873.635	206.673
873.686	206.952
873.736	206.06
873.787	222.269
873.837	213.813
873.888	210.119
873.938	201.294
873.988	206.113
874.039	214.531
874.089	201.669
874.14	213.092
874.19	204.538
874.241	201.337
874.291	194.148
874.342	197.783
874.392	195.253
874.443	211.235
874.493	197.118
874.544	214.741
874.594	203.699
874.644	202.44
874.695	190.591
874.745	213.793
874.796	206.266
874.846	198.161
874.897	206.036
874.947	202.977
874.998	201.289
875.048	190.809
875.099	188.516
875.149	206.816
875.199	198
875.25	192.496
875.3	193.566
875.351	195.197
875.401	201.341
875.452	199.633
875.502	199.628
875.553	199.264
875.603	205.134
875.653	192.244
875.704	202.811
875.754	195.48
875.805	199.058
875.855	193.437
875.906	207.296
875.956	196.561
876.006	208.386
876.057	199.473
876.107	194.016
876.158	200
876.208	198.379
876.259	193.936
876.309	189.682
876.36	191.732
876.41	199.204
876.46	200.487
876.511	188.744
876.561	198.19
876.612	192.615
876.662	192.186
876.713	197.929
876.763	196.959
876.813	189.639
876.864	185.404
876.914	190.058
876.965	193.845
877.015	194.732
877.065	187.334
877.116	195.338
877.166	196.154
877.217	205.804
877.267	193.941
877.318	186.235
877.368	183.027
877.418	189.572
877.469	193.992
877.519	186.357
877.57	195.207
877.62	189.11
877.671	191.968
877.721	185.207
877.771	200.412
877.822	195.966
877.872	187.683
877.923	189.817
877.973	198.163
878.023	195.425
878.074	188.543
878.124	184.762
878.175	197.401
878.225	197.214
878.276	192.419
878.326	194.741
878.376	184.946
878.427	176.596
878.477	175.683
878.528	187.482
878.578	183.819
878.628	194.38
878.679	191.834
878.729	189.27
878.78	191.529
878.83	180.597
878.88	183.367
878.931	187.954
878.981	181.454
879.031	185.232
879.082	182.624
879.132	184.481
879.183	192.357
879.233	180.282
879.284	180.208
879.334	187.738
879.384	180.01
879.435	185.095
879.485	186.947
879.535	183.024
879.586	180.073
879.636	176.9
879.687	179.359
879.737	186.13
879.787	184.832
879.838	182.66
879.888	182.412
879.939	189.896
879.989	187.593
880.039	183.066
880.09	181.253
880.14	183.069
880.19	183.479
880.241	183.306
880.291	180.902
880.342	183.995
880.392	185.667
880.442	183.79
880.493	178.232
880.543	177.166
880.594	177.784
880.644	178.541
880.694	180.532
880.745	178.605
880.795	181.082
880.845	187.242
880.896	184.202
880.946	179.09
880.996	176.819
881.047	169.197
881.097	173.193
881.148	175.187
881.198	186.529
881.248	178.783
881.299	178.158
881.349	182.635
881.399	181.368
881.45	179.179
881.5	175.789
881.551	172.498
881.601	172.616
881.651	176.643
881.702	181.409
881.752	182.833
881.802	177.455
881.853	170.286
881.903	173.416
881.953	175.828
882.004	177.251
882.054	170.766
882.104	168.782
882.155	174.804
882.205	175.045
882.256	166.101
882.306	178.942
882.356	168.264
882.407	177.025
882.457	171.195
882.507	172.039
882.558	173.535
882.608	174.646
882.658	172.782
882.709	168.297
882.759	172.651
882.809	168.195
882.86	175.084
882.91	175.544
882.96	172.165
883.011	169.059
883.061	175.294
883.111	173.481
883.162	166.657
883.212	161.124
883.262	170.496
883.313	169.453
883.363	168.454
883.413	173.015
883.464	166.506
883.514	177.414
883.565	173.03
883.615	171.381
883.665	162.152
883.716	169.199
883.766	172.318
883.816	165.193
883.867	165.169
883.917	168.807
883.967	170.804
884.017	171.255
884.068	164
884.118	165.546
884.168	173.239
884.219	167.742
884.269	159.419
884.319	161.196
884.37	169.458
884.42	160.357
884.47	161.235
884.521	160.652
884.571	158.642
884.621	160.381
884.672	168.234
884.722	171.071
884.772	164.938
884.823	159.317
884.873	158.966
884.923	160.932
884.974	167.927
885.024	167.508
885.074	163.654
885.125	161.422
885.175	166.392
885.225	160.859
885.276	163.538
885.326	159.568
885.376	159.83
885.426	153.069
885.477	158.698
885.527	165.041
885.577	167.78
885.628	165.449
885.678	157.924
885.728	154.411
885.779	166.936
885.829	162.69
885.879	153.471
885.93	164.085
885.98	168.286
886.03	172.244
886.08	147.182
886.131	161.625
886.181	165.917
886.231	155.04
886.282	162.812
886.332	158.907
886.382	154.6
886.432	166.164
886.483	161.142
886.533	157.109
886.583	150.011
886.634	145.133
886.684	148.999
886.734	159.898
886.785	157.195
886.835	149.668
886.885	149.435
886.935	142.062
886.986	152.349
887.036	154.19
887.086	159.505
887.137	155.179
887.187	151.499
887.237	150.366
887.287	169.566
887.338	167.367
887.388	153.579
887.438	155.74
887.489	152.447
887.539	158.184
887.589	152.035
887.639	154.289
887.69	148.378
887.74	167.415
887.79	165.899
887.841	140.765
887.891	149.76
887.941	157.726
887.943	157.974
887.993	163.855
888.044	159.956
888.094	152
888.144	148.142
888.195	146.284
888.245	159.723
888.296	151.916
888.346	155.944
888.397	167.241
888.447	163.237
888.498	149.969
888.548	155.854
888.599	165.192
888.649	136.862
888.699	150.549
888.75	159.758
888.8	147.796
888.851	155.399
888.901	159.775
888.952	152.3
889.002	147.847
889.053	150.654
889.103	160.882
889.153	154.635
889.204	160.883
889.254	151.901
889.305	143.953
889.355	153.974
889.406	155.434
889.456	136.532
889.507	161.801
889.557	150.689
889.607	147.751
889.658	148.342
889.708	131.061
889.759	147.33
889.809	155.827
889.86	148.656
889.91	151.646
889.96	151.917
890.011	146.339
890.061	148.359
890.112	153.21
890.162	155.339
890.213	152.499
890.263	142.913
890.313	129.01
890.364	148.768
890.414	140.74
890.465	142.394
890.515	156.257
890.566	153.112
890.616	148.253
890.666	146
890.717	151.821
890.767	141.928
890.818	140.123
890.868	139.191
890.919	143.993
890.969	143.959
891.019	151.619
891.07	138.832
891.12	148.725
891.171	146.573
891.221	148.693
891.271	148.895
891.322	140.498
891.372	137.557
891.423	144.969
891.473	135.36
891.523	151.087
891.574	135.319
891.624	144.145
891.675	142.55
891.725	145.752
891.776	143.973
891.826	127.212
891.876	131.012
891.927	137.803
891.977	140.676
892.028	131.107
892.078	133.058
892.128	143.118
892.179	143.252
892.229	140.928
892.28	141.177
892.33	136.477
892.38	144.404
892.431	142.737
892.481	131.509
892.532	142.595
892.582	132.593
892.632	148.554
892.683	138.406
892.733	146.727
892.784	144.375
892.834	138.872
892.884	142.968
892.935	145.668
892.985	137.158
893.036	139.135
893.086	136.089
893.136	128.621
893.187	145.068
893.237	127.054
893.288	140.609
893.338	141.648
893.388	144.327
893.439	142.131
893.489	136.311
893.539	128.926
893.59	135.58
893.64	126.851
893.691	134.948
893.741	121.429
893.791	129.976
893.842	129.252
893.892	136.074
893.943	137.966
893.993	139.96
894.043	125.011
894.094	135.014
894.144	128.995
894.194	136.998
894.245	128.005
894.295	129.014
894.346	132.924
894.396	137
894.446	135.072
894.497	135.964
894.547	138
894.597	132.048
894.648	137.973
894.698	133
894.749	128.065
894.799	137.819
894.849	136.96
894.9	134.174
894.95	126.275
895	132.604
895.051	140.104
895.101	137.056
895.151	130.059
895.202	135.754
895.252	128.391
895.303	138.725
895.353	132.214
895.403	132
895.454	123.157
895.504	129.754
895.554	128.169
895.605	124
895.655	129.909
895.706	126.283
895.756	132.097
895.806	135.298
895.857	125.208
895.907	131
895.957	134.78
896.008	131.227
896.058	126.161
896.108	123.761
896.159	124.267
896.209	122.754
896.259	128.708
896.31	127.868
896.36	124.676
896.41	126.276
896.461	130.715
896.511	128.415
896.561	136.149
896.612	130.152
896.662	117.548
896.713	122.367
896.763	126.035
896.813	130.672
896.864	122.681
896.914	121.486
896.964	123.652
897.015	127.29
897.065	131.36
897.115	131
897.166	127
897.216	118.519
897.266	121.42
897.317	124.803
897.367	124.599
897.417	121.016
897.468	126.553
897.518	121.471
897.568	128.021
897.619	130.164
897.669	117.978
897.719	116.775
897.77	131.965
897.82	121.754
897.87	121.767
897.921	124.179
897.971	128.087
898.021	120.757
898.072	126.018
898.122	127.245
898.172	125.243
898.223	122.256
898.273	120.07
898.323	120.475
898.374	125.206
898.424	113
898.474	129.912
898.524	131.827
898.575	119.781
898.625	124.619
898.675	126.705
898.726	124.576
898.776	120.954
898.826	120.18
898.877	120.701
898.927	129.398
898.977	116.914
899.028	116.617
899.078	120.689
899.128	120.629
899.179	113.364
899.229	126
899.279	126.38
899.33	122.328
899.38	122.331
899.43	117.334
899.48	125.988
899.531	120.069
899.581	117.898
899.631	118.429
899.682	119.597
899.732	113.834
899.782	112.495
899.833	120.362
899.883	121.092
899.933	124.53
899.984	120.259
