#Acq. time (s)=	3
#Accumulations=	2
#Range (nm)=	520...900
#Windows=	16
#Auto scanning=	On
#Autofocus=	Off
#AutoExposure=	Off
#Spike filter=	Multiple accum.
#Delay time (s)=	0
#Binning=	1
#Readout mode=	Signal
#DeNoise=	Off
#ICS correction=	Off
#Dark correction=	Off
#Inst. Process=	Off
#Detector temperature (°C)=	-59.98
#Instrument=	LabRAM HR Evol
#Detector=	Syncerity OE
#Objective=	x50_VIS
#Grating=	600 (500nm)
#ND Filter=	10%
#Laser=	514nm_Edge
#Hole=	199.981
#Range=	Auto
#StageXY=	Marzhauser
#StageZ=	Marzhauser
#X (µm)=	1452.2
#Y (µm)=	-2592
#Z (µm)=	-214.6
#Full time(mm:ss)=	2:39
#Project=	
#Sample=	
#Site=	
#Title=	PL_Fatia_SCD_021223
#Remark=	
#Date=	18.12.2023 17:57
#Acquired=	18.12.2023 17:57:45
520.042	40
520.094	30.3442
520.147	33.8638
520.199	30.1863
520.251	33.8046
520.304	28.1537
520.356	36.7381
520.408	36.0536
520.461	33.1709
520.513	30.0582
520.565	38.6438
520.618	32.314
520.67	29
520.723	30
520.775	33.6624
520.827	35.3488
520.88	34.7835
520.932	29.22
520.984	34.8487
521.037	35
521.089	30.9209
521.141	29.2445
521.194	37.6694
521.246	39.17
521.298	30.9139
521.351	32.1791
521.403	32.9092
521.455	33.9069
521.508	32.4715
521.56	34.7101
521.612	36.6088
521.665	40.2023
521.717	27.2049
521.769	29.4191
521.822	37.5763
521.874	40.5669
521.926	29.5471
521.979	28.3353
522.031	36.9837
522.083	38.461
522.136	35
522.188	33.8801
522.24	34.8778
522.293	37.5064
522.345	31.7544
522.397	34.8719
522.45	32.3877
522.502	33.7369
522.554	28.5355
522.607	30.5949
522.659	37.5879
522.711	34.8603
522.764	30.5634
522.816	34.1432
522.868	37.4179
522.921	36
522.973	27.596
523.025	33.6973
523.078	39.5425
523.13	38.1548
523.182	32.943
523.234	30.8405
523.287	36.518
523.339	34
523.391	31.3306
523.444	38.1618
523.496	35.844
523.548	36.979
523.601	29.8615
523.653	37.8254
523.705	40.4692
523.758	35.5343
523.81	29.5413
523.862	37.7206
523.915	36.3702
523.967	35.8126
524.019	29.9441
524.072	32
524.124	33.4237
524.176	33.1944
524.229	31
524.281	37.2037
524.333	35.4009
524.385	37.7974
524.438	31.0244
524.49	31.7928
524.542	36.3714
524.595	29.6329
524.647	31.5763
524.699	37.3574
524.752	34.8661
524.804	28.6566
524.856	27.4406
524.909	37.9988
524.961	33.2247
525.013	32.908
525.066	33
525.118	35.617
525.17	35.397
525.222	36.2972
525.275	31.9453
525.327	33.5227
525.379	37.035
525.432	30.9732
525.484	30.4913
525.536	34.7602
525.589	34.7483
525.641	32.2515
525.693	36
525.745	40.4685
525.798	35.7718
525.85	36.2587
525.902	36.2608
525.955	37.4715
526.007	33.3287
526.059	34.4645
526.112	34.7299
526.164	33.4569
526.216	36.2736
526.268	29.8287
526.321	33.4435
526.373	33.7203
526.425	35.2817
526.478	34.716
526.53	33.8601
526.582	32.1339
526.635	36.4196
526.687	34.5844
526.739	35
526.791	37.4063
526.844	41.5967
526.896	28.5017
526.948	32.7879
527.001	36
527.053	35.7739
527.105	31.5425
527.157	30
527.21	33.6868
527.262	34.3706
527.314	31.2712
527.367	38.0839
527.419	34.6026
527.471	32.0291
527.523	32.3007
527.576	34
527.628	31.0105
527.68	37
527.733	30.3345
527.785	39.6573
527.837	36.6752
527.889	32.6807
527.942	25.0245
527.994	34.9325
528.046	35.6923
528.099	34.6985
528.151	29.0524
528.203	34.8217
528.255	38.1304
528.308	35.5734
528.36	28.0769
528.412	38.9173
528.464	38.3636
528.517	35.3648
528.569	30.1014
528.621	38.1548
528.674	38.6282
528.726	40.3741
528.778	31.6321
528.83	33.8636
528.883	34.7599
528.935	27.8531
528.987	34.6158
529.039	38.4522
529.092	38.9464
529.144	33.5618
529.196	30
529.249	34.4214
529.301	32.7949
529.353	25.3998
529.405	24.5991
529.458	34.3869
529.51	35.2189
529.562	31.5921
529.614	35
529.667	35.1748
529.719	37.1725
529.771	37.8322
529.823	31.3527
529.876	33.634
529.928	39.5769
529.98	26.127
530.033	34.1445
530.085	35.1422
530.137	36.4312
530.189	32.4336
530.242	33.5641
530.294	33.5629
530.346	36.56
530.398	34.6573
530.451	31.3287
530.503	33.8951
530.555	37.6538
530.607	36.8042
530.66	35.0932
530.712	33.5443
530.764	36.458
530.816	28.3019
530.869	31.0769
530.921	35.9277
530.973	33.6014
531.025	31.3427
531.078	32.1166
531.13	36.0536
531.182	36.951
531.234	31
531.287	37.0793
531.339	36
531.391	38.5163
531.443	35.4271
531.496	35.0513
531.548	40
531.6	36.4755
531.652	27.4942
531.705	36.021
531.757	41.4988
531.809	39.9977
531.861	33.5245
531.914	29.4942
531.966	32.9848
532.018	37.0186
532.07	28.9767
532.123	36
532.175	36.5175
532.227	37.4406
532.279	31.1727
532.332	28.9534
532.384	34.8974
532.436	33
532.488	32.1212
532.541	38.7433
532.593	37.669
532.645	36.0723
532.697	28.6189
532.75	32.3757
532.802	33.4569
532.854	32.5455
532.906	35.4522
532.958	34.252
533.011	40.6573
533.063	30.4382
533.115	30.1002
533.167	35.1179
533.22	30.4394
533.272	35.8718
533.324	36.5659
533.376	36.8648
533.429	37.2691
533.481	29.0078
533.533	30.1275
533.585	35.4686
533.638	37.449
533.69	33.8327
533.742	36.9178
533.794	36.3646
533.846	38.2425
533.899	38.4855
533.951	29.894
534.003	35.0592
534.055	33.5904
534.108	33.3734
534.16	31.3737
534.212	35.5092
534.264	39.673
534.316	30.7929
534.369	34.5985
534.421	40
534.473	38.8367
534.525	32.9923
534.578	35.9459
534.63	39.3196
534.682	35.6455
534.734	32.8228
534.786	36.4845
534.839	38.9333
534.891	35.882
534.943	35.897
534.995	31.9316
535.047	35.9341
535.1	37.921
535.152	36.6008
535.204	38.2534
535.256	37.5998
535.309	38.0494
535.361	38.7069
535.413	30.5541
535.465	35.9177
535.517	39.8041
535.57	33.2147
535.622	32.445
535.674	35.2162
535.726	38.0361
535.778	31.6284
535.831	31.1813
535.883	37.2239
535.935	38.8051
535.987	36.053
536.039	32.717
536.092	37.6524
536.144	36
536.196	30.9725
536.248	32.9832
536.301	35.9712
536.353	35.8093
536.405	37.7948
536.457	35.1288
536.509	44.5057
536.562	40.9116
536.614	33.4034
536.666	31.4313
536.718	39.107
536.77	37.7974
536.823	34.9045
536.875	34.7378
536.927	36.969
536.979	34.6611
537.031	34.7046
537.083	31.9767
537.136	36.5976
537.188	36.1429
537.24	32.8846
537.292	39.2603
537.344	38.8477
537.397	31.0312
537.449	34.7099
537.501	37.9646
537.553	33.6145
537.605	33.0272
537.658	30.3593
537.71	34.6558
537.762	39.0246
537.814	38.3536
537.866	35.3268
537.919	38.5795
537.971	36.9593
538.023	42.3914
538.075	37.5494
538.127	35.2877
538.18	34.5967
538.232	37.4079
538.284	34
538.336	38.5976
538.388	41.931
538.44	34.9542
538.493	33.4689
538.545	38.5634
538.597	40.2744
538.649	34.6047
538.701	35.7501
538.754	39.4655
538.806	39.9456
538.858	42.2885
538.91	37.9818
538.962	37.7384
539.014	35.045
539.067	39.8278
539.119	36.4076
539.171	40.5458
539.223	34.6119
539.275	35.0501
539.327	36.0712
539.38	33.8883
539.432	36.8185
539.484	39.6463
539.536	33.0806
539.588	38.0793
539.641	37.6939
539.693	42.7624
539.745	34.4384
539.797	37.8704
539.849	37.1833
539.901	40.1374
539.954	35.7509
540.006	42.9739
540.058	37.3047
540.11	40.4341
540.162	37.8063
540.214	38.7117
540.267	43.5166
540.319	42.303
540.371	36.4317
540.423	44.4066
540.475	43.1818
540.527	36.701
540.58	34.0469
540.632	39.2887
540.684	44.7644
540.736	36.3187
540.788	41.0622
540.84	45.3215
540.892	36.2886
540.945	34.5756
540.997	33.706
541.049	39.0128
541.101	39.5316
541.153	40.3327
541.205	42.4129
541.258	40.446
541.31	31.8201
541.362	40.8023
541.414	38.411
541.466	40.7196
541.518	45.3998
541.57	40.5169
541.623	31.0645
541.675	38.3608
541.727	39.4951
541.779	39.0221
541.831	36.448
541.883	38.362
541.936	38.6414
541.988	37.3545
542.04	42.3965
542.092	36.8692
542.144	44.1076
542.196	39.6052
542.248	39.3074
542.301	47.7722
542.353	39.871
542.405	34.7632
542.457	40.2836
542.509	39.2288
542.561	36.2855
542.613	34.0711
542.666	40.8743
542.718	36.9817
542.77	46.1673
542.822	38.018
542.874	44
542.926	44.8513
542.978	40.0471
543.031	36.0302
543.083	46.1914
543.135	44.8245
543.187	38.073
543.239	32.6058
543.291	45.2591
543.343	40.8676
543.396	36.3344
543.448	38.9272
543.5	46.5992
543.552	41.9299
543.604	39.1284
543.656	33.1724
543.708	44.6208
543.76	44.517
543.813	42.9139
543.865	34.8441
543.917	47.5944
543.969	38.8716
544.021	48.4123
544.073	42.009
544.125	47.296
544.177	45.7323
544.23	45.6282
544.282	33.9394
544.334	48.3356
544.386	33.5193
544.438	46.5663
544.49	35.655
544.542	40.5366
544.594	42.1664
544.647	39.846
544.699	43.3789
544.751	42.4581
544.803	38.3424
544.855	46.7026
544.907	33.8517
544.959	39.5112
545.011	44.1237
545.064	38.592
545.116	43.6324
545.168	47.2397
545.22	44.0889
545.272	39.7875
545.324	38.429
545.376	41.6425
545.428	47.1075
545.48	40.7701
545.533	45.3577
545.585	46.0841
545.637	42.6673
545.689	47.1416
545.741	42.942
545.793	43.5922
545.845	45.7887
545.897	44.4045
545.949	42.4018
546.002	50.3215
546.054	43.5908
546.106	42.09
546.158	45.3775
546.21	47.7207
546.262	51.1571
546.314	41.9753
546.366	41.7673
546.418	47.0453
546.471	46.3279
546.523	49.217
546.575	48.3569
546.627	46.3548
546.679	49.2289
546.689	49.9586
546.741	46
546.793	45.939
546.845	43.9094
546.898	45.9811
546.95	46.0352
547.002	51.8546
547.054	36.0656
547.106	51.7454
547.159	38.105
547.211	49.6607
547.263	55.4874
547.315	45.874
547.368	49.8946
547.42	47.8531
547.472	41.8487
547.524	47.7642
547.577	45.7429
547.629	57.1445
547.681	49.6111
547.733	44.0578
547.785	42.3517
547.838	57.3183
547.89	44.1201
547.942	55.8321
547.994	42.4273
548.047	45.9342
548.099	45.9496
548.151	49.84
548.203	42.5259
548.255	55.424
548.308	49.6754
548.36	45.9192
548.412	45.9413
548.464	45.5544
548.517	49.1693
548.569	51.6637
548.621	48.0938
548.673	62.5778
548.725	47.8019
548.778	55.458
548.83	46.5195
548.882	55.2262
548.934	47.56
548.987	46.2571
549.039	51.738
549.091	51.6148
549.143	46.5744
549.195	52.2177
549.248	46.1266
549.3	51.5334
549.352	51.8678
549.404	52
549.456	48.0305
549.509	58.1524
549.561	44.5634
549.613	50.5479
549.665	53.9778
549.718	62.2383
549.77	67.3249
549.822	53.6128
549.874	50.5743
549.926	56.9642
549.979	58.2799
550.031	51.8433
550.083	57.7335
550.135	52.0738
550.187	62.1921
550.24	52.7324
550.292	52.1916
550.344	61.142
550.396	56.2923
550.448	54.7829
550.501	48.5971
550.553	56.6914
550.605	64.2625
550.657	50.0574
550.709	60.2205
550.762	64.5162
550.814	64.8182
550.866	56.7525
550.918	58.554
550.97	63.5427
551.023	65.559
551.075	58.8907
551.127	65.6842
551.179	70.4414
551.231	71.2205
551.284	65.8239
551.336	72.995
551.388	68.1809
551.44	76.9717
551.492	63.7491
551.545	71.8427
551.597	76.9132
551.649	85.263
551.701	78.1034
551.753	88.8269
551.806	84.2203
551.858	93.0241
551.91	85.832
551.962	101.003
552.014	111.573
552.067	121.02
552.119	122.356
552.171	148.363
552.223	169.987
552.275	209.193
552.327	244.973
552.38	373.19
552.432	808.211
552.484	1652.68
552.536	3104.11
552.588	5563.66
552.641	8795.48
552.693	10542
552.745	7693.28
552.797	4007.28
552.849	1577.81
552.901	629.569
552.954	337.203
553.006	238.583
553.058	189.45
553.11	157.204
553.162	130.604
553.215	118.167
553.267	114.416
553.319	101.523
553.371	100.319
553.423	87.1903
553.475	86.6292
553.528	85.4606
553.58	86.1987
553.632	75.6882
553.684	72.4263
553.736	78.0619
553.788	75.7847
553.841	80.7198
553.893	64.6456
553.945	68.8751
553.997	71.0379
554.049	72.7321
554.102	68.7625
554.154	69.93
554.206	66.1582
554.258	77.3776
554.31	66.619
554.362	70.6202
554.414	72.9015
554.467	74.6595
554.519	67.712
554.571	63.8005
554.623	66.5765
554.675	63.8206
554.727	71.8425
554.78	68.8444
554.832	63.5148
554.884	66.7617
554.936	69.2393
554.988	70.9895
555.04	63.6444
555.093	70.5344
555.145	68.5265
555.197	69.3987
555.249	60.4707
555.301	63.3774
555.353	67.9143
555.406	69.8264
555.458	66.8135
555.51	66.6421
555.562	61.7974
555.614	61.5244
555.666	66.6829
555.719	65.2115
555.771	69.4791
555.823	67.153
555.875	73.1109
555.927	64
555.979	70.3171
556.031	65.4578
556.084	66.5672
556.136	74.4732
556.188	66.5233
556.24	70.8017
556.292	67.9842
556.344	62.5384
556.396	72.0157
556.449	64.7701
556.501	65.382
556.553	69.6233
556.605	72.1534
556.657	65.1582
556.709	71.1026
556.762	66.6421
556.814	78.6754
556.866	62.1248
556.918	76.1187
556.97	66.3914
557.022	76.8153
557.074	66.651
557.127	77.913
557.179	70.6531
557.231	68.4427
557.283	73.7935
557.335	72.3879
557.387	72.0194
557.439	71.3334
557.492	67.1946
557.544	70.3541
557.596	73.8967
557.648	71.1693
557.7	74.7746
557.752	82.5401
557.804	67.7586
557.856	74.869
557.909	75.6587
557.961	78.5239
558.013	71.4431
558.065	73.3993
558.117	65.7447
558.169	71.1527
558.221	77.3977
558.273	77.9928
558.326	73.7678
558.378	82.4467
558.43	75.3348
558.482	72.893
558.534	73.1052
558.586	80.1858
558.638	82.6886
558.691	73.6682
558.743	78.3715
558.795	74
558.847	84.6231
558.899	76.5071
558.951	75.451
559.003	83.2261
559.055	74.8314
559.108	80.5931
559.16	74.738
559.212	79.9191
559.264	77.4738
559.316	77.4891
559.368	75.9105
559.42	76.3054
559.472	82.8241
559.525	78.1911
559.577	87.9144
559.629	88.0856
559.681	84.8419
559.733	80.0561
559.785	77.3892
559.837	81.6329
559.889	80.255
559.941	82.6235
559.994	77.5066
560.046	75.8071
560.098	75.3113
560.15	78.3737
560.202	86
560.254	78.3803
560.306	81.6891
560.358	78.9545
560.41	87.037
560.463	82.2926
560.515	81.8324
560.567	83.5148
560.619	80.9475
560.671	88.5547
560.723	87.2593
560.775	87.8515
560.827	87.7276
560.879	87.8021
560.932	82.5028
560.984	84.9996
561.036	77.6086
561.088	83.1737
561.14	76.0541
561.192	80.8317
561.244	83.7381
561.296	86.4149
561.348	90.5432
561.4	88.2109
561.453	93.4114
561.505	90.3889
561.557	90.2451
561.609	93.6508
561.661	90.6682
561.713	91.5111
561.765	92.9717
561.817	92.284
561.869	94.8541
561.921	96.1803
561.974	91.7656
562.026	91.7856
562.078	94.7923
562.13	87.403
562.182	91.7072
562.234	90.4385
562.286	94.0674
562.338	94.4572
562.39	96.886
562.442	94.8397
562.494	93.8293
562.547	98.428
562.599	95.1157
562.651	100.796
562.703	89.5596
562.755	99.2422
562.807	97.5685
562.859	92.8381
562.911	91.8422
562.963	93.5067
563.015	99.673
563.067	107.058
563.12	98.5534
563.172	92.5234
563.224	95.4697
563.276	97.2653
563.328	103.648
563.38	100.502
563.432	100.943
563.484	99.9609
563.536	102.942
563.588	97.1602
563.64	97.4393
563.692	100.076
563.744	102.447
563.797	104.905
563.849	106.901
563.901	104.224
563.953	103.132
564.005	98.3682
564.057	96.1118
564.109	102.293
564.161	100.626
564.213	107.272
564.265	103.086
564.317	107.631
564.369	108.581
564.421	102.863
564.474	105.205
564.526	108.274
564.578	109.072
564.63	105.992
564.682	103.288
564.734	107.454
564.786	108.491
564.838	109.606
564.89	111.036
564.942	102.447
564.994	108.287
565.046	106.244
565.098	107.759
565.15	106.15
565.202	109.26
565.255	109.633
565.307	111.275
565.359	107.822
565.411	104.589
565.463	113.896
565.515	117.733
565.567	114.478
565.619	102.486
565.671	110.024
565.723	117.564
565.775	118.324
565.827	111.041
565.879	115.197
565.931	112.256
565.983	122.252
566.035	120.372
566.087	116.44
566.139	120.463
566.192	117.33
566.244	116.197
566.296	113.764
566.348	113.354
566.4	114.703
566.452	113.07
566.504	114.864
566.556	116.065
566.608	114.616
566.66	114.359
566.712	122.49
566.764	121.068
566.816	123.377
566.868	123.807
566.92	118.02
566.972	123.945
567.024	117.894
567.076	116.079
567.128	120.167
567.18	121.569
567.232	121.867
567.285	118.13
567.337	124.078
567.389	126.482
567.441	118.556
567.493	121.576
567.545	126.142
567.597	135.104
567.649	128.846
567.701	129.461
567.753	127.727
567.805	127.473
567.857	124.125
567.909	130.235
567.961	130.805
568.013	132.012
568.065	126.089
568.117	127.752
568.169	138.212
568.221	138.747
568.273	129.929
568.325	127.078
568.377	132.061
568.429	130.369
568.481	124.72
568.533	136.491
568.585	143.33
568.637	136.948
568.69	134.16
568.742	140.288
568.794	140.971
568.846	141.27
568.898	134.082
568.95	137.806
569.002	142.919
569.054	132.958
569.106	134.745
569.158	144.309
569.21	138.282
569.262	139.558
569.314	137.774
569.366	137.652
569.418	145.102
569.47	146.65
569.522	144.468
569.574	143.831
569.626	143.314
569.678	147.925
569.73	151.599
569.782	142.366
569.834	138.27
569.886	141.888
569.938	150.073
569.99	152.27
570.042	151.974
570.094	140.891
570.146	139.988
570.198	153.031
570.25	152.746
570.302	153.591
570.354	152.524
570.406	149.568
570.458	151.723
570.51	153.444
570.562	155.535
570.614	161.334
570.666	163.271
570.718	159.873
570.77	159.558
570.822	164.259
570.874	159.599
570.926	159.365
570.978	156.346
571.03	162.038
571.082	173.325
571.134	174.877
571.186	167.415
571.238	171.79
571.29	176.754
571.342	175.807
571.394	172.39
571.446	167.822
571.498	181.376
571.55	176.652
571.602	180.341
571.654	187.057
571.706	184.916
571.758	183.143
571.81	188.15
571.862	183.459
571.914	189.597
571.966	193.581
572.018	194.225
572.07	192.417
572.122	195.757
572.174	189.926
572.226	185.918
572.278	198.546
572.33	199.862
572.382	193.048
572.434	204.749
572.486	206.921
572.538	210.838
572.59	218.005
572.642	211.714
572.694	210.622
572.746	220.513
572.798	220.251
572.85	219.475
572.902	222.423
572.954	214.177
573.006	217.424
573.058	227.134
573.11	236.469
573.162	241.474
573.214	241.16
573.266	246.988
573.302	253.969
573.355	259.835
573.407	243.885
573.459	251.875
573.511	273.8
573.563	259.997
573.615	240.215
573.667	254.19
573.719	273.958
573.772	279.776
573.824	271.901
573.876	269.868
573.928	278.001
573.98	283.909
574.032	307.16
574.084	290.001
574.136	295.96
574.188	303.475
574.241	315.066
574.293	317.458
574.345	330.98
574.397	339.208
574.449	341.242
574.501	348.986
574.553	323.222
574.605	378.451
574.657	357.759
574.71	350.793
574.762	356.882
574.814	388.958
574.866	381.248
574.918	400.5
574.97	391.566
575.022	396.613
575.074	386.014
575.126	407.652
575.178	411.729
575.231	413.783
575.283	442.102
575.335	417.73
575.387	428.835
575.439	430.634
575.491	445.988
575.543	445.91
575.595	424.827
575.647	455.709
575.7	464.537
575.752	439.767
575.804	455.41
575.856	466.862
575.908	443.827
575.96	459.137
576.012	452.814
576.064	465.832
576.116	465.018
576.168	430.504
576.22	476.922
576.273	463.346
576.325	447.086
576.377	465.255
576.429	453.462
576.481	433.954
576.533	425.249
576.585	434.295
576.637	428.124
576.689	419.634
576.741	415.793
576.793	417.081
576.846	417.638
576.898	396.056
576.95	412.327
577.002	405.679
577.054	379.636
577.106	387.815
577.158	394.03
577.21	374.335
577.262	376.613
577.314	356.348
577.366	372.232
577.418	374.306
577.471	362.068
577.523	351.986
577.575	361.98
577.627	362.215
577.679	343.435
577.731	349.198
577.783	355.819
577.835	349.051
577.887	330.693
577.939	320.589
577.991	332.263
578.043	328.591
578.095	333.413
578.148	325.052
578.2	320.183
578.252	316.009
578.304	324.425
578.356	310.562
578.408	310.932
578.46	314.957
578.512	307.622
578.564	309.014
578.616	316.269
578.668	306.415
578.72	301.063
578.772	284.136
578.824	295.296
578.877	301.633
578.929	304.212
578.981	278.59
579.033	295.244
579.085	302.568
579.137	288.992
579.189	277.742
579.241	290.91
579.293	288.224
579.345	282.574
579.397	279.346
579.449	281.412
579.501	302.262
579.553	273.306
579.605	276.904
579.658	283.428
579.71	306.675
579.762	297.4
579.814	286.627
579.866	278.614
579.918	287.183
579.97	284.271
580.022	278.9
580.074	281.623
580.126	290.463
580.178	283.898
580.23	294.824
580.282	289.573
580.334	300.831
580.386	290.719
580.438	266.047
580.49	300.199
580.542	288.393
580.595	292.714
580.647	284.381
580.699	296.613
580.751	303.872
580.803	285.469
580.855	289.468
580.907	295.263
580.959	302.286
581.011	272.85
581.063	297.06
581.115	299.163
581.167	301.558
581.219	283.153
581.271	290.417
581.323	290.32
581.375	280.576
581.427	307.228
581.479	282.139
581.531	303.746
581.583	293.648
581.635	287.631
581.688	300.752
581.74	305.357
581.792	304.681
581.844	294.021
581.896	298.066
581.948	291.075
582	313.125
582.052	298.217
582.104	289.493
582.156	301.812
582.208	315.434
582.26	314.119
582.312	315.982
582.364	323.795
582.416	315.663
582.468	304.241
582.52	316.294
582.572	313.031
582.624	309.611
582.676	310.013
582.728	317.172
582.78	304.891
582.832	316.513
582.884	311.644
582.936	314.801
582.988	329.525
583.04	310.01
583.092	324.107
583.144	315.509
583.196	326.826
583.249	334.246
583.301	331.82
583.353	318.629
583.405	319.938
583.457	326.975
583.509	316.323
583.561	321.097
583.613	325.667
583.665	330.213
583.717	335.369
583.769	328.303
583.821	336.262
583.873	320.487
583.925	338.608
583.977	330.379
584.029	335.418
584.081	339.71
584.133	342.892
584.185	349.384
584.237	330.449
584.289	342.863
584.341	350.904
584.393	341.314
584.445	346.118
584.497	346.079
584.549	353.392
584.601	357.259
584.653	362.547
584.705	357.036
584.757	342.539
584.809	364.376
584.861	349.836
584.913	364.768
584.965	353.799
585.017	360.196
585.069	360.455
585.121	356.852
585.173	372.862
585.225	371
585.277	372.146
585.329	364.897
585.381	352.594
585.433	369.796
585.485	367.439
585.537	358.624
585.589	370.436
585.641	374.933
585.693	368.697
585.745	376.246
585.797	379.189
585.849	374.742
585.901	373.278
585.953	381.16
586.005	378.936
586.057	378.427
586.109	384.73
586.161	373.546
586.213	393.007
586.265	384.343
586.317	376.223
586.369	383.718
586.421	368.361
586.473	385.722
586.525	382.205
586.577	386.623
586.629	391.966
586.681	381.933
586.733	398.793
586.785	386.575
586.837	402.819
586.889	395.09
586.941	395.109
586.993	377.138
587.045	402.537
587.097	402.745
587.149	395.387
587.201	390.718
587.253	395.379
587.305	395.42
587.357	402.631
587.409	393.986
587.461	406.869
587.513	413.738
587.565	412.984
587.617	395.31
587.669	394.796
587.721	406.725
587.773	411.744
587.825	413.389
587.877	402.699
587.929	409.604
587.981	412.164
588.033	417.539
588.085	406.385
588.137	412.959
588.189	411.909
588.241	400.426
588.293	400.583
588.345	416.331
588.397	397.724
588.449	424.315
588.501	411.455
588.552	422.229
588.604	420.899
588.656	404.575
588.708	419.691
588.76	427.468
588.812	428.15
588.864	431.926
588.916	417.788
588.968	420.909
589.02	418.406
589.072	422.48
589.124	447.911
589.176	428.511
589.228	429.787
589.28	424.766
589.332	433.336
589.384	424.488
589.436	410.994
589.488	423.647
589.54	431.078
589.592	434.331
589.644	432.182
589.696	432.201
589.748	425.93
589.8	438.576
589.852	433.971
589.904	433.735
589.956	425.745
590.008	443.455
590.06	430.236
590.112	421.38
590.163	418.109
590.215	438.404
590.267	438.542
590.319	420.203
590.371	433.853
590.423	417.39
590.475	439.835
590.527	435.806
590.579	428.879
590.631	438.119
590.683	424.398
590.735	432.521
590.787	444.434
590.839	416.413
590.891	411.72
590.943	405.994
590.995	412.943
591.047	416.594
591.099	415.959
591.151	416.305
591.203	426.305
591.254	428.145
591.306	410.05
591.358	416.253
591.41	425.193
591.462	419.381
591.514	426.221
591.566	416.707
591.618	419.94
591.67	405.29
591.722	401.985
591.774	406.403
591.826	409.561
591.878	409.066
591.93	404.543
591.982	415.585
592.034	408.923
592.086	400.609
592.137	394.764
592.189	405.34
592.241	411.802
592.293	413.414
592.345	417.005
592.397	413.938
592.449	406.973
592.501	391.951
592.553	396.319
592.605	404.636
592.657	394.121
592.709	407.092
592.761	395.01
592.813	407.507
592.865	405.319
592.916	397.559
592.968	396.514
593.02	406.256
593.072	396.922
593.124	399.789
593.176	390.787
593.228	395.146
593.28	410.211
593.332	393.338
593.384	395.941
593.436	399.283
593.488	397.236
593.54	395.03
593.591	399.615
593.643	402.595
593.695	398.131
593.747	400.826
593.799	396.843
593.851	398.607
593.903	402.727
593.955	398.265
594.007	405.119
594.059	411.637
594.111	411.18
594.163	403.238
594.215	391.746
594.266	408.303
594.318	413.328
594.37	410.539
594.422	397.629
594.474	411.073
594.526	413.823
594.578	407.178
594.63	401.939
594.682	411.482
594.734	413.387
594.786	417.156
594.837	412.034
594.889	400.508
594.941	419.628
594.993	407.953
595.045	402.408
595.097	406.731
595.149	408.258
595.201	411.025
595.253	412.452
595.305	415.443
595.357	432.424
595.408	423.991
595.46	424.248
595.512	423.981
595.564	408.56
595.616	407.84
595.668	423.47
595.72	437.236
595.772	422.5
595.824	411.099
595.876	412.658
595.927	427.819
595.979	426.25
596.031	420.557
596.083	423.943
596.135	422.323
596.187	427.065
596.239	431.732
596.291	429.522
596.343	425.504
596.394	431.488
596.446	430.921
596.498	441.916
596.55	440.143
596.602	424.939
596.654	420.727
596.706	430.059
596.758	434.002
596.81	439.412
596.862	436.584
596.913	425.841
596.965	430.323
597.017	435.232
597.069	431.18
597.121	438.391
597.173	442.224
597.225	430.481
597.277	422.772
597.328	419.956
597.38	420.322
597.432	432.651
597.484	439.35
597.536	434.653
597.588	433.223
597.64	425.306
597.692	424.858
597.744	416.335
597.795	425.572
597.847	436.998
597.899	429.329
597.951	432.082
598.003	430.878
598.055	426.818
598.107	426.153
598.159	414.239
598.21	423.615
598.262	431.477
598.314	423.256
598.366	418.189
598.418	429.47
598.47	431.175
598.522	429.446
598.574	435.828
598.625	435.386
598.677	433.436
598.729	442.738
598.781	445.771
598.833	445.566
598.885	447.149
598.937	452.404
598.988	448.823
599.04	443.27
599.092	451.771
599.144	441.315
599.196	450.046
599.248	460.096
599.3	451.652
599.352	453.518
599.403	459.938
599.455	455.238
599.507	447.707
599.559	442.833
599.611	454.017
599.663	440.405
599.715	447.518
599.766	445.051
599.803	451.994
599.855	453.975
599.907	451.863
599.959	440.034
600.011	442.105
600.063	463.878
600.115	445.896
600.167	455.695
600.219	445.689
600.271	457.723
600.323	438.323
600.375	453.407
600.427	457.728
600.479	470.942
600.531	461.075
600.583	451.074
600.635	472.993
600.686	473.292
600.738	467.081
600.79	465.45
600.842	451.675
600.894	443.894
600.946	447.293
600.998	431.913
601.05	441.564
601.102	476.679
601.154	455.206
601.206	444.599
601.258	451.006
601.31	477.619
601.362	471.15
601.414	436.876
601.466	471.058
601.518	463.544
601.57	468.383
601.622	447.861
601.674	473.843
601.726	457.947
601.778	467.013
601.83	450.002
601.882	464.876
601.934	466.759
601.986	459.516
602.038	471.453
602.09	477.393
602.142	479.334
602.194	471.271
602.246	473.779
602.298	462.675
602.35	462.729
602.402	479.996
602.454	460.427
602.506	488.063
602.558	455.791
602.61	464.931
602.662	467.123
602.714	442.049
602.766	474.804
602.818	470.199
602.87	471.849
602.922	457.829
602.974	461.349
603.026	469.107
603.078	479.45
603.13	467.668
603.182	457.115
603.234	470.217
603.285	463.71
603.337	465.928
603.389	481.014
603.441	477.888
603.493	459.364
603.545	470.102
603.597	465.929
603.649	449.258
603.701	472.393
603.753	469.228
603.805	475.028
603.857	449.101
603.909	480.238
603.961	481.298
604.013	495.033
604.065	462.967
604.117	484.62
604.169	451.268
604.221	472.264
604.273	470.8
604.325	482.215
604.377	441.576
604.429	459.69
604.481	484.486
604.533	471.536
604.584	489.611
604.636	481.156
604.688	465.068
604.74	491.15
604.792	479.117
604.844	479.238
604.896	459.686
604.948	467.132
605	492.255
605.052	486.466
605.104	496.947
605.156	471.026
605.208	485.592
605.26	470.104
605.312	469.445
605.364	467.227
605.416	476.789
605.468	467.112
605.52	461.619
605.572	482.758
605.623	464.462
605.675	483.861
605.727	478.54
605.779	470.013
605.831	494.92
605.883	475.967
605.935	478.596
605.987	498.431
606.039	471.727
606.091	474.595
606.143	463.29
606.195	469.827
606.247	463.83
606.299	484.028
606.351	473.012
606.403	479.701
606.455	480.572
606.506	470.387
606.558	481.315
606.61	476.33
606.662	462.63
606.714	472.362
606.766	491.688
606.818	488.929
606.87	470.072
606.922	479.891
606.974	474.141
607.026	459.46
607.078	474.582
607.13	467.743
607.182	498.001
607.234	480.138
607.285	481.859
607.337	487.214
607.389	464.287
607.441	485.795
607.493	487.907
607.545	480.314
607.597	477.214
607.649	478.487
607.701	484.549
607.753	459.996
607.805	476.275
607.857	476.171
607.909	473.082
607.96	480.755
608.012	487.381
608.064	498.855
608.116	493.938
608.168	473.02
608.22	493.45
608.272	491.314
608.324	490.318
608.376	482.941
608.428	487.954
608.48	497.015
608.532	476.393
608.583	481.751
608.635	496.116
608.687	491.942
608.739	503.658
608.791	476.077
608.843	493.755
608.895	493.797
608.947	489.099
608.999	487.088
609.051	503.534
609.103	513.845
609.155	481.82
609.206	490.389
609.258	502.705
609.31	502.37
609.362	494.459
609.414	484.083
609.466	517.638
609.518	481.52
609.57	482.924
609.622	497.405
609.674	506.066
609.725	499.775
609.777	501.469
609.829	493.699
609.881	498.919
609.933	490.713
609.985	494.336
610.037	512.246
610.089	507.679
610.141	507.966
610.193	516.723
610.245	498.643
610.296	523.256
610.348	487.566
610.4	491.148
610.452	508.395
610.504	512.496
610.556	522.548
610.608	512.22
610.66	509.24
610.712	517.466
610.763	498.446
610.815	513.436
610.867	513.445
610.919	523.816
610.971	518.428
611.023	509.357
611.075	517.295
611.127	517.651
611.179	512.229
611.23	493.271
611.282	512.991
611.334	511.769
611.386	505.319
611.438	520.707
611.49	523.017
611.542	512.8
611.594	521.142
611.646	520.219
611.697	525.551
611.749	518.269
611.801	511.5
611.853	500.348
611.905	523.435
611.957	510.353
612.009	514.519
612.061	519.451
612.113	530.787
612.164	534.691
612.216	528.45
612.268	535.341
612.32	532.018
612.372	523.158
612.424	520.174
612.476	519.716
612.528	540.167
612.579	530.389
612.631	523.697
612.683	536.448
612.735	516.008
612.787	526.847
612.839	546.872
612.891	544.006
612.943	536.21
612.994	528.88
613.046	543.581
613.098	541.434
613.15	538.962
613.202	526.336
613.254	525.55
613.306	549.364
613.357	539.278
613.409	531.743
613.461	538.161
613.513	543.617
613.565	536.445
613.617	544.829
613.669	540.258
613.721	546.339
613.772	553.459
613.824	534.153
613.876	538.658
613.928	557.67
613.98	540.036
614.032	541.629
614.084	536.419
614.135	554.245
614.187	564.338
614.239	553.133
614.291	558.652
614.343	575.541
614.395	559.828
614.447	560.613
614.498	557.96
614.55	546.049
614.602	557.963
614.654	569.348
614.706	565.413
614.758	579.991
614.81	579.559
614.861	577.788
614.913	567.359
614.965	556.96
615.017	574.491
615.069	555.348
615.121	566.718
615.172	567.935
615.224	577.252
615.276	580.803
615.328	579.844
615.38	586.043
615.432	586.113
615.484	581.589
615.535	560.701
615.587	577.756
615.639	589.677
615.691	583.323
615.743	597.518
615.795	578.602
615.846	574.202
615.898	585.449
615.95	599.744
616.002	584.906
616.054	602.293
616.106	601.02
616.158	596.427
616.209	600.037
616.261	595.152
616.313	584.557
616.365	590.962
616.417	585.302
616.469	580.639
616.52	599.38
616.572	597.214
616.624	588.932
616.676	579.421
616.728	597.944
616.78	607.458
616.831	612.159
616.883	605.563
616.935	590.171
616.987	602.54
617.039	615.384
617.091	597.999
617.142	606.003
617.194	597.514
617.246	623.856
617.298	623.925
617.35	622.346
617.401	615.369
617.453	616.357
617.505	633.093
617.557	617.352
617.609	629.486
617.661	633.277
617.712	626.577
617.764	618.54
617.816	622.376
617.868	613.389
617.92	639.012
617.972	621.783
618.023	618.114
618.075	612.666
618.127	631.601
618.179	638.714
618.231	635.988
618.282	637.084
618.334	638.59
618.386	649.667
618.438	628.322
618.49	643.591
618.542	652.336
618.593	631.885
618.645	628.166
618.697	639.912
618.749	646.486
618.801	643.083
618.852	653.951
618.904	647.81
618.956	624.179
619.008	651.123
619.06	667.502
619.111	646.854
619.163	665.967
619.215	648.4
619.267	646.996
619.319	671.725
619.37	669.118
619.422	660.067
619.474	665.985
619.526	648.798
619.578	664.197
619.63	677.691
619.681	666.518
619.733	665.395
619.785	661.099
619.837	654.135
619.888	673.422
619.94	672.083
619.992	668.353
620.044	650.559
620.096	682.225
620.147	677.825
620.199	669.244
620.251	662.33
620.303	649.66
620.355	672.833
620.406	668.963
620.458	675.989
620.51	685.714
620.562	685.551
620.614	674.949
620.665	669.669
620.717	674.68
620.769	671.826
620.821	694.113
620.873	668.435
620.924	670.248
620.976	686.96
621.028	693.964
621.08	696.968
621.132	681.037
621.183	699.925
621.235	696.998
621.287	680.256
621.339	709.333
621.39	681.647
621.442	683.248
621.494	699.132
621.546	714.402
621.598	683.989
621.649	687.618
621.701	686.203
621.753	692.423
621.805	695.361
621.856	711.822
621.908	673.725
621.96	692.55
622.012	697.019
622.064	685.432
622.115	705.869
622.167	694.89
622.219	686.032
622.271	679.317
622.322	689.439
622.374	702.675
622.426	702.39
622.478	707.989
622.53	702.423
622.581	687.4
622.633	712.463
622.685	713.848
622.737	690.645
622.788	679.998
622.84	714.207
622.892	714.02
622.944	694.324
622.995	700.612
623.047	692.579
623.099	705.767
623.151	677.444
623.203	703.764
623.254	688.321
623.306	710.674
623.358	684.045
623.41	698.695
623.461	701.827
623.513	687.187
623.565	677.732
623.617	708.229
623.668	712.325
623.72	713.354
623.772	697.906
623.824	725.426
623.875	711.643
623.927	700.603
623.979	717.439
624.031	731.341
624.082	725.877
624.134	720.279
624.186	700.755
624.238	690.566
624.289	695.272
624.341	704.197
624.393	734.536
624.445	716.846
624.496	715.758
624.548	706.42
624.6	702.244
624.652	721.416
624.703	713.862
624.755	710.49
624.807	713.87
624.859	701.023
624.91	747.459
624.962	742.21
625.014	727.582
625.066	725.243
625.117	713.998
625.169	728.462
625.221	724.256
625.273	748.381
625.324	738.518
625.376	731.211
625.428	723.851
625.48	728.256
625.531	743.034
625.583	738.741
625.635	717.948
625.687	730.007
625.738	759.678
625.79	747.007
625.842	733.737
625.893	752.612
625.945	761.101
625.997	720.214
626.049	747.753
626.1	755.762
626.152	732.717
626.204	746.677
626.256	743.461
626.307	731.993
626.316	729.887
626.368	745.768
626.42	734.082
626.472	775.365
626.523	724.146
626.575	759.309
626.627	735.539
626.679	768.89
626.731	773.64
626.783	728.412
626.835	760.16
626.887	761.616
626.938	745.951
626.99	763.8
627.042	722.421
627.094	746.747
627.146	768.796
627.198	754.527
627.25	720.519
627.302	782.382
627.353	758.646
627.405	742.132
627.457	762.518
627.509	770.757
627.561	748.48
627.613	726.216
627.665	755.526
627.716	777.942
627.768	764.235
627.82	769.211
627.872	768.783
627.924	787.535
627.976	753.457
628.028	769.614
628.079	777.458
628.131	794.84
628.183	763.265
628.235	773.294
628.287	800.155
628.339	788.253
628.391	790.387
628.443	789.956
628.494	761.825
628.546	787.692
628.598	784.822
628.65	745.069
628.702	758.576
628.754	799.251
628.805	811.85
628.857	754.427
628.909	785.98
628.961	788.643
629.013	788.728
629.065	810.944
629.117	802.25
629.168	797.515
629.22	798.735
629.272	787.468
629.324	794.867
629.376	798.39
629.428	799.593
629.479	790.911
629.531	818.652
629.583	818.433
629.635	797.63
629.687	789.662
629.739	814.202
629.791	819.212
629.842	829.293
629.894	819.691
629.946	821.988
629.998	822.416
630.05	789.322
630.102	794.832
630.153	795.406
630.205	806.493
630.257	788.919
630.309	813.828
630.361	832.448
630.413	815.182
630.464	825.175
630.516	833.247
630.568	821.699
630.62	840.228
630.672	836.268
630.724	830.979
630.776	842.012
630.827	797.764
630.879	835.67
630.931	854.015
630.983	843.199
631.035	832.51
631.086	807.342
631.138	822.295
631.19	855.434
631.242	829.798
631.294	846.346
631.346	826.182
631.397	835.654
631.449	853.286
631.501	834.488
631.553	868.317
631.605	843.784
631.657	834.513
631.708	832.104
631.76	853.8
631.812	859.459
631.864	854.325
631.916	845.271
631.967	880.223
632.019	871.648
632.071	865.495
632.123	866.979
632.175	865.506
632.227	884.654
632.278	878.248
632.33	895.082
632.382	880.689
632.434	886.636
632.486	908.309
632.537	866.82
632.589	885.768
632.641	892.426
632.693	898.503
632.745	894.411
632.797	871.869
632.848	896.476
632.9	891.875
632.952	889.408
633.004	878.723
633.056	904.264
633.107	906.016
633.159	892.722
633.211	904.288
633.263	889.783
633.315	912.096
633.366	894.546
633.418	889.128
633.47	895.634
633.522	897.594
633.574	894.723
633.625	904.703
633.677	930.103
633.729	934.718
633.781	911.553
633.833	894.555
633.885	921.06
633.936	908.608
633.988	926.573
634.04	921.222
634.092	918.653
634.143	934.964
634.195	921.72
634.247	944.732
634.299	930.265
634.351	946.667
634.403	939.379
634.454	943.088
634.506	927.134
634.558	958.206
634.61	940.679
634.661	951.783
634.713	954.995
634.765	968.964
634.817	950.298
634.869	966.984
634.92	967.127
634.972	969.886
635.024	973.545
635.076	996.179
635.128	996.217
635.179	985.371
635.231	997.769
635.283	993.258
635.335	1014.8
635.387	1007.53
635.438	1005.5
635.49	991.405
635.542	1008.6
635.594	1031.37
635.645	1022.4
635.697	1030.69
635.749	1034.82
635.801	1067.35
635.853	1031.89
635.904	1056.76
635.956	1067.02
636.008	1063.99
636.06	1085.73
636.112	1040.7
636.163	1072.31
636.215	1092.45
636.267	1095.62
636.319	1110.98
636.37	1095.19
636.422	1115.96
636.474	1138.57
636.526	1142.34
636.577	1154.84
636.629	1153.4
636.681	1172.38
636.733	1188.45
636.785	1219.58
636.836	1225.26
636.888	1217.12
636.94	1248.05
636.992	1255.98
637.043	1258.82
637.095	1266.87
637.147	1300.24
637.199	1315.53
637.25	1341.51
637.302	1350.53
637.354	1347.07
637.406	1373.5
637.458	1375.1
637.509	1413.32
637.561	1414.24
637.613	1453.1
637.665	1430.98
637.716	1456.44
637.768	1474.84
637.82	1506.75
637.872	1496.3
637.923	1501.31
637.975	1502.61
638.027	1525.24
638.079	1533.68
638.13	1552.2
638.182	1522.7
638.234	1536.69
638.286	1553.42
638.337	1541.43
638.389	1512.23
638.441	1551.23
638.493	1532.65
638.544	1541.44
638.596	1562.52
638.648	1538.83
638.7	1516.69
638.752	1525.31
638.803	1505.4
638.855	1504.79
638.907	1511.72
638.958	1475.04
639.01	1466.1
639.062	1478.79
639.114	1456.14
639.165	1443.35
639.217	1441.96
639.269	1438.63
639.321	1403.26
639.372	1386.68
639.424	1403.73
639.476	1373.14
639.528	1390.84
639.579	1379.22
639.631	1369.79
639.683	1373.14
639.735	1364.32
639.786	1353.59
639.838	1353.5
639.89	1323.84
639.942	1319.46
639.993	1311.72
640.045	1312.87
640.097	1302.63
640.149	1277.44
640.2	1310.32
640.252	1309.94
640.304	1292.46
640.356	1281.1
640.407	1273.44
640.459	1274.63
640.511	1256.95
640.562	1273.63
640.614	1250.84
640.666	1278.17
640.718	1253.61
640.769	1256.39
640.821	1257.87
640.873	1252.16
640.925	1248.55
640.976	1259.76
641.028	1238.68
641.08	1224.74
641.131	1222.79
641.183	1230.03
641.235	1210.42
641.287	1231.54
641.338	1228.75
641.39	1242.49
641.442	1238.02
641.494	1230.76
641.545	1247.47
641.597	1223.1
641.649	1217.65
641.7	1214.45
641.752	1234.09
641.804	1251.81
641.856	1229.36
641.907	1236.34
641.959	1210.48
642.011	1232.4
642.063	1213.98
642.114	1233
642.166	1227.2
642.218	1226.22
642.269	1210.15
642.321	1223.08
642.373	1205.26
642.424	1228.34
642.476	1236.7
642.528	1227.88
642.58	1228.2
642.631	1235.17
642.683	1242.68
642.735	1223.27
642.786	1229.62
642.838	1218.16
642.89	1213.31
642.942	1229.44
642.993	1233.13
643.045	1253.8
643.097	1254.07
643.148	1251.8
643.2	1220.48
643.252	1237.18
643.304	1247.58
643.355	1223.13
643.407	1239.44
643.459	1241.98
643.51	1233.19
643.562	1237
643.614	1245.86
643.665	1248.97
643.717	1238.85
643.769	1245.61
643.82	1214.24
643.872	1232.01
643.924	1243.22
643.976	1230.72
644.027	1242.32
644.079	1226.63
644.131	1239.17
644.182	1263.49
644.234	1259.84
644.286	1243.15
644.337	1266.59
644.389	1283.66
644.441	1254.84
644.493	1274.29
644.544	1275.13
644.596	1269.76
644.648	1276.92
644.699	1258.82
644.751	1284.28
644.803	1251.61
644.854	1269.83
644.906	1280.42
644.958	1265.78
645.009	1281.86
645.061	1274.86
645.113	1264.58
645.164	1280.82
645.216	1258.73
645.268	1281.82
645.32	1281.25
645.371	1271.03
645.423	1288
645.475	1311.54
645.526	1287.17
645.578	1276.86
645.63	1262.58
645.681	1291.68
645.733	1271.9
645.785	1271.11
645.836	1270.19
645.888	1281.91
645.94	1297.82
645.991	1281.85
646.043	1306.12
646.095	1308.63
646.146	1299.37
646.198	1290.2
646.25	1309.24
646.301	1290.84
646.353	1342.84
646.405	1312.03
646.456	1320.66
646.508	1313.11
646.56	1295.2
646.611	1306.4
646.663	1311.42
646.715	1330.46
646.766	1323.76
646.818	1294.92
646.87	1310.27
646.921	1332.69
646.973	1340.44
647.025	1304.76
647.076	1292.45
647.128	1341.82
647.18	1334.89
647.231	1326.62
647.283	1299.7
647.335	1312.05
647.386	1345.26
647.438	1345.85
647.49	1330.49
647.541	1314.79
647.593	1344.26
647.645	1340.94
647.696	1313.42
647.748	1340.79
647.8	1336.35
647.851	1340.8
647.903	1351.19
647.955	1358.38
648.006	1355.04
648.058	1368.34
648.109	1355.79
648.161	1364.23
648.213	1342.25
648.264	1316.07
648.316	1347.3
648.368	1347.87
648.419	1377.97
648.471	1383.73
648.523	1361.72
648.574	1332.02
648.626	1378.79
648.678	1354.38
648.729	1368.55
648.781	1373.65
648.833	1367.78
648.884	1378.85
648.936	1407.03
648.987	1382.78
649.039	1389.83
649.091	1367.05
649.142	1385.2
649.194	1369.14
649.246	1395.37
649.297	1409.33
649.349	1409.96
649.401	1421.37
649.452	1416.39
649.504	1393.33
649.555	1427.84
649.607	1416.48
649.659	1406.8
649.71	1446.5
649.762	1432.52
649.814	1393.68
649.865	1401.28
649.917	1426.11
649.969	1436.03
650.02	1408.38
650.072	1417.7
650.123	1411.21
650.175	1453.63
650.227	1463.11
650.278	1442.97
650.33	1428.26
650.382	1460.01
650.433	1460.48
650.485	1451.13
650.536	1451.34
650.588	1459.48
650.64	1472.65
650.691	1496.4
650.743	1475.9
650.795	1461.39
650.846	1437.15
650.898	1465.27
650.949	1471.32
651.001	1464.49
651.053	1498.2
651.104	1484.63
651.156	1469.65
651.208	1483.56
651.259	1489.15
651.311	1514.65
651.362	1528.78
651.414	1524.23
651.466	1479.86
651.517	1494.38
651.569	1497.84
651.62	1473.57
651.672	1478.94
651.724	1479.25
651.775	1482.41
651.827	1508.47
651.878	1515.44
651.93	1521.58
651.982	1514.26
652.033	1548.5
652.085	1511.71
652.137	1515.62
652.188	1505.02
652.24	1505.88
652.291	1531.42
652.343	1552.97
652.395	1532.65
652.446	1540.54
652.498	1533.06
652.549	1545.33
652.601	1536.26
652.653	1544.52
652.704	1554.82
652.756	1550.62
652.772	1548.17
652.824	1518.53
652.876	1524.48
652.927	1609.31
652.979	1569.91
653.031	1568.51
653.083	1590.67
653.134	1545.45
653.186	1580.4
653.238	1598.43
653.29	1580.81
653.341	1565.13
653.393	1568.94
653.445	1585.54
653.497	1571.13
653.548	1594.14
653.6	1583.08
653.652	1574.85
653.704	1601.82
653.755	1630.49
653.807	1607.02
653.859	1620.88
653.91	1622.44
653.962	1607.58
654.014	1615.52
654.066	1621.52
654.117	1664.79
654.169	1619.76
654.221	1660.14
654.273	1645.99
654.324	1655.17
654.376	1642.17
654.428	1615.43
654.48	1673.66
654.531	1656.47
654.583	1649.51
654.635	1647.72
654.686	1675.03
654.738	1698.58
654.79	1617.78
654.842	1676.78
654.893	1681.81
654.945	1667.46
654.997	1701.76
655.049	1713.87
655.1	1717.48
655.152	1682.75
655.204	1708.96
655.255	1712.63
655.307	1697.4
655.359	1693.92
655.411	1738.22
655.462	1736.98
655.514	1716.83
655.566	1743.69
655.618	1723.88
655.669	1755.41
655.721	1767.03
655.773	1755.81
655.824	1705.26
655.876	1775.93
655.928	1773.11
655.98	1773.85
656.031	1773.23
656.083	1780.39
656.135	1754.71
656.186	1795.89
656.238	1782.82
656.29	1797.44
656.342	1792.37
656.393	1795.32
656.445	1782.25
656.497	1799.98
656.548	1775.76
656.6	1804.92
656.652	1844.47
656.704	1784.95
656.755	1825.08
656.807	1806.57
656.859	1787.54
656.91	1835.58
656.962	1856.78
657.014	1820.14
657.065	1834.34
657.117	1866.81
657.169	1872.75
657.221	1840.72
657.272	1854.8
657.324	1900.6
657.376	1885.78
657.427	1901.52
657.479	1870.05
657.531	1916.91
657.583	1921.8
657.634	1850.32
657.686	1902.16
657.738	1903.19
657.789	1903.34
657.841	1926.13
657.893	1908.77
657.944	1925.06
657.996	1902.51
658.048	1926.6
658.099	1890.52
658.151	1933.51
658.203	1916.91
658.255	1919.58
658.306	1931.26
658.358	1898.77
658.41	1934.03
658.461	1977.26
658.513	1931.47
658.565	1923.73
658.616	1961.31
658.668	1952.3
658.72	1950.36
658.771	1958.76
658.823	1972.24
658.875	1948.23
658.927	1964.34
658.978	1948.77
659.03	1944.64
659.082	1982.96
659.133	2002.62
659.185	1936.92
659.237	1998.93
659.288	1967.07
659.34	1963.67
659.392	1964.74
659.443	1979.88
659.495	1983.63
659.547	1969.71
659.598	2012.86
659.65	1962.93
659.702	1992.39
659.753	1999.77
659.805	1995.53
659.857	2003.84
659.909	1985.12
659.96	2012.45
660.012	1952.05
660.064	2010.15
660.115	2008.82
660.167	1999.61
660.219	1970.67
660.27	2061.59
660.322	2012.55
660.374	1989.52
660.425	1998.65
660.477	1981.12
660.529	2005.92
660.58	1996.64
660.632	1998.23
660.684	2005.98
660.735	1963.47
660.787	1983.07
660.839	2031.75
660.89	1975.05
660.942	1986.62
660.994	2002.67
661.045	2005.43
661.097	2007.13
661.149	2032.89
661.2	1970.59
661.252	2002.49
661.304	1988.69
661.355	2012.75
661.407	1989.6
661.459	2008.58
661.51	2014.28
661.562	2032.26
661.614	2017.89
661.665	2043
661.717	1973.41
661.768	2009.49
661.82	2008.08
661.872	2032.02
661.923	1982.38
661.975	2006.07
662.027	2034.61
662.078	2011.89
662.13	1996.53
662.182	2005.53
662.233	1993.41
662.285	2009.92
662.337	2012.12
662.388	1993.15
662.44	1974.91
662.492	2014.75
662.543	2028.06
662.595	2033.75
662.647	2004.27
662.698	2000.67
662.75	2020.14
662.802	2009.71
662.853	2030.31
662.905	2030.21
662.956	2022.42
663.008	2017.04
663.06	2009.52
663.111	1985.22
663.163	1988.61
663.215	2037.65
663.266	2050.3
663.318	2019.02
663.37	1990.51
663.421	1994.44
663.473	2007.67
663.525	2033.17
663.576	1980.14
663.628	2009.05
663.679	2034.21
663.731	2012.59
663.783	2018.62
663.834	2028.88
663.886	2022.1
663.938	1976.94
663.989	1989.69
664.041	2039.88
664.093	2011.83
664.144	2029.48
664.196	2028.73
664.247	1994.45
664.299	2015.85
664.351	2029.74
664.402	2049.7
664.454	2025.67
664.506	2002.2
664.557	2005.58
664.609	2035.01
664.66	2013.45
664.712	1997.27
664.764	2009.27
664.815	2017.82
664.867	2011.21
664.919	2033.93
664.97	2019.27
665.022	2004.21
665.073	2007.53
665.125	2022.18
665.177	2015.61
665.228	2024.39
665.28	2037.34
665.332	2014.53
665.383	2003.33
665.435	1996.05
665.486	2004.87
665.538	2036.02
665.59	1984.13
665.641	1994.02
665.693	2028.84
665.745	2043.01
665.796	2017.34
665.848	1993.31
665.899	2011.05
665.951	2030.61
666.003	1992.8
666.054	1988.75
666.106	1982.87
666.157	2006.53
666.209	1986.14
666.261	1982.74
666.312	2005.26
666.364	2025.5
666.415	1993.67
666.467	2002.12
666.519	1999.77
666.57	1977.19
666.622	2012.28
666.673	2002.73
666.725	2002.1
666.777	1984.54
666.828	1988.37
666.88	2026.95
666.931	2017.51
666.983	2024.18
667.035	2031.33
667.086	2007.75
667.138	1992.99
667.189	2008.38
667.241	2018.7
667.293	2002.69
667.344	2008.37
667.396	2004.65
667.447	2004.21
667.499	2006.1
667.551	2030.83
667.602	2027.91
667.654	2028.66
667.705	2027.41
667.757	2000.69
667.809	2024.85
667.86	2027.18
667.912	2008.04
667.963	1989.91
668.015	2011.46
668.067	1987.66
668.118	2024.38
668.17	2022.84
668.221	2018.68
668.273	2029.56
668.325	2010.01
668.376	1992.46
668.428	1995.68
668.479	2009.17
668.531	1971.52
668.582	2020.53
668.634	1974.78
668.686	2021.02
668.737	2044.16
668.789	2030.37
668.84	2015.08
668.892	2036.98
668.944	2017.14
668.995	2011.19
669.047	2018.39
669.098	2012.78
669.15	2039.36
669.201	2004.29
669.253	2042.15
669.305	2007.25
669.356	2013.38
669.408	2035.25
669.459	2019.67
669.511	2016.73
669.562	2008.66
669.614	2024.39
669.666	2006.23
669.717	2032.23
669.769	2012.07
669.82	1983.69
669.872	2030.45
669.923	2017.83
669.975	2018.39
670.027	2012.17
670.078	2011.56
670.13	2002.59
670.181	2029.72
670.233	2049.77
670.284	2015.72
670.336	2028.17
670.388	2030.45
670.439	2004.67
670.491	2018.18
670.542	2014.35
670.594	2028.18
670.645	2056.91
670.697	2023.76
670.748	2039.76
670.8	2028.05
670.852	1998.35
670.903	2023.48
670.955	2013.3
671.006	2036.38
671.058	2017.52
671.109	2007.32
671.161	2024.3
671.212	2031.94
671.264	2005.56
671.316	2043.55
671.367	2024.82
671.419	2046.96
671.47	2051.74
671.522	2027.21
671.573	2059.93
671.625	2025.77
671.676	2002.02
671.728	2008.42
671.78	2018.92
671.831	2032.27
671.883	2045.97
671.934	2050.05
671.986	2060.42
672.037	2007.61
672.089	2054.62
672.14	2049.67
672.192	2050.82
672.243	2049.34
672.295	2054.92
672.347	2062.56
672.398	2039.08
672.45	2040.04
672.501	2062.36
672.553	2055.06
672.604	2081.26
672.656	2063.1
672.707	2038.72
672.759	2031.49
672.81	2060.37
672.862	2065.13
672.913	2038.47
672.965	2040.17
673.017	2065.34
673.068	2096.71
673.12	2098.69
673.171	2034.82
673.223	2065.73
673.274	2088.49
673.326	2062.54
673.377	2061.57
673.429	2090.31
673.48	2084.43
673.532	2094.71
673.583	2098.16
673.635	2105.4
673.686	2105.09
673.738	2112.36
673.789	2101.21
673.841	2090.4
673.893	2096.49
673.944	2111.65
673.996	2132.43
674.047	2099.47
674.099	2127.79
674.15	2131.64
674.202	2147.89
674.253	2120.72
674.305	2146.14
674.356	2149.01
674.408	2145.44
674.459	2125.18
674.511	2119.11
674.562	2133.65
674.614	2138.54
674.665	2145.73
674.717	2155
674.768	2125.16
674.82	2142.02
674.871	2141.23
674.923	2147.6
674.974	2127.03
675.026	2146.53
675.077	2157.02
675.129	2143.18
675.18	2156.4
675.232	2190.88
675.284	2224.23
675.335	2175.8
675.387	2157.41
675.438	2191.64
675.49	2183.57
675.541	2179.1
675.593	2188.07
675.644	2192.63
675.696	2201.12
675.747	2184.4
675.799	2174.51
675.85	2162.59
675.902	2183.91
675.953	2204.36
676.005	2201.07
676.056	2215.47
676.108	2185.11
676.159	2183.16
676.211	2206.08
676.262	2202.29
676.314	2207.11
676.365	2194.85
676.417	2207.59
676.468	2216.16
676.52	2185.05
676.571	2197.42
676.623	2228.75
676.674	2252.63
676.726	2225.46
676.777	2193.11
676.828	2181.92
676.88	2216.62
676.932	2237.02
676.983	2219.31
677.034	2210.26
677.086	2193.31
677.137	2201.84
677.189	2236.51
677.24	2244.11
677.292	2222.68
677.343	2217.31
677.395	2209.06
677.446	2219.49
677.498	2212.27
677.549	2171.05
677.601	2206.92
677.652	2253.04
677.704	2248.39
677.755	2243.66
677.807	2236.9
677.858	2232.3
677.91	2228.78
677.961	2210.04
678.013	2220.54
678.064	2225.5
678.116	2207.92
678.167	2217.95
678.219	2241.47
678.27	2233.58
678.322	2242.17
678.373	2225.03
678.424	2227.66
678.476	2253.17
678.527	2239.36
678.579	2234.15
678.63	2209.81
678.682	2189.32
678.733	2197.05
678.785	2230.8
678.836	2247.2
678.888	2257.12
678.939	2233.81
678.991	2217.29
679.042	2212.09
679.094	2202.11
679.122	2236.13
679.173	2250.14
679.225	2204.48
679.277	2248.34
679.328	2216.64
679.38	2202.66
679.432	2228.42
679.483	2254
679.535	2204.22
679.586	2194.34
679.638	2281.92
679.69	2252.43
679.741	2221.49
679.793	2257.44
679.844	2259.99
679.896	2246.16
679.948	2237.84
679.999	2235.43
680.051	2263.77
680.103	2211.99
680.154	2292.18
680.206	2210.75
680.257	2235.43
680.309	2271.81
680.361	2250.99
680.412	2242.49
680.464	2242.92
680.515	2261.66
680.567	2277.47
680.619	2224.36
680.67	2279.94
680.722	2274.28
680.773	2263.92
680.825	2257.2
680.877	2282.51
680.928	2282.74
680.98	2298.95
681.031	2294.05
681.083	2288.41
681.135	2285.22
681.186	2276.23
681.238	2246.96
681.289	2244.91
681.341	2311.88
681.393	2286.31
681.444	2261.31
681.496	2313.47
681.547	2298.99
681.599	2328.03
681.651	2277.15
681.702	2293.45
681.754	2304.42
681.805	2316.48
681.857	2263.45
681.909	2292.07
681.96	2322.96
682.012	2317.73
682.063	2328.73
682.115	2295.37
682.166	2334.94
682.218	2312.37
682.27	2370.4
682.321	2341.77
682.373	2328.73
682.424	2310.23
682.476	2370.5
682.528	2342.97
682.579	2282.67
682.631	2363.34
682.682	2339.53
682.734	2352.16
682.785	2313.13
682.837	2341.95
682.889	2306.18
682.94	2328.23
682.992	2326.22
683.043	2350.89
683.095	2283.79
683.146	2342.07
683.198	2342.32
683.25	2336.94
683.301	2328.68
683.353	2340.4
683.404	2311.91
683.456	2349.31
683.508	2312.94
683.559	2354.38
683.611	2360.2
683.662	2364.43
683.714	2342.93
683.765	2379.63
683.817	2340.9
683.869	2379.57
683.92	2330.91
683.972	2343.9
684.023	2354.29
684.075	2313.33
684.126	2301.62
684.178	2325.36
684.229	2331.58
684.281	2346.16
684.333	2338.4
684.384	2293.97
684.436	2319.25
684.487	2326.23
684.539	2324.68
684.59	2298.52
684.642	2293.88
684.694	2324.51
684.745	2356.93
684.797	2293.27
684.848	2334.53
684.9	2313.9
684.951	2333.41
685.003	2307.41
685.055	2326.37
685.106	2348.98
685.158	2319.83
685.209	2307.48
685.261	2352.88
685.312	2358.03
685.364	2291.84
685.415	2305.96
685.467	2271.89
685.518	2323.96
685.57	2325.72
685.622	2287.51
685.673	2300.66
685.725	2283.83
685.776	2342.79
685.828	2283.48
685.879	2288.08
685.931	2299.25
685.982	2294.05
686.034	2316.01
686.086	2327.26
686.137	2322.53
686.189	2289.91
686.24	2323.67
686.292	2303.36
686.343	2285.48
686.395	2312.56
686.446	2302.5
686.498	2289.51
686.549	2294.07
686.601	2303.45
686.652	2319.88
686.704	2317.57
686.756	2299.8
686.807	2305.53
686.859	2325.11
686.91	2278.6
686.962	2254.48
687.013	2294.58
687.065	2279.84
687.116	2326.64
687.168	2297.81
687.219	2278.64
687.271	2273.61
687.322	2305.69
687.374	2281.08
687.426	2274.82
687.477	2244.82
687.529	2300.59
687.58	2304.17
687.632	2300.38
687.683	2321.34
687.735	2300.33
687.786	2303.62
687.838	2290.39
687.889	2303.44
687.941	2303.43
687.992	2290.2
688.044	2284.92
688.095	2283.3
688.147	2281.66
688.198	2300.19
688.25	2269.4
688.302	2283.7
688.353	2265.79
688.405	2284.23
688.456	2300.69
688.508	2295.73
688.559	2271.05
688.611	2324.26
688.662	2278.96
688.714	2249.67
688.765	2284.84
688.817	2264.43
688.868	2273.13
688.92	2285.86
688.971	2290.45
689.023	2262.21
689.074	2303.48
689.126	2261.84
689.177	2300.97
689.229	2275.37
689.28	2269.55
689.332	2263.93
689.383	2295.02
689.435	2270.58
689.486	2264.32
689.538	2284.11
689.589	2258.59
689.641	2308.2
689.692	2282.45
689.744	2270.72
689.795	2267.86
689.847	2260.67
689.898	2279.68
689.95	2299.68
690.001	2318.21
690.053	2281.22
690.104	2276.09
690.156	2257.47
690.207	2267.19
690.259	2262.34
690.31	2256.29
690.362	2280.66
690.413	2262.82
690.465	2222.5
690.516	2249.42
690.568	2279.21
690.619	2232.93
690.671	2226.66
690.722	2265.38
690.774	2276.56
690.825	2278.03
690.877	2255.17
690.928	2261.54
690.98	2247.76
691.031	2295.69
691.083	2243.71
691.134	2245.81
691.186	2245.72
691.237	2265.96
691.289	2252.36
691.34	2228.12
691.392	2236.87
691.443	2258.48
691.495	2269.81
691.546	2242.8
691.598	2262.65
691.649	2214.21
691.701	2222.12
691.752	2204.31
691.804	2243.82
691.855	2230.82
691.907	2213.94
691.958	2212.79
692.01	2215.32
692.061	2237.48
692.113	2236.32
692.164	2234.34
692.216	2217.83
692.267	2238.27
692.319	2213.22
692.37	2207.84
692.421	2214.21
692.473	2221.34
692.524	2238.64
692.576	2268.85
692.627	2201.81
692.679	2230.06
692.73	2225.99
692.782	2222.39
692.833	2218.7
692.885	2200.43
692.936	2213.95
692.988	2219.47
693.039	2248.5
693.091	2206.41
693.142	2221.94
693.194	2214.81
693.245	2202.85
693.297	2207.01
693.348	2195.06
693.399	2206
693.451	2189.83
693.502	2196.08
693.554	2226.53
693.605	2200.86
693.657	2175.45
693.708	2171.58
693.76	2187.1
693.811	2200.02
693.863	2220.37
693.914	2174.55
693.966	2180.02
694.017	2219.61
694.068	2176.88
694.12	2206.83
694.171	2208.34
694.223	2191.84
694.274	2212.57
694.326	2206.01
694.377	2189.54
694.429	2201.11
694.48	2188.91
694.532	2198.9
694.583	2217
694.634	2191.19
694.686	2199.13
694.737	2166.77
694.789	2180.91
694.84	2179.01
694.892	2206.49
694.943	2192.71
694.995	2185.95
695.046	2192.8
695.097	2203
695.149	2168.23
695.2	2151.29
695.252	2184.84
695.303	2182.67
695.355	2189.4
695.406	2198.18
695.458	2171.65
695.509	2160.9
695.56	2191.05
695.612	2180.15
695.663	2181.04
695.715	2148.16
695.766	2168.59
695.818	2161.53
695.869	2196.61
695.921	2175.91
695.972	2177.11
696.023	2172.15
696.075	2172.59
696.126	2158.69
696.178	2180.03
696.229	2205.11
696.281	2178.35
696.332	2194.89
696.383	2131.67
696.435	2144.87
696.486	2148.15
696.538	2162.56
696.589	2136.8
696.641	2145.63
696.692	2144.08
696.744	2133.11
696.795	2165.53
696.846	2125.04
696.898	2163.31
696.949	2168.32
697.001	2141.49
697.052	2143.44
697.104	2136.65
697.155	2170.85
697.206	2148.35
697.258	2171.88
697.309	2142.53
697.361	2168.27
697.412	2168.22
697.463	2112.47
697.515	2131.93
697.566	2131.47
697.618	2117.75
697.669	2106
697.721	2129.41
697.772	2147.17
697.823	2116.98
697.875	2132.36
697.926	2116.32
697.978	2112.53
698.029	2111.56
698.08	2125.89
698.132	2130.98
698.183	2124.62
698.235	2139.76
698.286	2128.16
698.338	2120.91
698.389	2112.86
698.44	2121.39
698.492	2094.26
698.543	2111.74
698.595	2095.6
698.646	2095.54
698.697	2117.28
698.749	2100.75
698.8	2117.67
698.852	2105.22
698.903	2119.59
698.954	2096.23
699.006	2090.76
699.057	2076.95
699.109	2081.14
699.16	2072.95
699.211	2028.43
699.263	2042.99
699.314	2072.4
699.366	2095.04
699.417	2119.34
699.468	2094.42
699.52	2072.23
699.571	2052.15
699.623	2065.15
699.674	2086.22
699.725	2081.08
699.777	2101.95
699.828	2073.71
699.88	2107.5
699.931	2088.84
699.982	2096.34
700.034	2069.73
700.085	2063.67
700.137	2097.75
700.188	2085.57
700.239	2097.9
700.291	2087.06
700.342	2073.54
700.393	2071.07
700.445	2054.77
700.496	2084.57
700.548	2087.12
700.599	2051.35
700.65	2081.03
700.702	2079.07
700.753	2064.99
700.805	2089.4
700.856	2072.22
700.907	2070.32
700.959	2080.87
701.01	2053.02
701.061	2044.06
701.113	2077.55
701.164	2062.33
701.216	2045.84
701.267	2066.09
701.318	2072.24
701.37	2079.37
701.421	2091.91
701.472	2061.3
701.524	2026.65
701.575	2035.68
701.627	2068.69
701.678	2069.36
701.729	2056.56
701.781	2060.29
701.832	2039.15
701.883	2028.8
701.935	2050.92
701.986	2058.63
702.038	2080.07
702.089	2087.18
702.14	2075.18
702.192	2061.37
702.243	2063.29
702.294	2069.28
702.346	2062.55
702.397	2062.44
702.448	2058.16
702.5	2063.53
702.551	2066.25
702.603	2067.78
702.654	2081.06
702.705	2088.18
702.757	2087.59
702.808	2078.9
702.859	2074.92
702.911	2071.91
702.962	2055.97
703.013	2042.71
703.065	2062.28
703.116	2053.88
703.167	2060.85
703.219	2082.25
703.27	2046.17
703.322	2028.73
703.373	2055.68
703.424	2062.69
703.476	2049.42
703.527	2053.74
703.578	2068.64
703.63	2076.96
703.681	2071.81
703.732	2055.24
703.784	2056.22
703.835	2069.05
703.886	2040.37
703.938	2028.38
703.989	2066.09
704.04	2066.16
704.092	2018.47
704.143	2013.01
704.194	2044.42
704.246	2069.6
704.297	2062.24
704.348	2062.72
704.4	2092.21
704.451	2063.75
704.503	2064.29
704.554	2050.11
704.605	2056.17
704.656	2046.99
704.708	2058.35
704.759	2060.92
704.81	2036.97
704.862	2048.37
704.913	2040.97
704.964	2059.45
705.016	2067.65
705.067	2041.51
705.119	2011.64
705.17	2034.56
705.221	2039.59
705.273	2025.84
705.324	2003.94
705.375	2011.88
705.408	2008
705.459	2048
705.511	2050.01
705.562	2044.06
705.614	2016.42
705.665	2026.31
705.717	1994.33
705.768	1994.37
705.82	2033.76
705.871	2021.83
705.923	1983.2
705.974	2007.12
706.026	2030.01
706.077	2041.93
706.129	2011.18
706.18	2008.92
706.232	2002.65
706.283	2017.12
706.335	2005.5
706.386	2018.7
706.438	1964.98
706.489	2014.75
706.541	1994.33
706.592	1990.37
706.643	1951.7
706.695	1979.91
706.746	1979.66
706.798	1975.24
706.849	1966.9
706.901	1948.73
706.952	1971.26
707.004	1978.06
707.055	1984.94
707.107	1964.7
707.158	1960.92
707.21	1960.03
707.261	1967.72
707.313	1988.36
707.364	1960.3
707.416	2012.57
707.467	1991.16
707.518	1985.91
707.57	2000.59
707.621	1973.27
707.673	1996.26
707.724	1938.6
707.776	1958.31
707.827	1951.38
707.879	1958.62
707.93	1989.19
707.982	2006.59
708.033	1978.98
708.084	1932.49
708.136	1924.13
708.187	1986.2
708.239	1950.44
708.29	1947.5
708.342	1975.74
708.393	1937.67
708.445	1949.82
708.496	1949.31
708.548	1936.16
708.599	1941.81
708.651	1934.65
708.702	1921.55
708.753	1924.42
708.805	1927.53
708.856	1928.89
708.908	1917.1
708.959	1928.29
709.011	1940.63
709.062	1982.94
709.114	1983.78
709.165	1916.85
709.216	1965.47
709.268	1927.51
709.319	1929.88
709.371	1978.08
709.422	1930.27
709.474	1956.47
709.525	1936.85
709.577	1944.6
709.628	1894.45
709.679	1915.19
709.731	1946.65
709.782	1947.53
709.834	1943.72
709.885	1904.09
709.937	1924.89
709.988	1891.67
710.039	1902.19
710.091	1905.12
710.142	1953.99
710.194	1927.13
710.245	1906.96
710.297	1927.51
710.348	1917.96
710.4	1920.35
710.451	1895.89
710.502	1903.02
710.554	1942.65
710.605	1886.68
710.657	1925.8
710.708	1895.6
710.76	1909.57
710.811	1901.5
710.862	1891.96
710.914	1929.78
710.965	1914.45
711.017	1904.27
711.068	1875.73
711.12	1875.94
711.171	1897.42
711.222	1919.82
711.274	1872.28
711.325	1864.17
711.377	1871.11
711.428	1893.5
711.479	1868.11
711.531	1869.68
711.582	1905.99
711.634	1886.29
711.685	1901.93
711.737	1874.58
711.788	1871.43
711.839	1860.41
711.891	1853.49
711.942	1924.12
711.994	1874.74
712.045	1845.65
712.096	1861.29
712.148	1854.28
712.199	1854.75
712.251	1882.47
712.302	1882.57
712.354	1845.07
712.405	1857.96
712.456	1872.27
712.508	1846
712.559	1863.43
712.611	1893.76
712.662	1851.3
712.713	1843.82
712.765	1836.07
712.816	1832.51
712.868	1834.13
712.919	1827.96
712.97	1846.21
713.022	1801.4
713.073	1813.56
713.125	1839.16
713.176	1817.99
713.227	1832.83
713.279	1816.4
713.33	1819.52
713.382	1811.86
713.433	1851.38
713.484	1813.67
713.536	1785.81
713.587	1820.05
713.639	1794.08
713.69	1811.69
713.741	1803.65
713.793	1784.78
713.844	1793.59
713.896	1810.74
713.947	1810.33
713.998	1783.18
714.05	1776.65
714.101	1768.74
714.153	1846.54
714.204	1785.47
714.255	1765.37
714.307	1793.27
714.358	1774.99
714.41	1771.82
714.461	1793
714.512	1772.69
714.564	1783.56
714.615	1746.05
714.666	1786.08
714.718	1793.57
714.769	1785.08
714.821	1779.46
714.872	1739.83
714.923	1756.53
714.975	1764.56
715.026	1722.2
715.078	1748.72
715.129	1731.38
715.18	1748.64
715.232	1775.44
715.283	1788.02
715.334	1737.04
715.386	1758.28
715.437	1752.41
715.489	1778.81
715.54	1753.18
715.591	1729.65
715.643	1750.43
715.694	1772.39
715.745	1745.47
715.797	1732.83
715.848	1757.76
715.9	1748.92
715.951	1715.9
716.002	1720.28
716.054	1713.02
716.105	1726.93
716.156	1746.21
716.208	1736.03
716.259	1729.36
716.31	1721.19
716.362	1737.75
716.413	1730.94
716.465	1735.07
716.516	1746.81
716.567	1747.98
716.619	1729.04
716.67	1726.64
716.721	1716.52
716.773	1706.74
716.824	1709.74
716.875	1694.09
716.927	1713.12
716.978	1713.66
717.03	1706.15
717.081	1735.09
717.132	1716.7
717.184	1680.83
717.235	1691.53
717.286	1699.82
717.338	1706.91
717.389	1710.97
717.44	1714.51
717.492	1712.93
717.543	1697.17
717.594	1684.42
717.646	1705.84
717.697	1683.46
717.749	1700.43
717.8	1695.87
717.851	1720.76
717.903	1712
717.954	1717.78
718.005	1667.45
718.057	1671.84
718.108	1679.51
718.159	1693.05
718.211	1696.85
718.262	1703.22
718.313	1664.46
718.365	1673.63
718.416	1680.02
718.467	1678.06
718.519	1703.38
718.57	1662.45
718.621	1687.02
718.673	1676.78
718.724	1665.11
718.775	1688.7
718.827	1664.27
718.878	1667.05
718.93	1676.51
718.981	1651.13
719.032	1664.08
719.083	1659.17
719.135	1677.02
719.186	1668.52
719.237	1668.1
719.289	1690.62
719.34	1677.28
719.391	1662.76
719.443	1618.11
719.494	1671.39
719.545	1675.65
719.597	1665.34
719.648	1654.8
719.699	1657.16
719.751	1663.82
719.802	1642.7
719.853	1645.53
719.905	1634.64
719.956	1631.76
720.007	1619.54
720.059	1624.93
720.11	1621.51
720.161	1628.11
720.213	1627.57
720.264	1632.02
720.315	1640.93
720.367	1659.86
720.418	1633.83
720.469	1620.68
720.521	1615.04
720.572	1642.11
720.623	1621.4
720.675	1610.48
720.726	1609.38
720.777	1609.21
720.829	1601.41
720.88	1592.83
720.931	1589.04
720.982	1584.25
721.034	1601.08
721.085	1589.66
721.136	1596.52
721.188	1591.58
721.239	1596.29
721.29	1599.69
721.342	1597.31
721.393	1590.73
721.444	1587.62
721.496	1572.71
721.547	1591.56
721.598	1604.4
721.65	1584.34
721.701	1583.65
721.752	1598.86
721.803	1601.34
721.855	1587.88
721.906	1586.67
721.957	1579.38
722.009	1577.84
722.06	1572.6
722.111	1569.64
722.163	1566.52
722.214	1546.67
722.265	1547.83
722.316	1574.68
722.368	1581.74
722.419	1560.92
722.47	1553.74
722.522	1560.82
722.573	1559.13
722.624	1579.22
722.676	1559.46
722.727	1545.73
722.778	1563.57
722.829	1561.88
722.881	1550.39
722.932	1540.5
722.983	1532.66
723.035	1532.56
723.086	1529.42
723.137	1559.75
723.188	1552.51
723.24	1534.42
723.291	1548.11
723.342	1535.27
723.394	1544.16
723.445	1543.1
723.496	1543.97
723.547	1526.4
723.599	1535.68
723.65	1529.26
723.701	1538.06
723.753	1525.07
723.804	1512.75
723.855	1523.74
723.906	1512.03
723.958	1506.37
724.009	1522.51
724.06	1537.15
724.112	1524.88
724.163	1507.3
724.214	1531.22
724.265	1533.25
724.317	1515.93
724.368	1502.55
724.419	1517.58
724.47	1498.49
724.522	1504.53
724.573	1520.43
724.624	1518
724.676	1488.83
724.727	1484.78
724.778	1505.46
724.829	1498.93
724.881	1499.4
724.932	1503.4
724.983	1487.07
725.034	1484.43
725.086	1494.2
725.137	1510.48
725.188	1517.21
725.24	1502.91
725.291	1484.41
725.342	1491.12
725.393	1515.51
725.445	1491.05
725.496	1486.2
725.547	1469.83
725.598	1457.16
725.65	1471.33
725.701	1479.49
725.752	1457.59
725.803	1472.42
725.855	1487.27
725.906	1458.39
725.957	1451.03
726.008	1469.04
726.06	1464.16
726.111	1470.77
726.162	1492.03
726.213	1472.03
726.265	1468.75
726.316	1493.07
726.367	1469.89
726.418	1467.93
726.47	1456.56
726.521	1444.53
726.572	1459.99
726.623	1432.03
726.675	1464.48
726.726	1457.15
726.777	1460.9
726.828	1436.19
726.88	1476.87
726.931	1423.68
726.982	1415.47
727.033	1448.98
727.085	1446.7
727.136	1421.8
727.187	1443.02
727.238	1429.73
727.29	1428.06
727.341	1425.02
727.392	1437.51
727.443	1418.53
727.495	1403.87
727.546	1402.16
727.597	1423.01
727.648	1410.77
727.7	1398.77
727.751	1412.18
727.802	1421.18
727.853	1399.29
727.904	1420.17
727.956	1437.84
728.007	1418.23
728.058	1421.87
728.109	1400.55
728.161	1400.99
728.212	1389.8
728.263	1398.35
728.314	1405.03
728.366	1399.86
728.417	1400.52
728.468	1417.76
728.519	1395.72
728.57	1395.81
728.622	1417.31
728.673	1384.6
728.724	1384.93
728.775	1365.16
728.827	1382.14
728.878	1376.41
728.929	1360.24
728.98	1370.98
729.031	1397.22
729.083	1360
729.134	1385.37
729.185	1358.7
729.236	1345.77
729.288	1346.76
729.339	1361.24
729.39	1326.78
729.441	1365.33
729.492	1349.4
729.544	1343.33
729.595	1361.31
729.646	1345.76
729.697	1334.42
729.748	1350.71
729.8	1342.71
729.851	1352.94
729.902	1356.28
729.953	1337.39
730.004	1320.8
730.056	1360.46
730.107	1307.38
730.158	1354.19
730.209	1312.97
730.26	1332.48
730.312	1335.36
730.363	1358.7
730.414	1314.01
730.465	1329.38
730.517	1343.9
730.568	1323.89
730.619	1299.25
730.67	1309.67
730.721	1337.52
730.773	1329.63
730.824	1298.85
730.875	1313.09
730.926	1328.51
730.977	1334.34
731.029	1317.3
731.08	1287.43
731.131	1303.57
731.182	1315.54
731.233	1291.26
731.284	1308.47
731.336	1296.92
731.387	1298.32
731.438	1292.83
731.489	1296.24
731.54	1294.2
731.592	1288.16
731.643	1288.05
731.643	1288
731.694	1286
731.746	1270
731.797	1254.07
731.848	1310.02
731.9	1274.08
731.951	1299.95
732.002	1274.39
732.054	1260.6
732.105	1286.38
732.156	1268.54
732.208	1258.97
732.259	1237.75
732.311	1270.81
732.362	1294.4
732.413	1300.38
732.465	1267.86
732.516	1246.1
732.567	1263.63
732.619	1267.89
732.67	1240.88
732.721	1295.03
732.773	1259.64
732.824	1293.85
732.875	1263.54
732.927	1265.04
732.978	1256.13
733.029	1268.67
733.081	1248.16
733.132	1294.92
733.183	1243.78
733.235	1259.67
733.286	1246.8
733.337	1251.13
733.389	1255.5
733.44	1277.41
733.491	1263.46
733.543	1222.14
733.594	1245.73
733.645	1262.91
733.697	1271.35
733.748	1235.04
733.799	1254.68
733.851	1248.37
733.902	1244.74
733.953	1246.84
734.005	1219.21
734.056	1265.05
734.107	1239.6
734.158	1245.8
734.21	1209.11
734.261	1225.92
734.312	1227.36
734.364	1236.97
734.415	1253.66
734.466	1261.31
734.518	1223.77
734.569	1227.35
734.62	1243.61
734.672	1225.02
734.723	1218.73
734.774	1224.51
734.826	1214.85
734.877	1216.94
734.928	1238.01
734.98	1253.28
735.031	1204.15
735.082	1248.93
735.133	1262.26
735.185	1191.39
735.236	1242.46
735.287	1216.71
735.339	1216.96
735.39	1246.26
735.441	1218.79
735.493	1240.26
735.544	1221.48
735.595	1241.87
735.647	1241.92
735.698	1212.56
735.749	1208.46
735.8	1197.03
735.852	1221.4
735.903	1231.27
735.954	1206.43
736.006	1218.4
736.057	1222.7
736.108	1197.94
736.16	1220.29
736.211	1232.94
736.262	1207.65
736.313	1206.52
736.365	1223.89
736.416	1213.53
736.467	1204.23
736.519	1210.24
736.57	1193.37
736.621	1215.59
736.673	1192.37
736.724	1199.76
736.775	1223.25
736.826	1198.81
736.878	1206.39
736.929	1204.43
736.98	1207.26
737.032	1205.39
737.083	1185.23
737.134	1202.66
737.185	1181.66
737.237	1185.69
737.288	1189.7
737.339	1204.11
737.391	1192.32
737.442	1202.71
737.493	1204.31
737.544	1204.79
737.596	1181.55
737.647	1195.65
737.698	1194.4
737.75	1193.93
737.801	1219.71
737.852	1198.98
737.903	1179.99
737.955	1179.2
738.006	1183.18
738.057	1163.19
738.109	1208.17
738.16	1198.27
738.211	1154.76
738.262	1196.3
738.314	1228.21
738.365	1180.61
738.416	1177.98
738.468	1187.56
738.519	1191.48
738.57	1190.94
738.621	1193.94
738.673	1203.98
738.724	1175.71
738.775	1181.46
738.826	1181.43
738.878	1187.95
738.929	1166.95
738.98	1194.28
739.031	1174.97
739.083	1169.23
739.134	1188.08
739.185	1166.82
739.237	1192.06
739.288	1171.7
739.339	1168.58
739.39	1176.32
739.442	1189.03
739.493	1174.42
739.544	1166.81
739.595	1169.46
739.647	1154.72
739.698	1149.1
739.749	1163.56
739.8	1147.89
739.852	1126.96
739.903	1146.4
739.954	1178.24
740.005	1161.97
740.057	1152.79
740.108	1164.59
740.159	1165.65
740.211	1159.1
740.262	1159.28
740.313	1142.71
740.364	1167.65
740.416	1133.49
740.467	1148.33
740.518	1158.89
740.569	1126.97
740.621	1135.62
740.672	1160.31
740.723	1149.32
740.774	1154.04
740.826	1140.86
740.877	1154.52
740.928	1147.95
740.979	1177.72
741.031	1153.31
741.082	1141.43
741.133	1145.34
741.184	1164.41
741.235	1149.09
741.287	1145.98
741.338	1137.04
741.389	1123.76
741.44	1113.38
741.492	1145.19
741.543	1147.09
741.594	1104.87
741.645	1129.65
741.697	1122.43
741.748	1149.58
741.799	1114.73
741.85	1133.9
741.902	1134.07
741.953	1129.08
742.004	1116.14
742.055	1099.47
742.107	1117.78
742.158	1124.72
742.209	1131.38
742.26	1122.13
742.311	1110.46
742.363	1128.73
742.414	1123.3
742.465	1120.37
742.516	1119.27
742.568	1118.23
742.619	1107.17
742.67	1104.78
742.721	1111.83
742.773	1108.22
742.824	1133.06
742.875	1131.86
742.926	1122.27
742.977	1115.68
743.029	1097.61
743.08	1083.05
743.131	1121.52
743.182	1102.28
743.234	1107.52
743.285	1117.53
743.336	1082.82
743.387	1103.31
743.438	1113.55
743.49	1087.98
743.541	1099.99
743.592	1093.36
743.643	1080.87
743.694	1088.22
743.746	1106.74
743.797	1079.29
743.848	1091.23
743.899	1094.3
743.951	1089.18
744.002	1099.74
744.053	1058.51
744.104	1073.46
744.155	1092.09
744.207	1093.48
744.258	1087.25
744.309	1080.56
744.36	1085.86
744.411	1076.78
744.463	1100.64
744.514	1069.5
744.565	1088.5
744.616	1086.57
744.667	1093.75
744.719	1085.76
744.77	1088.5
744.821	1074.7
744.872	1067.32
744.923	1067.22
744.975	1074.47
745.026	1081.14
745.077	1067.51
745.128	1059.32
745.179	1077.71
745.231	1073.06
745.282	1061.24
745.333	1046.47
745.384	1055.9
745.435	1046.84
745.487	1065.33
745.538	1060.57
745.589	1079.1
745.64	1041.04
745.691	1067.83
745.743	1073.01
745.794	1065.06
745.845	1037.24
745.896	1050.84
745.947	1043.79
745.998	1041.16
746.05	1052.35
746.101	1062.06
746.152	1038.42
746.203	1047.2
746.254	1043.37
746.306	1034.94
746.357	1053.06
746.408	1040.83
746.459	1046.17
746.51	1037.47
746.562	1035.92
746.613	1045.45
746.664	1052.9
746.715	1040.34
746.766	1050.27
746.817	1055.75
746.869	1059.91
746.92	1030.75
746.971	1039.38
747.022	1061.11
747.073	1049.77
747.125	1037.96
747.176	1035.49
747.227	1025.3
747.278	1020.39
747.329	1030.37
747.38	1030.97
747.432	1029.46
747.483	1034.57
747.534	1032.77
747.585	1029.57
747.636	1013.05
747.687	1028.9
747.739	1015.13
747.79	1019.38
747.841	1030.77
747.892	1021.69
747.943	1008.08
747.994	1026.52
748.046	1024.96
748.097	1030.35
748.148	1008.99
748.199	1020.31
748.25	1023.07
748.301	1016.54
748.352	1017.94
748.404	1011.08
748.455	987.057
748.506	1027.54
748.557	1032.14
748.608	1029.77
748.659	1004.58
748.711	1003.56
748.762	1005.79
748.813	1020.81
748.864	1023.35
748.915	1027.66
748.966	1005.67
749.018	1000.34
749.069	995.255
749.12	999.413
749.171	1025.65
749.222	998.037
749.273	993.799
749.324	1004.34
749.376	1000.88
749.427	977.353
749.478	1005.86
749.529	1012.35
749.58	1009.54
749.631	1001.12
749.682	988.777
749.734	974.673
749.785	980.571
749.836	967.689
749.887	979.571
749.938	979.913
749.989	974.953
750.04	993.764
750.092	998.019
750.143	987.32
750.194	966.362
750.245	969.117
750.296	997.724
750.347	976.35
750.398	978.964
750.45	995.134
750.501	979.373
750.552	975.467
750.603	991.414
750.654	977.769
750.705	975.333
750.756	967.802
750.807	976.156
750.859	993.678
750.91	974.305
750.961	971.271
751.012	975.083
751.063	953.314
751.114	964.153
751.165	954.416
751.216	951.406
751.268	960.603
751.319	967.299
751.37	951.164
751.421	978.648
751.472	967.199
751.523	966.64
751.574	950.174
751.625	930.184
751.677	965.567
751.728	954.622
751.779	947.33
751.83	965.503
751.881	948.332
751.932	949.38
751.983	948.303
752.034	949.53
752.086	972.317
752.137	941.65
752.188	941.336
752.239	951.564
752.29	949.965
752.341	949.454
752.392	920.242
752.443	928.723
752.494	945.847
752.546	948.078
752.597	923.545
752.648	902.947
752.699	944.101
752.75	933.355
752.801	954.052
752.852	950.934
752.903	928.234
752.954	934.462
753.005	946.66
753.057	924.094
753.108	920.732
753.159	919.124
753.21	909.464
753.261	931.616
753.312	925.906
753.363	940.323
753.414	932.417
753.465	911.328
753.516	917.886
753.568	924.137
753.619	914.313
753.67	916.229
753.721	921.618
753.772	925.677
753.823	918.648
753.874	912.859
753.925	907.194
753.976	927.812
754.027	921.469
754.079	908.385
754.13	917.006
754.181	922.885
754.232	910.106
754.283	915.42
754.334	914.67
754.385	921.666
754.436	905.908
754.487	911.286
754.538	910.58
754.589	915.744
754.641	905.913
754.692	920.963
754.743	913.608
754.794	906.219
754.845	888.97
754.896	884.419
754.947	888.447
754.998	870.784
755.049	914.252
755.1	896.32
755.151	882.078
755.202	886.111
755.253	898.134
755.305	913.464
755.356	875.738
755.407	885.946
755.458	858.995
755.509	879.607
755.56	900.321
755.611	889.368
755.662	891.303
755.713	857.59
755.764	883.392
755.815	872.945
755.866	897.264
755.917	843.165
755.968	877.4
756.02	844.216
756.071	872.203
756.122	870.903
756.173	865.407
756.224	873.339
756.275	880.996
756.326	871.651
756.377	884.913
756.428	866.158
756.479	886.425
756.53	874.026
756.581	865.463
756.632	847.586
756.683	847.055
756.734	875.789
756.785	864.508
756.837	850.29
756.888	879.017
756.939	877.645
756.99	844.595
757.041	843.293
757.092	842.482
757.143	855.971
757.194	859.761
757.245	839.639
757.296	832.796
757.347	847.807
757.398	821.389
757.449	847.413
757.5	864.047
757.551	843.841
757.602	829.904
757.653	838.239
757.704	843.514
757.755	838.875
757.807	851.585
757.858	822.373
757.909	822.68
757.917	824
757.968	824.039
758.02	814.111
758.071	865.968
758.122	828.096
758.173	828.134
758.224	824.18
758.276	834.075
758.327	842.057
758.378	826.192
758.429	824.534
758.48	830.591
758.532	820.606
758.583	828.248
758.634	828.38
758.685	820.628
758.736	832.204
758.788	836.553
758.839	807.828
758.89	824.685
758.941	816.781
758.992	818.652
759.044	814.964
759.095	830.115
759.146	816.776
759.197	828.792
759.248	819.473
759.3	797.193
759.351	829.373
759.402	807.402
759.453	809.586
759.504	804.621
759.556	786.43
759.607	826.352
759.658	793.718
759.709	808.144
759.76	809.18
759.811	779.054
759.863	787.414
759.914	783.656
759.965	811.758
760.016	791.784
760.067	799.551
760.119	810.009
760.17	810.94
760.221	789.843
760.272	768.948
760.323	815.691
760.375	795.011
760.426	796.24
760.477	812.682
760.528	788.241
760.579	789.343
760.63	786.137
760.682	786.864
760.733	798.339
760.784	791.685
760.835	787.291
760.886	768.567
760.937	760.751
760.989	792.606
761.04	773.117
761.091	780.136
761.142	768.192
761.193	762.486
761.245	780.254
761.296	770.56
761.347	783.557
761.398	789.843
761.449	751.387
761.5	781.17
761.552	764.897
761.603	783.716
761.654	781.461
761.705	775.288
761.756	778.823
761.807	774.394
761.859	784.305
761.91	764.018
761.961	786.16
762.012	757.27
762.063	767.947
762.114	771.086
762.165	757.317
762.217	776.868
762.268	763.812
762.319	766.064
762.37	773.452
762.421	787.211
762.472	795.06
762.524	776.887
762.575	753.859
762.626	769.498
762.677	772.352
762.728	753.528
762.779	778.795
762.831	764.359
762.882	744.746
762.933	775.207
762.984	760.556
763.035	774.81
763.086	743.178
763.137	758.568
763.189	755.848
763.24	776.625
763.291	764.162
763.342	772.352
763.393	750.604
763.444	738.433
763.495	752.549
763.547	728.213
763.598	736.208
763.649	741.545
763.7	741.362
763.751	733.866
763.802	738.728
763.853	739.278
763.905	760.98
763.956	744.107
764.007	736.364
764.058	750.008
764.109	727.578
764.16	749.918
764.211	726.761
764.263	725.449
764.314	729.848
764.365	733.384
764.416	730.291
764.467	737.684
764.518	747.651
764.569	748.217
764.621	740.665
764.672	748.492
764.723	731.719
764.774	720.397
764.825	716.786
764.876	728.762
764.927	739.64
764.978	722.429
765.03	719.246
765.081	733.875
765.132	723.978
765.183	732.244
765.234	736.034
765.285	708.064
765.336	711.984
765.387	716.585
765.439	717.537
765.49	712.132
765.541	719.679
765.592	711.945
765.643	730.145
765.694	709.523
765.745	710.821
765.796	715.885
765.848	708.347
765.899	699.076
765.95	720.93
766.001	698.612
766.052	709.75
766.103	710.891
766.154	697.261
766.205	699.09
766.256	706.606
766.308	704.531
766.359	690.156
766.41	695.758
766.461	694.056
766.512	705.022
766.563	684.664
766.614	700.411
766.665	719.576
766.716	697.606
766.768	697.79
766.819	705.406
766.87	707.859
766.921	696.364
766.972	693.706
767.023	689.487
767.074	673.937
767.125	688.875
767.176	709.523
767.227	694.374
767.279	694.061
767.33	645.25
767.381	685.466
767.432	682.055
767.483	684.545
767.534	669.45
767.585	681.336
767.636	687.002
767.687	689.768
767.739	686.695
767.79	673.832
767.841	677.109
767.892	663.482
767.943	702.436
767.994	670.462
768.045	686.675
768.096	672.871
768.147	660.027
768.198	687.977
768.249	666.921
768.301	684.822
768.352	685.814
768.403	668.461
768.454	669.913
768.505	649.68
768.556	657.168
768.607	678.082
768.658	670.092
768.709	671.289
768.76	677.63
768.811	659.561
768.862	674.614
768.914	658.719
768.965	645.42
769.016	647.411
769.067	671.78
769.118	639.042
769.169	676.83
769.22	652.322
769.271	633.257
769.322	670.619
769.373	656.441
769.424	657.896
769.475	647.473
769.526	664.598
769.578	648.09
769.629	660.463
769.68	659.176
769.731	640.493
769.782	632.469
769.833	648.174
769.884	655.286
769.935	634.996
769.986	625.511
770.037	646.116
770.088	640.82
770.139	634.642
770.19	624.249
770.242	637.298
770.293	646.612
770.344	642.314
770.395	639.16
770.446	627.915
770.497	639.036
770.548	639.834
770.599	631.75
770.65	643.088
770.701	626.799
770.752	640.633
770.803	603.762
770.854	631.978
770.905	636.295
770.956	637.272
771.007	616.468
771.058	633.654
771.11	642.82
771.161	601.891
771.212	634.198
771.263	640.837
771.314	646.435
771.365	615.946
771.416	631.451
771.467	622.326
771.518	626.573
771.569	628.909
771.62	615.611
771.671	611.646
771.722	621.359
771.773	619.333
771.824	618.546
771.875	618.041
771.926	608.26
771.977	606.396
772.028	590.935
772.079	604.554
772.131	630.183
772.182	619.871
772.233	611.339
772.284	599.847
772.335	605.286
772.386	592.413
772.437	592.391
772.488	615.017
772.539	603.612
772.59	605.063
772.641	613.772
772.692	596.218
772.743	596.107
772.794	584.104
772.845	601.444
772.896	594.767
772.947	616.167
772.998	592.784
773.049	596.532
773.1	573.279
773.151	595.641
773.202	594.958
773.253	602.901
773.304	593.68
773.355	585.299
773.406	585.243
773.457	578.788
773.508	596.189
773.56	593.299
773.611	585.149
773.662	588.965
773.713	583.937
773.764	575.486
773.815	592.497
773.866	572.151
773.917	579.068
773.968	596.323
774.019	592.188
774.07	575.615
774.121	577.346
774.172	573.307
774.223	581.655
774.274	571.82
774.325	565.651
774.376	572.566
774.427	562.789
774.478	579.143
774.529	580.796
774.58	561.674
774.631	571.513
774.682	579.779
774.733	564.61
774.784	571.525
774.835	573.22
774.886	563.404
774.937	578.425
774.988	562.064
775.039	565.315
775.09	580.535
775.141	577.902
775.192	571.463
775.243	583.278
775.294	563.751
775.345	556.949
775.396	557.818
775.447	558.534
775.498	547.013
775.549	547.487
775.6	559.046
775.651	556.881
775.702	573.602
775.753	562.994
775.804	557.748
775.855	548.15
775.906	552.085
775.957	573.934
776.008	556.997
776.059	553.56
776.11	562.835
776.161	561.025
776.212	552.804
776.263	553.281
776.314	550.75
776.365	550.348
776.416	554.588
776.467	543.513
776.518	547.306
776.569	543.956
776.62	541.525
776.671	536.163
776.722	550.93
776.773	547.151
776.824	542.625
776.875	545.219
776.926	530.502
776.977	528.397
777.028	536.376
777.079	540.608
777.13	542.487
777.181	538.305
777.232	547.115
777.283	539.947
777.334	535.174
777.385	530.091
777.436	541.559
777.487	530.039
777.538	531.138
777.589	533.96
777.64	532.153
777.691	525.685
777.742	517.308
777.793	505.987
777.844	527.578
777.895	537.099
777.946	541.961
777.997	534.193
778.047	530.206
778.098	538.48
778.149	537.518
778.2	522.19
778.251	516.437
778.302	520.409
778.353	524.291
778.404	508.86
778.455	504.197
778.506	518.405
778.557	522.462
778.608	516.492
778.659	526.924
778.71	526.25
778.761	522.411
778.812	515.157
778.863	524.395
778.914	533.178
778.965	516.222
779.016	505.978
779.067	510.255
779.118	511.244
779.169	510.344
779.22	509.522
779.271	506.361
779.322	504.383
779.373	493.7
779.424	493.671
779.474	503.757
779.525	513.259
779.576	519.626
779.627	514.671
779.678	515.562
779.729	510.954
779.78	506.639
779.831	497.634
779.882	503.827
779.933	505.632
779.984	500.086
780.035	483.217
780.086	486.04
780.137	496.815
780.188	504.366
780.239	495.476
780.29	494.412
780.341	500.091
780.392	503.903
780.442	499.416
780.493	496.331
780.544	497.69
780.595	496.662
780.646	492.96
780.697	489.545
780.748	493.427
780.799	499.692
780.85	496.52
780.901	482.042
780.952	496.867
781.003	496.406
781.054	493.045
781.105	483.634
781.156	484.64
781.207	480.323
781.257	480.371
781.308	479.535
781.359	475.402
781.41	468.205
781.461	486.59
781.512	491.375
781.563	495.459
781.614	489.582
781.665	488.633
781.716	476.252
781.767	473.768
781.818	486.436
781.869	479.139
781.919	472.353
781.97	483.023
782.021	477.469
782.072	473.515
782.123	463.874
782.174	476.832
782.225	488.909
782.276	471.42
782.327	470.292
782.378	464.785
782.429	470.303
782.48	481.047
782.531	466.357
782.581	472.497
782.632	484.01
782.683	476.042
782.734	464.654
782.785	469.026
782.836	449.23
782.887	458.759
782.938	473.556
782.989	459.129
783.04	459.325
783.091	451.692
783.141	481.19
783.192	462.179
783.243	460.129
783.294	458.425
783.345	454.599
783.396	457.105
783.447	437.268
783.498	442.063
783.549	451.003
783.6	427.642
783.651	454.119
783.701	460.609
783.752	425.29
783.803	441.147
783.854	452.482
783.905	441.784
783.956	466.465
784.007	462.336
784.058	470.932
784.1	456
784.151	457.987
784.202	442.046
784.253	460.033
784.304	443.951
784.355	453.952
784.406	449.877
784.458	467.476
784.509	455.853
784.56	435.894
784.611	446.079
784.662	432.603
784.713	446.143
784.764	449.444
784.815	448.211
784.866	469.51
784.917	439.809
784.968	445.567
785.019	443.755
785.07	461.316
785.121	452.017
785.172	439.118
785.223	425.167
785.274	434.648
785.326	445.482
785.377	436.421
785.428	434.99
785.479	430.282
785.53	412.314
785.581	452.673
785.632	423.651
785.683	434.114
785.734	427.513
785.785	419.132
785.836	412.34
785.887	420.489
785.938	451.715
785.989	433.844
786.04	417.13
786.091	423.693
786.142	426.117
786.193	427.6
786.244	424.738
786.295	420.105
786.346	421.089
786.397	431.379
786.448	431.752
786.5	416.113
786.551	427.836
786.602	401.687
786.653	433.869
786.704	403.207
786.755	412.585
786.806	432.175
786.857	434.965
786.908	413.314
786.959	415.773
787.01	407.636
787.061	413.165
787.112	415.152
787.163	399.493
787.214	425.97
787.265	405.499
787.316	421.864
787.367	415.312
787.418	398.759
787.469	414.966
787.52	403.742
787.571	404.009
787.622	395.213
787.673	393.36
787.724	408.621
787.775	404.833
787.826	397.143
787.877	400
787.928	410.85
787.979	394.276
788.03	412.442
788.081	415.58
788.132	392.742
788.183	413.242
788.234	410.398
788.285	384.387
788.336	408.173
788.387	410.172
788.438	386.813
788.49	399.22
788.541	393.724
788.591	393.03
788.643	409.683
788.694	385.028
788.745	403.708
788.796	391.65
788.847	391.249
788.898	388.781
788.949	398.429
789	380.827
789.051	395.723
789.102	380.366
789.153	402.125
789.204	401.286
789.255	390.854
789.306	384.384
789.357	399.08
789.408	390.872
789.459	407.875
789.51	389.936
789.561	389.786
789.612	373.53
789.663	381.09
789.714	374.768
789.765	375.221
789.816	387.591
789.867	399.73
789.918	379.107
789.969	385.481
790.02	383.373
790.071	403.657
790.122	370.668
790.173	387.217
790.224	392.921
790.275	378.337
790.326	384.674
790.377	374.093
790.428	381.51
790.479	382.115
790.53	373.148
790.581	372.932
790.632	369.895
790.682	391.165
790.734	374.539
790.784	374.686
790.836	374.94
790.886	371.195
790.937	370.578
790.988	380.284
791.039	372.33
791.09	366.436
791.141	358.02
791.192	376.675
791.243	368.685
791.294	367.34
791.345	389.261
791.396	365.873
791.447	365.932
791.498	353.044
791.549	367.596
791.6	358.667
791.651	377.941
791.702	365.621
791.753	380.017
791.804	351.063
791.855	366.54
791.906	358.419
791.957	372.958
792.008	363
792.059	372.374
792.11	362.766
792.161	347.542
792.212	360.321
792.263	362.148
792.314	362.698
792.365	358.373
792.416	369.187
792.467	348.229
792.518	361.641
792.569	359.928
792.62	352.637
792.671	348.943
792.722	355.406
792.773	354.395
792.823	339.624
792.874	360.388
792.925	353.376
792.976	347.766
793.027	353.618
793.078	358.693
793.129	348.701
793.18	345.955
793.231	347.542
793.282	349.677
793.333	348.179
793.384	353.321
793.435	332.944
793.486	352.621
793.537	343.873
793.588	362.13
793.639	355.217
793.69	346.605
793.741	343.019
793.792	350.017
793.843	342.725
793.894	349.034
793.945	343.336
793.995	337.279
794.046	348.327
794.097	339.355
794.148	352.696
794.199	349.754
794.25	349.84
794.301	340.977
794.352	336.37
794.403	344.741
794.454	331.849
794.505	336.784
794.556	347.8
794.607	335.773
794.658	334.767
794.709	341.759
794.76	337.008
794.811	336.293
794.862	341.31
794.912	334.168
794.963	331.44
795.014	346.207
795.065	336.273
795.116	327.223
795.167	336.823
795.218	333.955
795.269	329.339
795.32	341.32
795.371	323.294
795.422	328.267
795.473	334.242
795.524	328.285
795.575	338.335
795.625	324.539
795.676	333.487
795.727	330.521
795.778	325.683
795.829	320.323
795.88	330.471
795.931	339.489
795.982	326.536
796.033	327.365
796.084	332.403
796.135	319.344
796.186	312.4
796.237	324.48
796.287	330.203
796.338	319.282
796.389	315.839
796.44	322.442
796.491	312.178
796.542	321.237
796.593	315.117
796.644	311.403
796.695	319.881
796.746	311.476
796.797	318.225
796.848	316.994
796.898	310.902
796.949	307.028
797	317.188
797.051	313.3
797.102	315.066
797.153	316.998
797.204	304.484
797.255	310.016
797.306	316.869
797.357	316.672
797.408	305.474
797.458	307.093
797.509	311.824
797.56	307.67
797.611	310.171
797.662	303.406
797.713	310.735
797.764	308.751
797.815	310.583
797.866	305.719
797.917	308.566
797.968	301.889
798.018	307.169
798.069	302.835
798.12	312.653
798.171	301.368
798.222	302.493
798.273	293.863
798.324	310.331
798.375	307.587
798.426	295.869
798.477	303.361
798.527	301.106
798.578	298.911
798.629	300.578
798.68	302.243
798.731	293.662
798.782	301.709
798.833	308.723
798.884	298.703
798.935	295.905
798.985	299.655
799.036	292.856
799.087	290.479
799.138	299.468
799.189	304.409
799.24	296.958
799.291	286.56
799.342	291.94
799.393	296.947
799.443	291.233
799.494	284.432
799.545	287.606
799.596	304.76
799.647	302.663
799.698	297.014
799.749	293.904
799.8	289.371
799.85	289.73
799.901	293.068
799.952	286.69
800.003	302.438
800.054	293.647
800.105	297.487
800.156	291.551
800.207	283.253
800.257	292.616
800.308	296.017
800.359	288.412
800.41	293.184
800.461	292.505
800.512	299.4
800.563	283.989
800.613	276.002
800.664	286.858
800.715	296.172
800.766	291.824
800.817	287.432
800.868	283.086
800.919	282.368
800.97	279.542
801.02	277.636
801.071	279.179
801.122	286.592
801.173	288.763
801.224	283.252
801.275	286.558
801.326	285.761
801.376	276.713
801.427	279.432
801.478	284.401
801.529	277.139
801.58	275.456
801.631	270.376
801.682	273.213
801.732	271.139
801.783	281.995
801.834	268.883
801.885	269.127
801.936	275.399
801.987	283.471
802.038	274.07
802.088	264.067
802.139	278.577
802.19	276.107
802.241	273.515
802.292	267.802
802.343	262.47
802.393	277.63
802.444	276.162
802.495	278.524
802.546	273.096
802.597	272.325
802.648	268.528
802.698	262.775
802.749	268.981
802.8	269.725
802.851	260.163
802.902	263.433
802.953	268.596
803.004	274.453
803.054	276.745
803.105	267.064
803.156	280.74
803.207	260.15
803.258	268.148
803.309	265.172
803.359	272.936
803.41	269.458
803.461	264.403
803.512	257.838
803.563	270
803.614	269.399
803.664	262.137
803.715	259.73
803.766	272.61
803.817	254.487
803.868	253.312
803.919	271.248
803.969	267.599
804.02	268.566
804.071	254.168
804.122	251.885
804.173	256.896
804.223	251.581
804.274	259.548
804.325	261.023
804.376	263.75
804.427	249.657
804.478	259.242
804.528	253.774
804.579	233.421
804.63	265.867
804.681	255.485
804.732	257.583
804.782	258
804.833	259.981
804.884	250.018
804.935	254.104
804.986	251.935
805.036	248.095
805.087	236.567
805.138	253.911
805.189	252.419
805.24	249.365
805.291	249.066
805.341	242.658
805.392	256.02
805.443	253.161
805.494	248.624
805.545	269.744
805.595	249.634
805.646	247.691
805.697	247.822
805.748	252.376
805.799	254.791
805.849	259.835
805.9	258.5
805.951	247.293
806.002	257.709
806.053	254.412
806.103	235.138
806.154	250.378
806.205	244.978
806.256	250.102
806.307	252.682
806.357	251.142
806.408	256.366
806.459	256.101
806.51	247.097
806.561	248.751
806.611	239.835
806.662	241.556
806.713	233.936
806.764	250.572
806.815	254.718
806.865	244.989
806.916	251.979
806.967	256.543
807.018	243.908
807.068	231.231
807.119	243.346
807.17	243.26
807.221	242
807.272	256.293
807.322	241.361
807.373	245.253
807.424	237.608
807.475	244.375
807.526	240.592
807.576	243.007
807.627	247.266
807.678	239.568
807.729	246.362
807.779	240.741
807.83	247.201
807.881	243.316
807.932	254.636
807.982	239.392
808.033	242.373
808.084	222.113
808.135	226.999
808.186	239.161
808.236	242.294
808.287	233.901
808.338	229.277
808.389	238.854
808.439	238.025
808.49	231.004
808.541	220.065
808.592	231.667
808.643	239.759
808.693	233.743
808.744	237.28
808.795	237.844
808.846	239.466
808.896	239.137
808.947	236.416
808.998	240.964
809.049	237.932
809.099	228.923
809.15	220.63
809.201	237.75
809.252	233.252
809.302	240.22
809.353	233.194
809.404	226.714
809.455	226.37
809.505	230.105
809.556	225.249
809.607	236.377
809.658	233.177
809.708	224.069
809.759	236.536
809.81	245.263
809.861	231.268
809.911	231.833
809.962	226.706
810.013	222.068
810.064	221.971
810.114	229.715
810.133	234
810.183	224
810.234	235.982
810.285	227.989
810.336	224.033
810.387	235.962
810.438	220.034
810.489	232.009
810.54	210.213
810.591	223.932
810.642	228.012
810.693	233.878
810.743	224.259
810.794	222.201
810.845	237.314
810.896	221.961
810.947	235.547
810.998	227.245
811.049	233.508
811.1	220.611
811.151	218.495
811.202	218.046
811.253	219.722
811.303	223.25
811.354	236.822
811.405	215.709
811.456	243.034
811.507	212.469
811.558	203.348
811.609	204.971
811.66	221.461
811.711	212.21
811.762	225.103
811.813	208.346
811.863	211.633
811.914	205.647
811.965	204.103
812.016	208
812.067	206.829
812.118	230.765
812.169	187.754
812.22	223.602
812.271	224.449
812.321	210.863
812.372	207.836
812.423	234.127
812.474	212.233
812.525	203.068
812.576	210.244
812.627	218.417
812.678	216.891
812.729	214.464
812.779	210.082
812.83	217.381
812.881	197.849
812.932	215.657
812.983	196.487
813.034	210.32
813.085	207.452
813.136	197.631
813.187	207.569
813.237	213.422
813.288	213.639
813.339	208.426
813.39	208.994
813.441	201.424
813.492	220.287
813.543	209.535
813.594	200.99
813.644	204.637
813.695	207.301
813.746	194.548
813.797	217.611
813.848	208.626
813.899	196.99
813.95	211.364
814.001	193.304
814.051	211.454
814.102	210.172
814.153	197.908
814.204	211.201
814.255	208.793
814.306	216.436
814.357	203.184
814.408	201.294
814.458	202.299
814.509	201.587
814.56	210.096
814.611	205.666
814.662	199.9
814.713	193.518
814.764	205.122
814.814	199.544
814.865	195.686
814.916	191.94
814.967	205.512
815.018	203.051
815.069	200.685
815.12	192.572
815.17	199.185
815.221	197.076
815.272	204.581
815.323	194.159
815.374	191.189
815.425	202.391
815.476	192.589
815.526	195.043
815.577	194.597
815.628	198.791
815.679	194.355
815.73	201.478
815.781	197.272
815.832	196.572
815.882	200.873
815.933	199.229
815.984	186.444
816.035	206.83
816.086	201.669
816.137	196.665
816.188	195.664
816.238	194.632
816.289	189.504
816.34	201.739
816.391	205.049
816.442	184.051
816.493	193.279
816.543	191.28
816.594	185.163
816.645	176.739
816.696	193.511
816.747	200.672
816.798	187.203
816.848	184.977
816.899	193.89
816.95	192.824
817.001	190.19
817.052	192.516
817.103	183.497
817.153	191.101
817.204	178.64
817.255	181.938
817.306	189.519
817.357	195.146
817.408	190.085
817.458	188.609
817.509	182.987
817.56	187.149
817.611	191.231
817.662	192.69
817.713	186.903
817.763	178.28
817.814	183.639
817.865	191.23
817.916	179.214
817.967	177.548
818.018	189.958
818.068	190.604
818.119	183.617
818.17	174.9
818.221	189.599
818.272	189.239
818.323	184.494
818.373	180.005
818.424	186.413
818.475	189.618
818.526	185.358
818.577	177.561
818.627	179.016
818.678	187.463
818.729	187.058
818.78	178.223
818.831	181.547
818.881	184.398
818.932	184.849
818.983	181.64
819.034	191.176
819.085	179.076
819.135	182.882
819.186	177.173
819.237	177.112
819.288	173.853
819.339	179.855
819.39	183.8
819.44	182.575
819.491	178.159
819.542	182.528
819.593	174.463
819.644	174
819.694	171.46
819.745	172.013
819.796	171.889
819.847	180.273
819.898	172.366
819.948	173.242
819.999	167.644
820.05	174.524
820.101	178.466
820.152	182.889
820.202	172.29
820.253	179.983
820.304	175.828
820.355	171.005
820.406	175.504
820.456	175.648
820.507	165.595
820.558	169.664
820.609	169.601
820.66	172.311
820.71	172.117
820.761	171.419
820.812	180
820.863	180
820.914	178.089
820.964	177.07
821.015	170.179
821.066	171.186
821.117	170.559
821.167	177.783
821.218	167.014
821.269	177.263
821.32	163.909
821.371	171.682
821.421	169.599
821.472	174.917
821.523	157.732
821.574	174.009
821.624	170.769
821.675	167.871
821.726	175.228
821.777	173.769
821.828	164.071
821.878	162
821.929	165.294
821.98	169.699
822.031	171.098
822.081	170.542
822.132	167.548
822.183	168.595
822.234	162.479
822.285	172.944
822.335	159.131
822.386	157.944
822.437	162.162
822.488	163.383
822.538	176.314
822.589	159.116
822.64	167.901
822.691	172.548
822.741	161.501
822.792	174
822.843	168.055
822.894	166.115
822.945	162.484
822.995	165.037
823.046	157.107
823.097	152.857
823.148	156.418
823.198	163.237
823.249	173.717
823.3	164.907
823.351	167.107
823.401	171.944
823.452	166.971
823.503	164.022
823.554	165.008
823.604	161.02
823.655	158.861
823.706	155.196
823.757	158.111
823.807	161.314
823.858	163.593
823.909	164.718
823.96	165.146
824.01	163.882
824.061	164.556
824.112	164.981
824.163	156.744
824.213	160.995
824.264	157.109
824.315	162.92
824.366	154.074
824.416	155.543
824.467	162.902
824.518	168.024
824.569	155.366
824.619	150.26
824.67	159.664
824.721	158.943
824.772	154.663
824.822	153.145
824.873	163.383
824.924	158.342
824.974	160
825.025	150.417
825.076	157.291
825.127	156.81
825.177	160
825.228	161.273
825.279	159.77
825.33	160.399
825.38	148.56
825.431	152.694
825.482	162.828
825.533	154.251
825.583	156.383
825.634	162.332
825.685	156.816
825.735	153.587
825.786	157.601
825.837	153.869
825.888	160.382
825.938	152.257
825.989	146.678
826.04	149.5
826.091	147.894
826.141	144.733
826.192	163.405
826.243	156.236
826.293	149.8
826.344	152.585
826.395	152.495
826.446	147.91
826.496	148.088
826.547	156.918
826.598	144.716
826.648	145.824
826.699	157.222
826.75	146.485
826.801	149.302
826.851	152.48
826.902	149.143
826.953	148.448
827.003	156.901
827.054	146.296
827.105	145.542
827.156	146.964
827.206	149.103
827.257	153.028
827.308	149.625
827.358	151.666
827.409	152.893
827.46	149.506
827.511	145.331
827.561	147.515
827.612	143.419
827.663	147.022
827.713	146.609
827.764	144.747
827.815	148.108
827.865	148.16
827.916	153.016
827.967	144.118
828.018	153.384
828.068	157.955
828.119	150.742
828.17	140.419
828.22	144.013
828.271	142.988
828.322	151.655
828.372	151.995
828.423	146.435
828.474	144.044
828.525	139.601
828.575	148.119
828.626	147.81
828.677	144.038
828.727	145.831
828.778	142.886
828.829	142.837
828.879	144.877
828.93	142.367
828.981	141.446
829.031	143.1
829.082	139.624
829.133	135.347
829.183	142.415
829.234	148.036
829.285	141.679
829.336	135.819
829.386	146.897
829.437	143.573
829.488	143.323
829.538	143.537
829.589	142.603
829.64	140.389
829.69	141.656
829.741	139.844
829.792	142.977
829.842	147.913
829.893	139.02
829.944	145.215
829.994	143.969
830.045	141.943
830.096	146.773
830.146	140.891
830.197	134.937
830.248	138.873
830.298	147.236
830.349	146.231
830.4	142.867
830.45	140.983
830.501	139.934
830.552	135.404
830.602	143.204
830.653	132.381
830.704	136.999
830.754	134.872
830.805	139.905
830.856	141.764
830.906	137.053
830.957	137.428
831.008	138.014
831.058	131.239
831.109	127.259
831.16	135.248
831.21	140.294
831.261	137.649
831.312	137.169
831.362	143.219
831.413	138.309
831.464	136.534
831.514	133.037
831.565	134.66
831.616	138.186
831.666	129.857
831.717	131.499
831.767	134.307
831.818	135.293
831.869	143.407
831.919	142.209
831.97	136.584
832.021	139.922
832.071	135.206
832.122	132.774
832.173	138.771
832.223	139.697
832.274	133.921
832.325	134.683
832.375	142.501
832.426	143.308
832.477	137.312
832.527	130.752
832.578	135.464
832.628	139.348
832.679	135.249
832.73	136.632
832.78	143.137
832.831	140.023
832.882	136.708
832.932	135.105
832.983	130.245
833.034	130.481
833.084	131.674
833.135	129.752
833.185	130.002
833.236	133.692
833.287	129.715
833.337	131.471
833.388	135.286
833.439	133.162
833.489	136
833.54	130.933
833.59	129.186
833.641	136.451
833.692	132.008
833.742	127.592
833.793	125.156
833.844	130.356
833.894	128.245
833.945	130.4
833.995	137.425
834.046	128.791
834.097	131.555
834.147	132.751
834.198	130.133
834.249	132.237
834.299	126.806
834.35	131.895
834.4	124.731
834.451	125.57
834.502	130.258
834.552	132.06
834.603	127.029
834.653	130.213
834.704	136.023
834.755	136.499
834.805	134.929
834.856	130.132
834.906	112.977
834.957	126.092
835.008	126.088
835.058	126.966
835.109	130.439
835.16	133.299
835.21	134.616
835.261	124.084
835.311	128.94
835.362	128.277
835.413	132.057
835.463	119.89
835.514	119.339
835.564	126.874
835.615	139.015
835.666	126.843
835.716	131.27
835.767	119.264
835.817	128.479
835.868	122.29
835.919	117.403
835.969	121.973
836.02	125.324
836.07	138.392
836.121	139.179
836.161	136
836.212	126
836.263	131.996
836.314	125.982
836.365	127.951
836.415	129.895
836.466	123.898
836.517	135.881
836.568	125.902
836.618	131.789
836.669	127.994
836.72	133.836
836.771	117.894
836.821	129.693
836.872	112.341
836.923	120.128
836.974	112.296
837.024	131.935
837.075	116.214
837.126	125.901
837.177	120.145
837.227	118.347
837.278	125.71
837.329	123.921
837.38	119.773
837.43	123.588
837.481	114.096
837.532	129.452
837.583	121.974
837.633	123.892
837.684	120.278
837.735	128.825
837.786	125.483
837.836	125.844
837.887	116.883
837.938	126.105
837.989	126.78
838.039	123.418
838.09	115.253
838.141	119.274
838.192	106.386
838.242	129.561
838.293	116.771
838.344	112.514
838.395	117.128
838.445	128.506
838.496	120.14
838.547	133.11
838.598	122.861
838.648	117.27
838.699	122.992
838.75	117.879
838.801	117.189
838.851	127.29
838.902	119.027
838.953	121.78
839.003	112.923
839.054	118.192
839.105	116.66
839.156	120.378
839.206	122.483
839.257	122.057
839.308	117.591
839.359	117.843
839.409	108.186
839.46	119.062
839.511	108.522
839.562	122.37
839.612	121.941
839.663	116.75
839.714	126.095
839.764	97.6947
839.815	119.689
839.866	111.857
839.917	99.2154
839.967	116.762
840.018	118.49
840.069	117.92
840.119	120.075
840.17	118.297
840.221	115.815
840.272	117.75
840.322	110.697
840.373	114.059
840.424	114.323
840.474	115.808
840.525	111.435
840.576	111.533
840.627	101.763
840.677	124.038
840.728	117.357
840.779	118.502
840.829	111.492
840.88	111.44
840.931	108
840.982	106.775
841.032	117.505
841.083	112.709
841.134	110.341
841.184	114.855
841.235	120.106
841.286	116.801
841.337	114.269
841.387	111.562
841.438	116.745
841.489	112.258
841.539	114.603
841.59	109.729
841.641	108.911
841.691	113.452
841.742	107.469
841.793	98.8243
841.844	115.658
841.894	110.178
841.945	105.319
841.996	110.444
842.046	107.33
842.097	107.541
842.148	109.991
842.198	108.671
842.249	107.685
842.3	111.197
842.351	108.718
842.401	110.395
842.452	125.908
842.503	108.092
842.553	107.217
842.604	111.845
842.655	116.225
842.705	114.688
842.756	111.691
842.807	107.26
842.857	111.914
842.908	103.999
842.959	99.3142
843.009	104.945
843.06	116.965
843.111	109.191
843.161	100.382
843.212	110.156
843.263	110.519
843.314	110.689
843.364	112.712
843.415	97.7957
843.466	115.043
843.516	116.309
843.567	114.075
843.618	111.318
843.668	112.229
843.719	103.584
843.77	106.022
843.82	106.342
843.871	109.506
843.922	107.819
843.972	99.3186
844.023	103.261
844.074	110.076
844.124	108.66
844.175	111.455
844.226	107.233
844.276	105.891
844.327	107.406
844.378	99.4141
844.428	106.551
844.479	100.072
844.53	108.364
844.58	106.337
844.631	104.997
844.682	105.128
844.732	104.689
844.783	104.462
844.834	106.465
844.884	101.317
844.935	107.338
844.986	107.674
845.036	103.251
845.087	93.8429
845.138	103.539
845.188	99.828
845.239	99.7046
845.29	103.071
845.34	105.121
845.391	102.906
845.442	99.7162
845.492	104.064
845.543	102
845.594	102.205
845.644	101.916
845.695	101.886
845.745	102.133
845.796	98.7981
845.847	111.894
845.897	96.3909
845.948	103.424
845.999	101.186
846.049	106.693
846.1	97.2223
846.151	106.838
846.201	101.763
846.252	105.362
846.303	103.45
846.353	102.781
846.404	106.796
846.455	107.457
846.505	103.155
846.556	96.6456
846.606	104.669
846.657	94.4129
846.708	102.094
846.758	99.4203
846.809	109.04
846.86	101.85
846.91	105.648
846.961	108.164
847.012	103.372
847.062	97.933
847.113	102.523
847.163	96.0589
847.214	97.1483
847.265	101.641
847.315	89.1699
847.366	97.269
847.417	99.5376
847.467	99.9641
847.518	100.086
847.568	101.002
847.619	93.5364
847.67	99.6648
847.72	106.134
847.771	100.944
847.822	97.057
847.872	89.593
847.923	96.6988
847.973	100.537
848.024	98.5443
848.075	100.914
848.125	106.097
848.176	97.0358
848.227	103.334
848.277	97.8266
848.328	95.3611
848.378	94.147
848.429	97.5789
848.48	98.9345
848.53	100.847
848.581	94.9668
848.631	100.114
848.682	106.861
848.733	97.2584
848.783	88.9486
848.834	96.7509
848.885	96.1056
848.935	94.7887
848.986	94.4887
849.036	95.1511
849.087	92.2124
849.138	96.8171
849.188	90.1769
849.239	97.1119
849.289	99.7275
849.34	98.9965
849.391	96.8577
849.441	95.2649
849.492	101.843
849.542	94.0383
849.593	92.9861
849.644	95.8857
849.694	92.9451
849.745	86.0645
849.795	92.0746
849.846	92.7386
849.897	91.2435
849.947	94.8366
849.998	98.6869
850.048	95.8797
850.099	96.1435
850.15	93.5193
850.2	103.528
850.251	88.5339
850.301	89.5295
850.352	91.1188
850.403	103.545
850.453	89.9391
850.504	96.4252
850.554	96.634
850.605	99.3288
850.656	92.6857
850.706	103.86
850.757	91.2349
850.807	98.007
850.858	103.69
850.908	99.1889
850.959	94.1727
851.01	88.6452
851.06	89.7303
851.111	87.7297
851.161	92.3048
851.212	94.2966
851.263	99.8188
851.313	103.317
851.364	94.3031
851.414	95.5598
851.465	95.0756
851.515	91.3874
851.566	97.1193
851.617	97.8501
851.667	83.6214
851.718	99.1842
851.768	90.4799
851.819	95.2063
851.869	97.1703
851.92	97.5035
851.971	90.6496
852.021	90.7826
852.072	90.3307
852.122	92.5804
852.173	93.9863
852.223	87.78
852.274	87.6601
852.325	91.8249
852.375	89.6535
852.426	85.3461
852.476	86.7625
852.527	94.8737
852.577	94.6082
852.628	90.2026
852.678	91.7924
852.729	96.9695
852.78	85.3514
852.83	84.9755
852.881	89.6034
852.931	92.3504
852.982	97.2935
853.032	94.484
853.083	93.3014
853.133	92.2513
853.184	89.9276
853.235	88.4837
853.285	88.2557
853.336	90.5065
853.386	95.0729
853.437	91.9085
853.487	84.1939
853.538	86.2732
853.588	90.231
853.639	82.7847
853.69	86.7604
853.74	90.3337
853.791	88.8226
853.841	84.149
853.892	85.6955
853.942	81.8732
853.993	80.9146
854.043	86.2056
854.094	92.5855
854.144	91.1251
854.195	93.636
854.246	93.8041
854.296	86.0603
854.347	85.8171
854.397	88.7741
854.448	82.0989
854.498	92.2856
854.549	92.7843
854.599	88.2564
854.65	85.9733
854.7	87.0275
854.751	87.1454
854.801	85.692
854.852	91.472
854.902	87.6666
854.953	86.8924
855.004	86.9002
855.054	88.6482
855.105	92.3721
855.155	93.3687
855.206	85.3093
855.256	84.9393
855.307	86.3772
855.357	89.4775
855.408	88.0533
855.458	87.544
855.509	84.0107
855.559	82.891
855.61	83.1809
855.66	79.4971
855.711	90.067
855.761	85.939
855.812	79.6277
855.862	81.2377
855.913	82.6556
855.964	87.3161
856.014	88.0009
856.065	81.1875
856.115	84.6648
856.166	85.9846
856.216	86.2988
856.267	84.1425
856.317	83.8525
856.368	87.3664
856.418	84.8777
856.469	84.2979
856.519	87.135
856.57	83.076
856.62	82.9726
856.671	85.3604
856.721	84.7282
856.772	88.2066
856.822	87.7338
856.873	83.1571
856.923	87.2833
856.974	85.3605
857.024	85.5734
857.075	84.1912
857.125	80.5941
857.176	82.8552
857.226	85.2475
857.277	87.2387
857.327	83.3289
857.378	79.2109
857.428	71.7985
857.479	76.5873
857.529	81.7365
857.58	85.0207
857.63	82.9435
857.681	78.7169
857.731	84.4982
857.782	84.6853
857.832	77.5232
857.883	77.6087
857.933	83.9556
857.984	86.8121
858.034	86.065
858.085	81.6385
858.135	78.4867
858.186	75.82
858.236	78.1753
858.287	82.9629
858.337	82.4748
858.388	79.7934
858.438	76.445
858.489	79.1979
858.539	82.3147
858.589	79.184
858.64	79.5533
858.69	80.0495
858.741	85.9717
858.791	84.9661
858.842	81.5178
858.892	83.17
858.943	84.9059
858.993	78.9096
859.044	81.3045
859.094	81.881
859.145	82.976
859.195	81.0521
859.246	73.47
859.296	76.973
859.347	87.3601
859.397	82.5091
859.448	75.5849
859.498	76.8365
859.549	76.5124
859.599	77.4713
859.649	75.9172
859.7	81.3356
859.75	83.6605
859.801	84.2264
859.851	76.4693
859.902	80.1703
859.952	83.6645
860.003	85.0108
860.053	75.6221
860.104	81.8232
860.154	80.9238
860.205	82.0493
860.255	80.6939
860.305	87.0316
860.356	83.8506
860.406	87.7595
860.457	81.6184
860.507	78.3021
860.558	74.359
860.608	85.0237
860.659	80.2598
860.709	83.0031
860.76	77.5851
860.81	77.3003
860.861	75.7939
860.911	79.9403
860.961	76.0386
861.012	77.8107
861.062	74.9262
861.113	80.8137
861.163	76.7643
861.214	76.4309
861.264	79.5782
861.315	73.7824
861.365	79.084
861.415	79.757
861.466	75.5569
861.516	80.8364
861.567	77.5779
861.617	76.382
861.668	75.5133
861.718	70.6639
861.769	79.5363
861.819	75.4082
861.869	69.8615
861.92	83.1203
861.97	79.9706
862.021	76.711
862.071	66.0238
862.112	74
862.162	79.9788
862.213	75.9867
862.263	74.0257
862.314	77.9956
862.365	83.9543
862.415	74.0386
862.466	68.0337
862.516	79.7605
862.567	81.825
862.618	77.9254
862.668	74.0636
862.719	83.9612
862.77	76.1475
862.82	79.9664
862.871	83.5325
862.921	83.5202
862.972	77.9036
863.023	77.8015
863.073	73.7596
863.124	89.2258
863.174	70.0712
863.225	85.6997
863.276	87.5955
863.326	74
863.377	83.671
863.427	83.7934
863.478	79.8804
863.529	85.5677
863.579	76.0397
863.63	75.4243
863.68	79.1745
863.731	83.1709
863.782	79.7704
863.832	75.8254
863.883	80.9667
863.933	94.4619
863.984	72.5848
864.034	74.1353
864.085	81.1496
864.136	75.9362
864.186	83.3423
864.237	68.3314
864.287	81.2388
864.338	70.435
864.389	76
864.439	64.7238
864.49	75.4442
864.54	81.43
864.591	85.4211
864.642	72.1125
864.692	69.5984
864.743	73.5783
864.793	84.4477
864.844	68.203
864.894	75.4644
864.945	79.4195
864.996	78.0138
865.046	68.8058
865.097	79.5193
865.147	68.9625
865.198	82.6915
865.248	71.6684
865.299	66.1117
865.35	78.4912
865.4	75.206
865.451	70.6037
865.501	72.2115
865.552	79.5642
865.603	78.1777
865.653	60.7442
865.704	77.8491
865.754	81.7388
865.805	79.3669
865.855	69.4012
865.906	73.1892
865.956	74.3162
866.007	84.1559
866.058	63.5695
866.108	69.0769
866.159	65.6961
866.209	81.8734
866.26	74.0762
866.31	74.7543
866.361	72.2561
866.412	75.6149
866.462	75.2464
866.513	78.3301
866.563	72.4045
866.614	66.6529
866.664	75.7385
866.715	70.7495
866.766	69.4086
866.816	70.3645
866.867	64.6827
866.917	72.4547
866.968	69.7702
867.018	71.37
867.069	75.232
867.119	72
867.17	77.0914
867.22	74.129
867.271	77.8687
867.322	77.9752
867.372	69.7811
867.423	71.5679
867.473	74.2961
867.524	79.8863
867.574	67.8483
867.625	68.7201
867.675	74.1726
867.726	66.3311
867.776	68.6707
867.827	72.0431
867.878	75.768
867.928	69.9468
867.979	68.9658
868.029	74.5629
868.08	69.2546
868.13	79.277
868.181	78.2417
868.231	67.6568
868.282	72.4372
868.332	73.8522
868.383	77.8316
868.433	69.081
868.484	73.7706
868.535	70.3957
868.585	65.5029
868.636	67.743
868.686	68.9437
868.737	74.924
868.787	68.234
868.838	68.1257
868.888	67.9025
868.939	69.852
868.989	73.3011
869.04	73.5647
869.09	69.1228
869.141	67.696
869.191	70.2386
869.242	66.64
869.292	75.8648
869.343	68.4381
869.394	68.6425
869.444	61.1413
869.495	67.143
869.545	62.1122
869.596	75.3684
869.646	65.6388
869.697	72.4575
869.747	69.0731
869.798	69.6777
869.848	65.4016
869.899	73.7836
869.949	68.285
870	71.9682
870.05	68.931
870.101	74.765
870.151	75.8401
870.202	67.8605
870.252	74.2443
870.303	72.0994
870.353	72.9857
870.404	57.1884
870.454	69.5491
870.505	62.9669
870.555	67.609
870.606	71.829
870.656	61.3885
870.707	64.4941
870.757	72.818
870.808	64.4543
870.858	66.6472
870.909	67.0164
870.959	75.0932
871.01	68.0721
871.06	72.3325
871.111	66.4623
871.161	71.3658
871.212	69.9805
871.262	69.7477
871.313	63.4737
871.363	66.9533
871.414	66.7491
871.464	67.0537
871.515	65.958
871.565	69.9489
871.616	68.0992
871.666	65.3633
871.717	61.9545
871.767	62.4556
871.818	66.9207
871.868	67.3955
871.919	66.2626
871.969	71.3205
872.02	65.7664
872.07	75.8996
872.121	73.7063
872.171	69.429
872.222	62.0226
872.272	68.8369
872.323	69.2993
872.373	67.1254
872.424	59.7023
872.474	69.9894
872.525	70.3976
872.575	74.7544
872.626	60.0722
872.676	72.3635
872.727	68.7233
872.777	68.3469
872.828	68.3431
872.878	71.9699
872.929	65.6987
872.979	65.6803
873.03	63.8718
873.08	67.035
873.13	61.1481
873.181	67.5775
873.231	69.1694
873.282	65.2851
873.332	62.194
873.383	62.5005
873.433	65.4187
873.484	63.2948
873.534	68.9733
873.585	70.2261
873.635	64.6513
873.686	61.6406
873.736	62.9225
873.787	59.8051
873.837	68.644
873.888	65.7993
873.938	65.293
873.988	62.667
874.039	62.4718
874.089	59.0054
874.14	66.7693
874.19	60.9356
874.241	61.7505
874.291	59.231
874.342	66.0433
874.392	64.2061
874.443	67.5891
874.493	64.7251
874.544	68.5846
874.594	57.552
874.644	59.9901
874.695	64.0617
874.745	62.4636
874.796	64
874.846	67.8958
874.897	59.0454
874.947	66.5326
874.998	61.2659
875.048	63.3016
875.099	63.2979
875.149	63.6839
875.199	62.1623
875.25	66.0718
875.3	61.1123
875.351	67.0024
875.401	58.9468
875.452	51.0273
875.502	58.9996
875.553	61.6195
875.603	54.2339
875.653	56.6921
875.704	61.3916
875.754	66.6508
875.805	69.3629
875.855	65.2777
875.906	63.286
875.956	73.8067
876.006	61.5241
876.057	68.3774
876.107	64.9181
876.158	63.0858
876.208	56.1393
876.259	53.3476
876.309	58.2721
876.36	60.6396
876.41	58.1036
876.46	60.6897
876.511	57.5
876.561	61.1237
876.612	52.7755
876.662	61.801
876.713	62.2151
876.763	56.5235
876.813	62.7488
876.864	64.1127
876.914	58.3823
876.965	62.1388
877.015	59.152
877.065	61.7025
877.116	60.4995
877.166	65.3129
877.217	64.1735
877.267	65.8609
877.318	62.2296
877.368	67.2827
877.418	63.1886
877.469	63.5307
877.519	58.8289
877.57	56.3279
877.62	62.4865
877.671	60.2925
877.721	61.6421
877.771	61.6316
877.822	59.21
877.872	56.2962
877.923	60.5952
877.973	58.8383
878.023	62.77
878.074	63.4568
878.124	59.6433
878.175	59.3227
878.225	58.8443
878.276	54.9645
878.326	60.139
878.376	62.5486
878.427	57.3678
878.477	59.6285
878.528	60.6154
878.578	59.5174
878.628	61.5071
878.679	62.1267
878.729	63.985
878.78	59.1931
878.83	60.9105
878.88	56.7928
878.931	56.0266
878.981	56.3253
879.031	61.9147
879.082	53.5239
879.132	56.9044
879.183	63.5219
879.233	66.0829
879.284	58.4849
879.334	59.2093
879.384	61.3353
879.435	61.9096
879.485	54.8564
879.535	56.3929
879.586	59.3509
879.636	59.3548
879.687	58.4239
879.737	57.5798
879.787	60.0994
879.838	57.6161
879.888	56.7718
879.939	57.8229
879.989	51.935
880.039	55.9492
880.09	53.7977
880.14	53.8893
880.19	56.22
880.241	56.343
880.291	55.5808
880.342	62.1081
880.392	59.234
880.442	61.2401
880.493	61.2523
880.543	61.1248
880.594	57.9337
880.644	59.9377
880.694	60.4302
880.745	61.5206
880.795	56.9796
880.845	54.1015
880.896	54.9868
880.946	56.9641
880.996	59.8441
881.047	62.8161
881.097	57.2168
881.148	53.3468
881.198	54.0662
881.248	54.6638
881.299	52.449
881.349	56.9789
881.399	58.9772
881.45	57.2634
881.5	55.358
881.551	56.8038
881.601	58
881.651	59.5336
881.702	58
881.752	55.1791
881.802	54.113
881.853	57.6116
881.903	58.5925
881.953	56.2488
882.004	49.7604
882.054	48.4737
882.104	52.962
882.155	57.3127
882.205	57.2332
882.256	56.0658
882.306	55.4191
882.356	58.9831
882.407	59.1569
882.457	61.4271
882.507	56.9891
882.558	55.645
882.608	57.5926
882.658	57.3702
882.709	52.6221
882.759	58.6163
882.809	59.6104
882.86	53.4954
882.91	54.4128
882.96	56.5567
883.011	54.7834
883.061	52.2229
883.111	56.4793
883.162	55.6563
883.212	61.995
883.262	53.0656
883.313	54.4914
883.363	57.4303
883.413	59.2808
883.464	50.4483
883.514	52.8878
883.565	55.2498
883.615	61.7054
883.665	52.4017
883.716	56.3511
883.766	66.5433
883.816	58.7456
883.867	54.4398
883.917	58.8262
883.967	62.8116
884.017	64.4646
884.068	52.8262
884.118	51.94
884.168	54.8528
884.219	54.2868
884.269	56.7435
884.319	59.2659
884.37	54.4946
884.42	57.6433
884.47	57.8181
884.521	56.2684
884.571	51.5054
884.621	55.918
884.672	53.0368
884.722	54.6992
884.772	54.2679
884.823	57.3437
884.873	53.3223
884.923	54.304
884.974	55.9074
885.024	59.4432
885.074	56.3803
885.125	55.9379
885.175	50.6596
885.225	57.4531
885.276	55.0787
885.326	59.8696
885.376	58.3565
885.426	50.8886
885.477	52.3168
885.527	61.5525
885.577	56.8657
885.628	57.4898
885.678	57.325
885.728	57.7804
885.779	55.8913
885.829	51.1017
885.879	49.8372
885.93	55.3546
885.98	51.3709
886.03	49.2726
886.08	48.7404
886.131	57.18
886.181	60.875
886.231	54.0768
886.282	46.0349
886.332	56.0894
886.382	59.7921
886.432	58.7601
886.483	49.5227
886.533	61.0404
886.583	59.5984
886.634	50.0851
886.684	44.6175
886.734	55.9991
886.785	52.3275
886.835	52.6519
886.885	55.5308
886.935	51.7844
886.986	53.7201
887.036	57.8104
887.086	52.4669
887.137	63.1567
887.187	54.0277
887.237	50.5777
887.287	57.869
887.338	55.5996
887.388	53.77
887.438	57.9968
887.489	40.6172
887.539	65.41
887.589	52.2586
887.639	52.2055
887.69	57.8413
887.74	50.0245
887.79	59.7123
887.841	48.3689
887.891	49.957
887.941	55.7807
887.943	55.9443
887.993	48.0651
888.044	46.1416
888.094	50.0373
888.144	57.9473
888.195	56.083
888.245	52.017
888.296	51.8277
888.346	53.6114
888.397	57.5334
888.447	53.7527
888.498	59.5441
888.548	63.302
888.599	54.3164
888.649	57.699
888.699	52.0918
888.75	48.2908
888.8	53.4861
888.851	52.056
888.901	57.0435
888.952	56.8522
889.002	48.628
889.053	48.3286
889.103	48.2033
889.153	51.7884
889.204	42.8123
889.254	44.5258
889.305	51.5504
889.355	49.4844
889.406	48.2531
889.456	53.4772
889.507	53.3051
889.557	48.1177
889.607	48.9025
889.658	46.6717
889.708	50.2192
889.759	53.3776
889.809	51.6805
889.86	55.0166
889.91	57.9655
889.96	57.261
890.011	55.124
890.061	47.1683
890.112	58.4367
890.162	51.9827
890.213	49.1637
890.263	50.6382
890.313	46.5475
890.364	59.0808
890.414	49.0611
890.465	44.9868
890.515	58.2767
890.566	49.8549
890.616	55.2482
890.666	48
890.717	56.0606
890.767	57.0163
890.818	43.1738
890.868	46.8857
890.919	52.9013
890.969	52.9185
891.019	55.2774
891.07	45.5809
891.12	45.7078
891.171	50.6453
891.221	53.6944
891.271	49.5413
891.322	52.9646
891.372	47.8312
891.423	49.6549
891.473	47.4795
891.523	52.1907
891.574	54.7233
891.624	41.2884
891.675	51.3114
891.725	45.4139
891.776	51.1627
891.826	51.3942
891.876	46.2868
891.927	53.2369
891.977	55.3885
892.028	51.815
892.078	49.3071
892.128	51.0506
892.179	57.5507
892.229	42.8714
892.28	55.4695
892.33	46.703
892.38	52.8604
892.431	47.8303
892.481	51.21
892.532	52.0797
892.582	53.7638
892.632	49.6036
892.683	51.5894
892.733	50.8394
892.784	56.0658
892.834	45.1277
892.884	47.5812
892.935	50.6053
892.985	47.2228
893.036	48.1252
893.086	49.5975
893.136	51.6288
893.187	49.1971
893.237	48.2013
893.288	49.2203
893.338	49.9418
893.388	56.319
893.439	45.668
893.489	55.2907
893.539	47.2242
893.59	52.7917
893.64	48.2029
893.691	49.8846
893.741	54.0207
893.791	43.0991
893.842	47.9774
893.892	49.0632
893.943	47.9324
893.993	46
894.043	47.0109
894.094	44.0507
894.144	53.971
894.194	52.0024
894.245	51.9952
894.295	50.9952
894.346	49.0169
894.396	50.9758
894.446	40.0435
894.497	43.0543
894.547	50.8261
894.597	42.1449
894.648	41.0532
894.698	45.9094
894.749	47.0652
894.799	54.7101
894.849	42.2391
894.9	48
894.95	51
895	47.8514
895.051	44.364
895.101	47.9444
895.151	48.8225
895.202	47.9384
895.252	47
895.303	49.1377
895.353	52.7146
895.403	47.3744
895.454	46.9215
895.504	56.7536
895.554	47.1693
895.605	45.8261
895.655	51.8188
895.706	44.3768
895.756	52.7098
895.806	47.5012
895.857	53.4807
895.907	51.4256
895.957	47
896.008	48.5459
896.058	45.6965
896.108	44.8804
896.159	46.1221
896.209	45.7488
896.259	41.1292
896.31	50.6046
896.36	45.5411
896.41	49.0351
896.461	47.8551
896.511	46.8539
896.561	50.2563
896.612	42.913
896.662	46.6904
896.713	44.4746
896.763	50.3567
896.813	43.3285
896.864	48.8319
896.914	45
896.964	46.4776
897.015	41.0652
897.065	46.6397
897.115	51
897.166	45.6252
897.216	38.9492
897.266	44.6135
897.317	45.2116
897.367	48.401
897.417	44.4063
897.468	47.5865
897.518	50.6304
897.568	44.9359
897.619	41.2987
897.669	51.1208
897.719	51.3325
897.77	47.4522
897.82	45.2295
897.87	46.2334
897.921	46
897.971	46.7609
898.021	38.9444
898.072	52.5453
898.122	45.9964
898.172	49.4855
898.223	42.2817
898.273	51.7412
898.323	42.5744
898.374	43.4111
898.424	41.6159
898.474	46.0955
898.524	48.1729
898.575	48.1125
898.625	42.6904
898.675	43.7267
898.726	49.4244
898.776	46.5845
898.826	38.3603
898.877	45.5067
898.927	47.7956
898.977	43.2189
899.028	43.6917
899.078	42.5538
899.128	47.7993
899.179	40.5901
899.229	41.3591
899.279	48
899.33	49.0169
899.38	43.994
899.43	43
899.48	47.6747
899.531	48.977
899.581	49
899.631	45.653
899.682	48.7013
899.732	41.0629
899.782	38.2842
899.833	40.2769
899.883	43.1838
899.933	51.4268
899.984	41
