#Acq. time (s)=	3
#Accumulations=	2
#Range (nm)=	520...900
#Windows=	16
#Auto scanning=	On
#Autofocus=	Off
#AutoExposure=	Off
#Spike filter=	Multiple accum.
#Delay time (s)=	0
#Binning=	1
#Readout mode=	Signal
#DeNoise=	Off
#ICS correction=	Off
#Dark correction=	Off
#Inst. Process=	Off
#Detector temperature (°C)=	-59.98
#Instrument=	LabRAM HR Evol
#Detector=	Syncerity OE
#Objective=	x50_VIS
#Grating=	600 (500nm)
#ND Filter=	10%
#Laser=	514nm_Edge
#Hole=	199.981
#Range=	Auto
#StageXY=	Marzhauser
#StageZ=	Marzhauser
#X (µm)=	1452.2
#Y (µm)=	-1092.6
#Z (µm)=	-216.2
#Full time(mm:ss)=	2:42
#Project=	
#Sample=	
#Site=	
#Title=	PL_Fatia_SCD_021223
#Remark=	
#Date=	18.12.2023 18:01
#Acquired=	18.12.2023 18:01:03
520.042	66
520.094	61.2151
520.147	55
520.199	58.1397
520.251	53.9512
520.304	61.8463
520.356	59.1048
520.408	57
520.461	57.057
520.513	51.1746
520.565	56.8219
520.618	55.0628
520.67	59.8719
520.723	57.8044
520.775	51.3376
520.827	61.7209
520.88	57.1444
520.932	57.0733
520.984	59.773
521.037	57.2305
521.089	64.6047
521.141	59.163
521.194	55.4133
521.246	57.6601
521.298	59.0861
521.351	64.5523
521.403	57.1816
521.455	54.4657
521.508	58.6228
521.56	58
521.612	56.3912
521.665	59.2919
521.717	61.5122
521.769	56.1048
521.822	53.1059
521.874	56.7835
521.926	59.6717
521.979	57.1118
522.031	57.4517
522.083	53.8848
522.136	60.5256
522.188	58.5995
522.24	53.2445
522.293	57.5064
522.345	57.8743
522.397	55.2561
522.45	51.6461
522.502	51.6054
522.554	54.5984
522.607	58.865
522.659	55.2747
522.711	50.2794
522.764	54.1409
522.816	56.7136
522.868	46.5821
522.921	55.8265
522.973	54.298
523.025	55.3027
523.078	53.5425
523.13	58.5355
523.182	62.4715
523.234	54.638
523.287	51
523.339	56.1851
523.391	63.6694
523.444	57.3353
523.496	53.3504
523.548	51.8089
523.601	59.1723
523.653	50.8731
523.705	52.8231
523.758	59.2875
523.81	51.5413
523.862	56.8172
523.915	55.4447
523.967	58
524.019	59.1888
524.072	58.1909
524.124	58.1921
524.176	54.2224
524.229	62.8033
524.281	60.3981
524.333	51.6014
524.385	56.3923
524.438	58.4098
524.49	54.4144
524.542	54.7905
524.595	57.3671
524.647	63
524.699	58.8568
524.752	54.7835
524.804	52.1246
524.856	60.2203
524.909	54.1118
524.961	52.5506
525.013	61.638
525.066	55.6853
525.118	49.6915
525.17	53
525.222	56
525.275	59.7637
525.327	57.716
525.379	55.035
525.432	55.2433
525.484	51
525.536	56.752
525.589	53
525.641	59
525.693	54.7462
525.745	47.7867
525.798	56.4563
525.85	58.4825
525.902	57.7823
525.955	54.2643
526.007	48.0629
526.059	54.3935
526.112	55.5402
526.164	53.4569
526.216	54.8207
526.268	56.8951
526.321	60
526.373	49.5175
526.425	52.3097
526.478	58.5681
526.53	53.993
526.582	58.4435
526.635	53.5804
526.687	53.539
526.739	54.8811
526.791	55.7031
526.844	55.1049
526.896	61.6996
526.948	58.9091
527.001	53.22
527.053	51
527.105	55
527.157	55.5105
527.21	54.4447
527.262	53.7972
527.314	58.3178
527.367	53.6807
527.419	52.6026
527.471	55.7055
527.523	52.6504
527.576	54.3457
527.628	53.6597
527.68	55.0047
527.733	59
527.785	59.3287
527.837	51.7008
527.889	55.958
527.942	59
527.994	56.7567
528.046	54.2692
528.099	57.5553
528.151	56.7016
528.203	58.0594
528.255	55
528.308	56
528.36	57.5641
528.412	57.4435
528.464	56
528.517	60.4464
528.569	58.4685
528.621	60
528.674	49.6026
528.726	54.8776
528.778	56
528.83	55.3788
528.883	53.2401
528.935	59.2354
528.987	67.0792
529.039	66.5478
529.092	55.7786
529.144	57.3904
529.196	58.7855
529.249	51.6054
529.301	53.3974
529.353	54.8007
529.405	59.5991
529.458	59.8065
529.51	50.2189
529.562	55.5524
529.614	59
529.667	55.0629
529.719	57.5175
529.771	63
529.823	57.4191
529.876	56.5245
529.928	55.8846
529.98	57
530.033	60.4277
530.085	56
530.137	58.8625
530.189	57.6993
530.242	60.1282
530.294	58.7483
530.346	56.6799
530.398	56.5431
530.451	53.2191
530.503	49.7902
530.555	56.4103
530.607	61.0979
530.66	58.3601
530.712	54.8228
530.764	54.0839
530.816	60.6981
530.869	56.3077
530.921	53.3193
530.973	54.7366
531.025	57.9371
531.078	55
531.13	53
531.182	58.6224
531.234	57.9114
531.287	59.5198
531.339	52.9301
531.391	53.0979
531.443	63.4562
531.496	57.4615
531.548	51.021
531.6	54.5245
531.652	55.4592
531.705	52.5175
531.757	53.9977
531.809	61.4988
531.861	58.4895
531.914	55.0233
531.966	55.5076
532.018	52.4907
532.07	57.9767
532.123	56.9441
532.175	58.1399
532.227	55.4406
532.279	57
532.332	61.0466
532.384	49.5769
532.436	60.1923
532.488	60.5909
532.541	57.8716
532.593	56.2704
532.645	56.8555
532.697	62
532.75	60.0828
532.802	55.3706
532.854	65.2727
532.906	61.8345
532.958	55.5496
533.011	63
533.063	58.7809
533.115	63.5571
533.167	62.6768
533.22	51
533.272	60.3077
533.324	62.8681
533.376	60.1084
533.429	55.0066
533.481	58.7244
533.533	57.8491
533.585	56.4923
533.638	55.2585
533.69	58.7364
533.742	67.4001
533.794	59.5104
533.846	59.687
533.899	59.6555
533.951	59.3824
534.003	55.0238
534.055	59.2852
534.108	60.3133
534.16	60.52
534.212	56.5463
534.264	67.8879
534.316	66.7404
534.369	57.4034
534.421	63.1671
534.473	57.3319
534.525	62.7304
534.578	62.9916
534.63	58.9061
534.682	58.3339
534.734	62.464
534.786	66.25
534.839	61.9708
534.891	58.9705
534.943	68.5447
534.995	62
535.047	65.565
535.1	58.2719
535.152	65.7381
535.204	67.6199
535.256	66.3404
535.309	61.8325
535.361	66.112
535.413	62.2933
535.465	62.8299
535.517	62.2179
535.57	66.0775
535.622	65.5509
535.674	61.6047
535.726	61.9168
535.778	68.5069
535.831	65.219
535.883	67.6685
535.935	62
535.987	63.1427
536.039	63.998
536.092	65.6942
536.144	61.9211
536.196	70.3573
536.248	63.9603
536.301	66.0288
536.353	71.9611
536.405	69.546
536.457	66.5013
536.509	62.8703
536.562	59.3891
536.614	60.0391
536.666	69.6422
536.718	63.9295
536.77	63.7442
536.823	72.7813
536.875	61.2622
536.927	62.7339
536.979	61.2701
537.031	64.9374
537.083	63.0216
537.136	58.8191
537.188	59.8456
537.24	63.0921
537.292	67.775
537.344	55.5578
537.397	61.754
537.449	73.5705
537.501	67.3831
537.553	63.0724
537.605	62.9728
537.658	68.3221
537.71	70.32
537.762	65.7121
537.814	64.7052
537.866	61.8347
537.919	70.4652
537.971	67.2015
538.023	71.0019
538.075	73.697
538.127	69.5522
538.18	64.3931
538.232	71.1361
538.284	70.7358
538.336	72.091
538.388	64.6706
538.44	63.0073
538.493	72.5029
538.545	72.0712
538.597	64.3342
538.649	68.5138
538.701	68.5486
538.754	69.1756
538.806	63.5033
538.858	65.9782
538.91	70.6446
538.962	64.6341
539.014	62.1905
539.067	69.8552
539.119	76.0379
539.171	70.2202
539.223	65.7516
539.275	67.207
539.327	72.3125
539.38	66.1303
539.432	60.7811
539.484	72.8694
539.536	64.7744
539.588	72.0793
539.641	66.5526
539.693	73.861
539.745	70.6125
539.797	69.2533
539.849	67.4266
539.901	70.5108
539.954	69.4931
540.006	67.3796
540.058	67.7126
540.11	80.9468
540.162	71.5774
540.214	67.5679
540.267	67.5572
540.319	74.0983
540.371	70.0836
540.423	70.1785
540.475	71.7075
540.527	73.8279
540.58	74.0085
540.632	73.544
540.684	74.9041
540.736	74.3187
540.788	76.6673
540.84	74.4226
540.892	65.3985
540.945	75.299
540.997	79.0067
541.049	71.5753
541.101	70.4684
541.153	68.239
541.205	78.4129
541.258	76.5686
541.31	68.3207
541.362	78.9123
541.414	79.7815
541.466	67.9079
541.518	77.0424
541.57	80.0724
541.623	80.1786
541.675	76.9456
541.727	85.4978
541.779	77.6301
541.831	78.8516
541.883	72.4816
541.936	82.9845
541.988	76.0107
542.04	82.6711
542.092	64.0369
542.144	76.9726
542.196	79.0157
542.248	77.2296
542.301	75.0409
542.353	76
542.405	76.7632
542.457	80.299
542.509	75.8422
542.561	86.5197
542.613	78.8506
542.666	73.8378
542.718	74.0417
542.77	81.5014
542.822	83.7024
542.874	81.988
542.926	71.7266
542.978	79.1303
543.031	80.8278
543.083	80.272
543.135	77.381
543.187	79.0324
543.239	86.4069
543.291	81.1232
543.343	75.12
543.396	87.451
543.448	88.2446
543.5	82.8951
543.552	75.6985
543.604	85.4079
543.656	79.6303
543.708	78.6751
543.76	81.6944
543.813	89.3871
543.865	80.2041
543.917	81.9121
543.969	75.8069
544.021	84.6139
544.073	92.0921
544.125	89.718
544.177	83.3969
544.23	84.813
544.282	92.4847
544.334	85.5183
544.386	84.3483
544.438	79.4315
544.49	84.2412
544.542	81.7538
544.594	92.4703
544.647	88.3111
544.699	89.6894
544.751	82.5114
544.803	86.0862
544.855	82.769
544.907	89.0066
544.959	93.3622
545.011	84.3
545.064	94.3722
545.116	89.286
545.168	91.3552
545.22	85.2933
545.272	93.4549
545.324	98.6094
545.376	81.4133
545.428	80.7253
545.48	93.7241
545.533	92.1347
545.585	90.4167
545.637	83.6556
545.689	90.6203
545.741	93.9515
545.793	102.167
545.845	97.2971
545.897	86.0632
545.949	94.0999
546.002	91.1973
546.054	97.0014
546.106	91.2692
546.158	103.387
546.21	104.391
546.262	100.477
546.314	104.895
546.366	101.131
546.418	93.4021
546.471	97.0164
546.523	94.8241
546.575	107.116
546.627	96.9135
546.679	103.741
546.689	105.931
546.741	98.0334
546.793	106.02
546.845	100.031
546.898	97.9416
546.95	98.0423
547.002	105.933
547.054	94.0409
547.106	97.9759
547.159	104.056
547.211	106.166
547.263	92.3997
547.315	105.912
547.368	105.93
547.42	90.4526
547.472	103.824
547.524	126.828
547.577	107.628
547.629	102.037
547.681	113.678
547.733	105.982
547.785	109.898
547.838	115.84
547.89	106.089
547.942	111.616
547.994	118.971
548.047	106.343
548.099	100.632
548.151	113.175
548.203	109.78
548.255	113.466
548.308	113.172
548.36	119.182
548.412	112.259
548.464	106.396
548.517	104.034
548.569	128.309
548.621	112.068
548.673	114.354
548.725	110.43
548.778	117.526
548.83	113.791
548.882	120.802
548.934	116.443
548.987	115.14
549.039	122.983
549.091	110.193
549.143	121.093
549.195	116.183
549.248	124.233
549.3	120.804
549.352	121.414
549.404	122.649
549.456	129.177
549.509	116.115
549.561	121.449
549.613	128.108
549.665	135.249
549.718	119.893
549.77	121.466
549.822	134.518
549.874	123.821
549.926	130.471
549.979	121.924
550.031	131.318
550.083	137.293
550.135	130.354
550.187	143.805
550.24	131.532
550.292	136.978
550.344	130.946
550.396	146.809
550.448	139.846
550.501	137.405
550.553	139.294
550.605	139.194
550.657	140.137
550.709	124.285
550.762	139.91
550.814	147.125
550.866	142.223
550.918	154.131
550.97	137.767
551.023	149.141
551.075	147.957
551.127	145.359
551.179	140.544
551.231	157.509
551.284	157.571
551.336	157.77
551.388	155.844
551.44	154.692
551.492	162.109
551.545	160.424
551.597	161.788
551.649	172.85
551.701	174.89
551.753	178.338
551.806	174.666
551.858	193.262
551.91	184.508
551.962	191.554
552.014	211.091
552.067	207.243
552.119	211.333
552.171	234.051
552.223	264.056
552.275	295.435
552.327	359.1
552.38	481.279
552.432	899.768
552.484	1764.27
552.536	3244.22
552.588	5537.93
552.641	9050.69
552.693	11178.4
552.745	8161.93
552.797	4279.03
552.849	1751.24
552.901	760.484
552.954	474.222
553.006	356.609
553.058	293.229
553.11	263.505
553.162	247.111
553.215	218.167
553.267	218.571
553.319	205.806
553.371	202.993
553.423	189.215
553.475	194.251
553.528	180.491
553.58	191.741
553.632	187.75
553.684	179.782
553.736	192.725
553.788	189.242
553.841	177.972
553.893	179.785
553.945	155.656
553.997	177.52
554.049	192.977
554.102	183.329
554.154	172.745
554.206	173.335
554.258	182.428
554.31	178.576
554.362	180.615
554.414	185.929
554.467	187.459
554.519	181.246
554.571	176.006
554.623	185.558
554.675	184.881
554.727	186.089
554.78	194.391
554.832	194.509
554.884	183.744
554.936	193.146
554.988	182.916
555.04	194.988
555.093	181.36
555.145	178.552
555.197	190.26
555.249	185.574
555.301	184.089
555.353	191.906
555.406	184.56
555.458	184.604
555.51	194.085
555.562	215.452
555.614	187.903
555.666	199.589
555.719	194.507
555.771	195.096
555.823	191.369
555.875	198.496
555.927	191.649
555.979	212.146
556.031	198.036
556.084	205.844
556.136	212.473
556.188	198.695
556.24	205.993
556.292	200.582
556.344	218.187
556.396	211.186
556.449	213.524
556.501	206.936
556.553	212.439
556.605	210.66
556.657	215.277
556.709	206.224
556.762	211.535
556.814	212.345
556.866	213.699
556.918	212.881
556.97	222.624
557.022	221.618
557.074	221.54
557.127	210.792
557.179	229.145
557.231	215.557
557.283	214.91
557.335	225.858
557.387	226.828
557.439	222.922
557.492	214.982
557.544	227.565
557.596	231.866
557.648	230.497
557.7	222.469
557.752	232.463
557.804	231.926
557.856	229.347
557.909	234.543
557.961	227.668
558.013	237.454
558.065	238.012
558.117	236.99
558.169	220.838
558.221	233.067
558.273	243.872
558.326	239.969
558.378	231.34
558.43	241.563
558.482	230.465
558.534	243.035
558.586	246.867
558.638	242.413
558.691	249.814
558.743	238.541
558.795	241.292
558.847	238.058
558.899	240.555
558.951	245.118
559.003	235.313
559.055	261.337
559.108	247.874
559.16	244.659
559.212	240.768
559.264	257.666
559.316	259.971
559.368	265.696
559.42	248.507
559.472	259.106
559.525	254.058
559.577	272.169
559.629	259.575
559.681	260.211
559.733	261.779
559.785	258.19
559.837	258.734
559.889	267.137
559.941	263.871
559.994	256.434
560.046	262.258
560.098	253.917
560.15	268.318
560.202	271.639
560.254	272.793
560.306	266.239
560.358	250.113
560.41	279.931
560.463	261.746
560.515	270.858
560.567	271.997
560.619	263.497
560.671	286.616
560.723	269.472
560.775	277.438
560.827	278.821
560.879	281.742
560.932	283.592
560.984	291.921
561.036	268.625
561.088	296.52
561.14	286.394
561.192	292.609
561.244	294.389
561.296	286.07
561.348	291.295
561.4	296.601
561.453	292.047
561.505	302.55
561.557	292.585
561.609	291.879
561.661	294.929
561.713	306.591
561.765	301.361
561.817	323.224
561.869	308.225
561.921	313.123
561.974	303.673
562.026	311.825
562.078	304.89
562.13	317.73
562.182	308.243
562.234	324.264
562.286	311.473
562.338	317.144
562.39	319.023
562.442	325.972
562.494	307.975
562.547	318.012
562.599	322.848
562.651	324.754
562.703	328.98
562.755	341.505
562.807	328.903
562.859	331.402
562.911	335.018
562.963	335.146
563.015	337.096
563.067	341.392
563.12	333.338
563.172	322.927
563.224	332.259
563.276	340.85
563.328	348.433
563.38	354.263
563.432	355.413
563.484	351.02
563.536	348.101
563.588	352.177
563.64	339.096
563.692	355.452
563.744	344.451
563.797	357.681
563.849	358.905
563.901	356
563.953	356.429
564.005	357.682
564.057	360.819
564.109	364.028
564.161	363.004
564.213	365.139
564.265	361.445
564.317	370.546
564.369	352.648
564.421	360.04
564.474	381.343
564.526	374.769
564.578	368.84
564.63	381.836
564.682	382.665
564.734	373.176
564.786	371.771
564.838	378.117
564.89	393.854
564.942	385.071
564.994	388.073
565.046	396.017
565.098	385.956
565.15	370.303
565.202	380.1
565.255	402.837
565.307	387.879
565.359	395.672
565.411	394.424
565.463	400.921
565.515	391.22
565.567	388.784
565.619	397.879
565.671	398.755
565.723	411.581
565.775	405.009
565.827	406.147
565.879	412.473
565.931	417.793
565.983	418.253
566.035	416.464
566.087	417.772
566.139	410.424
566.192	404.877
566.244	410.775
566.296	423.036
566.348	432.909
566.4	418.641
566.452	427.69
566.504	421.769
566.556	429.429
566.608	440.595
566.66	432.76
566.712	439.057
566.764	446.456
566.816	439.187
566.868	434.351
566.92	431.794
566.972	445.904
567.024	444.337
567.076	445.891
567.128	455.821
567.18	441.376
567.232	448.044
567.285	455.656
567.337	459.299
567.389	455.653
567.441	459.064
567.493	458.353
567.545	455.568
567.597	466.678
567.649	466.911
567.701	472.477
567.753	464.856
567.805	465.159
567.857	471.318
567.909	469.125
567.961	478.103
568.013	490.859
568.065	484.462
568.117	485.741
568.169	490.897
568.221	500.472
568.273	500.613
568.325	493.905
568.377	485.649
568.429	487.107
568.481	499.726
568.533	501.485
568.585	496.171
568.637	509.119
568.69	508.107
568.742	503.064
568.794	502.496
568.846	504.189
568.898	499.384
568.95	502.673
569.002	502.113
569.054	515.099
569.106	516.134
569.158	516.654
569.21	524.891
569.262	524.86
569.314	510.215
569.366	516.943
569.418	531.627
569.47	529.334
569.522	523.677
569.574	523.4
569.626	533.147
569.678	540.151
569.73	550.159
569.782	546.673
569.834	549.662
569.886	564.622
569.938	565.307
569.99	556.734
570.042	568.179
570.094	561.162
570.146	562.489
570.198	571.399
570.25	554.848
570.302	567.326
570.354	573.867
570.406	575.813
570.458	586.74
570.51	601.194
570.562	602.08
570.614	589.229
570.666	600.942
570.718	614.315
570.77	625.332
570.822	616.655
570.874	620.418
570.926	637.855
570.978	632.569
571.03	652.112
571.082	638.657
571.134	634.022
571.186	649.04
571.238	650.8
571.29	652.924
571.342	665.578
571.394	689.278
571.446	685.992
571.498	685.886
571.55	710.269
571.602	712.179
571.654	702.159
571.706	712.048
571.758	718.075
571.81	717.918
571.862	731.043
571.914	743.382
571.966	753.29
572.018	753.831
572.07	762.393
572.122	773.008
572.174	774.091
572.226	777.182
572.278	775.963
572.33	804.176
572.382	808.359
572.434	805.836
572.486	812.871
572.538	840.57
572.59	849.782
572.642	840.426
572.694	845.053
572.746	862.996
572.798	886.354
572.85	899.423
572.902	908.831
572.954	927.669
573.006	918.038
573.058	905.514
573.11	930.394
573.162	933.671
573.214	992.206
573.266	1001.04
573.302	966.123
573.355	1035.74
573.407	1015.67
573.459	1047.47
573.511	1017.95
573.563	1061.56
573.615	1073.97
573.667	1084.11
573.719	1121.38
573.772	1125.3
573.824	1113.61
573.876	1172.87
573.928	1184.64
573.98	1181.06
574.032	1180.9
574.084	1220.1
574.136	1245.2
574.188	1245.91
574.241	1246.64
574.293	1333.26
574.345	1309.49
574.397	1338.86
574.449	1393.73
574.501	1412.45
574.553	1409.15
574.605	1444.2
574.657	1469.18
574.71	1487.25
574.762	1499.11
574.814	1530.56
574.866	1544.26
574.918	1597.7
574.97	1610.91
575.022	1651.53
575.074	1699.01
575.126	1727.16
575.178	1736.09
575.231	1728.08
575.283	1803.28
575.335	1772.18
575.387	1764.43
575.439	1842.67
575.491	1847.14
575.543	1861.68
575.595	1871.46
575.647	1896.85
575.7	1920.26
575.752	1887.84
575.804	1931.75
575.856	1947.08
575.908	1951.28
575.96	1886.5
576.012	1911.59
576.064	1936.11
576.116	1937.01
576.168	1923.98
576.22	1952.13
576.273	1942.83
576.325	1941.32
576.377	1920.18
576.429	1919.7
576.481	1889.44
576.533	1885.65
576.585	1855.84
576.637	1856.15
576.689	1821.32
576.741	1822.63
576.793	1824.52
576.846	1775.98
576.898	1729.47
576.95	1698.53
577.002	1677.34
577.054	1678.11
577.106	1667.36
577.158	1666.21
577.21	1654.76
577.262	1632.52
577.314	1613.76
577.366	1588.14
577.418	1559.22
577.471	1528.87
577.523	1525.33
577.575	1493.67
577.627	1475.54
577.679	1491.26
577.731	1457
577.783	1451.95
577.835	1434.71
577.887	1430.2
577.939	1422.36
577.991	1408.82
578.043	1404.28
578.095	1382.8
578.148	1372.03
578.2	1330.65
578.252	1351.51
578.304	1348.94
578.356	1354.34
578.408	1293.93
578.46	1295.17
578.512	1304.6
578.564	1253.1
578.616	1288.89
578.668	1251.84
578.72	1294.86
578.772	1243.52
578.824	1241.74
578.877	1276.12
578.929	1265.38
578.981	1240.99
579.033	1240.86
579.085	1215.96
579.137	1245.88
579.189	1211.49
579.241	1202.15
579.293	1239.6
579.345	1202
579.397	1168.42
579.449	1221.62
579.501	1190.29
579.553	1206.21
579.605	1195.69
579.658	1188.63
579.71	1205.36
579.762	1175.66
579.814	1205.98
579.866	1198.84
579.918	1186.88
579.97	1165.21
580.022	1176.17
580.074	1170.83
580.126	1197.73
580.178	1189.21
580.23	1195.67
580.282	1177.08
580.334	1192.14
580.386	1184.16
580.438	1202.14
580.49	1190.52
580.542	1206.6
580.595	1183.98
580.647	1145.67
580.699	1186.81
580.751	1179.51
580.803	1174.07
580.855	1225.45
580.907	1179.16
580.959	1193.07
581.011	1205.45
581.063	1211.59
581.115	1184.2
581.167	1204.2
581.219	1207.39
581.271	1192.66
581.323	1191.68
581.375	1187.68
581.427	1211.59
581.479	1224.33
581.531	1224.92
581.583	1195.47
581.635	1199.62
581.688	1201.91
581.74	1217.58
581.792	1199.88
581.844	1237.19
581.896	1230.01
581.948	1231.14
582	1226.74
582.052	1234.79
582.104	1223.73
582.156	1244.41
582.208	1234.97
582.26	1242.99
582.312	1250.65
582.364	1252.72
582.416	1273.41
582.468	1225
582.52	1243.75
582.572	1271.8
582.624	1256.42
582.676	1258.72
582.728	1250.75
582.78	1262.28
582.832	1251.75
582.884	1276.24
582.936	1256.17
582.988	1273.82
583.04	1303.2
583.092	1300.57
583.144	1255.86
583.196	1289.67
583.249	1310.77
583.301	1308.88
583.353	1284.95
583.405	1296.43
583.457	1301.09
583.509	1309.07
583.561	1306.37
583.613	1345.66
583.665	1316.59
583.717	1328.2
583.769	1337.48
583.821	1325.14
583.873	1327.51
583.925	1332.12
583.977	1341.3
584.029	1364.92
584.081	1345.54
584.133	1360.31
584.185	1374.81
584.237	1374.47
584.289	1361.06
584.341	1383.53
584.393	1372.23
584.445	1396.95
584.497	1385.25
584.549	1411.71
584.601	1399.77
584.653	1400.86
584.705	1418.96
584.757	1405.19
584.809	1446.34
584.861	1452.12
584.913	1456.18
584.965	1451.07
585.017	1430.16
585.069	1444.34
585.121	1444.06
585.173	1423.05
585.225	1481.92
585.277	1481.56
585.329	1468.26
585.381	1432.68
585.433	1465.98
585.485	1481.65
585.537	1490.89
585.589	1516.61
585.641	1491.84
585.693	1517.3
585.745	1521.97
585.797	1518.63
585.849	1507.47
585.901	1520.29
585.953	1571.57
586.005	1529.99
586.057	1583.04
586.109	1521.7
586.161	1555.4
586.213	1546.23
586.265	1533.07
586.317	1570.37
586.369	1569.88
586.421	1571.9
586.473	1582.46
586.525	1552.17
586.577	1582.36
586.629	1555.28
586.681	1576.51
586.733	1589.6
586.785	1569.14
586.837	1555.66
586.889	1585.49
586.941	1568.3
586.993	1607.04
587.045	1634.92
587.097	1616.78
587.149	1612.08
587.201	1590.36
587.253	1613.72
587.305	1591.61
587.357	1605.85
587.409	1597.44
587.461	1607.35
587.513	1631.19
587.565	1611.36
587.617	1614.44
587.669	1621.24
587.721	1616.14
587.773	1606.25
587.825	1627.8
587.877	1608.58
587.929	1612.63
587.981	1656.77
588.033	1618.24
588.085	1599.89
588.137	1630.69
588.189	1645.14
588.241	1654.97
588.293	1644.4
588.345	1643.05
588.397	1644.43
588.449	1643.5
588.501	1639.04
588.552	1637.07
588.604	1649.02
588.656	1642.11
588.708	1620.96
588.76	1654.55
588.812	1631.73
588.864	1586.75
588.916	1633.98
588.968	1636.81
589.02	1676
589.072	1695.86
589.124	1666.53
589.176	1671.17
589.228	1671.38
589.28	1675.4
589.332	1652.73
589.384	1679.4
589.436	1647.27
589.488	1685.8
589.54	1671.37
589.592	1671.03
589.644	1669.23
589.696	1678.25
589.748	1686.94
589.8	1673.01
589.852	1688.07
589.904	1655.8
589.956	1655.98
590.008	1680.28
590.06	1644.32
590.112	1674.18
590.163	1671.17
590.215	1664.72
590.267	1683.48
590.319	1679.62
590.371	1680.19
590.423	1662.27
590.475	1672.33
590.527	1693.03
590.579	1688.41
590.631	1641.77
590.683	1712.73
590.735	1710.26
590.787	1680.07
590.839	1681.93
590.891	1718.25
590.943	1686.24
590.995	1691.29
591.047	1695.29
591.099	1684.07
591.151	1672.68
591.203	1679.29
591.254	1679.27
591.306	1673.51
591.358	1655.07
591.41	1662.43
591.462	1662.58
591.514	1658.56
591.566	1659.42
591.618	1656.1
591.67	1653.36
591.722	1675.84
591.774	1662.69
591.826	1659.2
591.878	1662.86
591.93	1660.84
591.982	1663.08
592.034	1645.62
592.086	1653.11
592.137	1639.12
592.189	1670.54
592.241	1671.92
592.293	1672.2
592.345	1660.7
592.397	1638.34
592.449	1641.5
592.501	1654.35
592.553	1671.04
592.605	1667.02
592.657	1635.31
592.709	1655.96
592.761	1664.45
592.813	1658.76
592.865	1641.81
592.916	1657.62
592.968	1686.66
593.02	1663.86
593.072	1649.94
593.124	1662.22
593.176	1673.77
593.228	1665.87
593.28	1678.22
593.332	1683.93
593.384	1687.78
593.436	1686.33
593.488	1698.97
593.54	1672.72
593.591	1668.22
593.643	1668.98
593.695	1646.66
593.747	1656.06
593.799	1672.86
593.851	1675.42
593.903	1663.55
593.955	1649.08
594.007	1651.4
594.059	1688.81
594.111	1699.11
594.163	1678.55
594.215	1659.31
594.266	1652.76
594.318	1677.73
594.37	1682.38
594.422	1674.58
594.474	1681.11
594.526	1686.31
594.578	1694.36
594.63	1715.87
594.682	1710.07
594.734	1700.45
594.786	1701.8
594.837	1692.71
594.889	1686.68
594.941	1694.09
594.993	1703.57
595.045	1725.68
595.097	1725.06
595.149	1732.58
595.201	1723.53
595.253	1714
595.305	1709.25
595.357	1728.99
595.408	1727.87
595.46	1726.86
595.512	1745.86
595.564	1746.36
595.616	1757.73
595.668	1760.75
595.72	1759.17
595.772	1742.81
595.824	1753.26
595.876	1784.42
595.927	1774.59
595.979	1756.6
596.031	1765.63
596.083	1790.64
596.135	1793.72
596.187	1798.42
596.239	1810.46
596.291	1795.22
596.343	1798.31
596.394	1808.54
596.446	1817.86
596.498	1822.7
596.55	1832.25
596.602	1822.86
596.654	1810.85
596.706	1831.53
596.758	1855.13
596.81	1849.24
596.862	1849.84
596.913	1840.51
596.965	1826.09
597.017	1829.46
597.069	1855.61
597.121	1881.01
597.173	1881.78
597.225	1884.39
597.277	1863.5
597.328	1850.21
597.38	1867.6
597.432	1875.96
597.484	1890.06
597.536	1896.37
597.588	1878.13
597.64	1850.03
597.692	1869.31
597.744	1903.87
597.795	1887.46
597.847	1873.42
597.899	1907.23
597.951	1927.9
598.003	1913.22
598.055	1900.47
598.107	1907.11
598.159	1937.82
598.21	1953.84
598.262	1944.16
598.314	1925.2
598.366	1926.89
598.418	1910.37
598.47	1936.33
598.522	1921.85
598.574	1905.84
598.625	1941.31
598.677	1941.7
598.729	1901.88
598.781	1920.25
598.833	1965.95
598.885	1976.61
598.937	1944.43
598.988	1913.86
599.04	1947.18
599.092	1963.96
599.144	1954.17
599.196	1964.54
599.248	1971.81
599.3	1938.11
599.352	1933.44
599.403	1936.44
599.455	1938.47
599.507	1969.66
599.559	1957.83
599.611	1908.26
599.663	1924.74
599.715	1953.29
599.766	1959.66
599.803	1967.98
599.855	1972.03
599.907	1953.92
599.959	1979.69
600.011	1924.32
600.063	1989.89
600.115	1983.73
600.167	1952.57
600.219	1999
600.271	2009.4
600.323	1924.51
600.375	1987.29
600.427	1949.67
600.479	1967.25
600.531	1946.81
600.583	1972.93
600.635	1958.55
600.686	1939.69
600.738	1932.52
600.79	1959.75
600.842	1933.83
600.894	1975.93
600.946	1947.55
600.998	1952.66
601.05	1937.87
601.102	2001.71
601.154	1982.9
601.206	1972.13
601.258	1947.29
601.31	1983.8
601.362	1981.02
601.414	1988.85
601.466	1938.8
601.518	1970.22
601.57	1955.5
601.622	1971.92
601.674	1991.27
601.726	2009.06
601.778	1977.65
601.83	1983.49
601.882	1951.38
601.934	1980.08
601.986	1996.51
602.038	2019.18
602.09	2014.09
602.142	1998.22
602.194	1956.55
602.246	1981.77
602.298	1973
602.35	1970.33
602.402	1995.56
602.454	2017.8
602.506	2011.55
602.558	1973.68
602.61	2008.19
602.662	2020.62
602.714	2026.82
602.766	2036.19
602.818	2012.8
602.87	1960.89
602.922	2037.26
602.974	2007.97
603.026	2024.23
603.078	2015.57
603.13	2030.39
603.182	2027.02
603.234	2038.73
603.285	2050.01
603.337	2033.82
603.389	2036.84
603.441	2031.23
603.493	2041.68
603.545	2067.04
603.597	2043.64
603.649	2008.99
603.701	2075.33
603.753	2072.68
603.805	2024.28
603.857	2027.5
603.909	1976.5
603.961	2048.04
604.013	2029.06
604.065	2085.47
604.117	2026.88
604.169	2094.28
604.221	2009.84
604.273	2039.28
604.325	2027.83
604.377	2039.44
604.429	2049.76
604.481	2033.21
604.533	2055.72
604.584	2029.57
604.636	2111.32
604.688	2027.21
604.74	2086.21
604.792	2022.74
604.844	2068.71
604.896	2101.44
604.948	2051.4
605	2025.15
605.052	2058.06
605.104	2060.55
605.156	2039.52
605.208	2126.12
605.26	2056.46
605.312	2077.08
605.364	2064.75
605.416	2054.47
605.468	2095.12
605.52	2062.15
605.572	2074.98
605.623	2052.13
605.675	2056.24
605.727	2075.18
605.779	2060.61
605.831	2045.91
605.883	2086.75
605.935	2066.67
605.987	2058.67
606.039	2062.75
606.091	2071.83
606.143	2060.64
606.195	2075.57
606.247	2045.21
606.299	2080.62
606.351	2035.79
606.403	2098.26
606.455	2080.54
606.506	2071.29
606.558	2050.19
606.61	2064.8
606.662	2091.09
606.714	2074.86
606.766	2088.73
606.818	2081.69
606.87	2058.15
606.922	2046.65
606.974	2069.98
607.026	2081.07
607.078	2038.47
607.13	2053.73
607.182	2084.36
607.234	2064.67
607.285	2072.11
607.337	2075.03
607.389	2082.86
607.441	2091.46
607.493	2056.26
607.545	2041.66
607.597	2087.82
607.649	2105.59
607.701	2088.19
607.753	2107.41
607.805	2048.24
607.857	2064.15
607.909	2110.19
607.96	2067.1
608.012	2079.83
608.064	2106.83
608.116	2091.91
608.168	2088.47
608.22	2112.74
608.272	2071.71
608.324	2099.57
608.376	2109.71
608.428	2093.32
608.48	2134.81
608.532	2122.13
608.583	2163.65
608.635	2159.15
608.687	2138.19
608.739	2090.08
608.791	2131.39
608.843	2133.18
608.895	2117.57
608.947	2101.65
608.999	2151.43
609.051	2127.28
609.103	2131.53
609.155	2141.44
609.206	2147.8
609.258	2122.69
609.31	2153.06
609.362	2134.02
609.414	2155.16
609.466	2124.86
609.518	2151.4
609.57	2159.7
609.622	2164.35
609.674	2121.77
609.725	2134.25
609.777	2155.72
609.829	2168.68
609.881	2198.4
609.933	2174.81
609.985	2166.96
610.037	2159.6
610.089	2174.05
610.141	2176.46
610.193	2188.15
610.245	2210.6
610.296	2185.28
610.348	2171.84
610.4	2182.89
610.452	2229.7
610.504	2211.69
610.556	2204.4
610.608	2185.18
610.66	2195.63
610.712	2209.06
610.763	2195.4
610.815	2208.19
610.867	2217.5
610.919	2224.17
610.971	2200.4
611.023	2229.05
611.075	2219.32
611.127	2233.78
611.179	2232.34
611.23	2249.39
611.282	2211.77
611.334	2234.91
611.386	2252.75
611.438	2219.5
611.49	2203.17
611.542	2186.51
611.594	2215.84
611.646	2228.97
611.697	2203.9
611.749	2210.75
611.801	2249.83
611.853	2246.99
611.905	2229.04
611.957	2245.49
612.009	2236.35
612.061	2248.82
612.113	2230.25
612.164	2253.15
612.216	2212.91
612.268	2265.42
612.32	2284.35
612.372	2257.13
612.424	2271.85
612.476	2249.53
612.528	2287.48
612.579	2243.51
612.631	2274.38
612.683	2287.71
612.735	2316.66
612.787	2296.29
612.839	2281.17
612.891	2265.38
612.943	2287.75
612.994	2303.72
613.046	2293.12
613.098	2322.44
613.15	2311.16
613.202	2293
613.254	2277
613.306	2307.48
613.357	2286.21
613.409	2374.91
613.461	2323.72
613.513	2345.15
613.565	2350.69
613.617	2307.43
613.669	2307.4
613.721	2320.77
613.772	2335.82
613.824	2359.55
613.876	2348.64
613.928	2352.08
613.98	2332.04
614.032	2364.25
614.084	2344.37
614.135	2385.15
614.187	2368.8
614.239	2363.68
614.291	2373.49
614.343	2365.81
614.395	2365.89
614.447	2377.79
614.498	2410.65
614.55	2390.05
614.602	2401.47
614.654	2410.54
614.706	2377.12
614.758	2400.86
614.81	2406.64
614.861	2418.02
614.913	2438.5
614.965	2442.69
615.017	2434.59
615.069	2415.41
615.121	2416.96
615.172	2428.26
615.224	2444.6
615.276	2444.53
615.328	2417.09
615.38	2449.55
615.432	2444.93
615.484	2462.72
615.535	2478.64
615.587	2482.1
615.639	2478.93
615.691	2475.68
615.743	2480.34
615.795	2499.99
615.846	2506.97
615.898	2502.47
615.95	2483.79
616.002	2494.63
616.054	2486.86
616.106	2488.02
616.158	2524.7
616.209	2511.39
616.261	2522.53
616.313	2506.65
616.365	2538.56
616.417	2528.82
616.469	2516.61
616.52	2536.76
616.572	2535.73
616.624	2552.75
616.676	2568.58
616.728	2566.32
616.78	2558.61
616.831	2571.82
616.883	2564.46
616.935	2546.04
616.987	2555.39
617.039	2541.76
617.091	2539.55
617.142	2562.26
617.194	2605.64
617.246	2569.73
617.298	2573.34
617.35	2591.92
617.401	2590.4
617.453	2604.18
617.505	2617.79
617.557	2621.12
617.609	2620.69
617.661	2606.4
617.712	2617.86
617.764	2592.28
617.816	2615.66
617.868	2624.63
617.92	2650.28
617.972	2618.16
618.023	2635.12
618.075	2640.92
618.127	2640.56
618.179	2665.76
618.231	2696.12
618.282	2651.89
618.334	2667.16
618.386	2662.62
618.438	2686.9
618.49	2715.06
618.542	2704
618.593	2689.61
618.645	2666.29
618.697	2714.13
618.749	2732.44
618.801	2706.64
618.852	2666.35
618.904	2715.81
618.956	2742.41
619.008	2734.93
619.06	2732.57
619.111	2732.02
619.163	2723.33
619.215	2759.84
619.267	2759.99
619.319	2760.6
619.37	2736.17
619.422	2779.96
619.474	2766.73
619.526	2735.91
619.578	2737.76
619.63	2762.45
619.681	2760.04
619.733	2751.01
619.785	2791.23
619.837	2817.46
619.888	2784.42
619.94	2790.06
619.992	2809.84
620.044	2800.9
620.096	2795.56
620.147	2831.79
620.199	2815.43
620.251	2773.65
620.303	2829.37
620.355	2804.92
620.406	2828.35
620.458	2824.39
620.51	2833.27
620.562	2844.31
620.614	2833.09
620.665	2837.99
620.717	2839.83
620.769	2867.73
620.821	2837.26
620.873	2816.7
620.924	2856.89
620.976	2857.45
621.028	2807.09
621.08	2841.42
621.132	2870.64
621.183	2850.67
621.235	2906.77
621.287	2891.01
621.339	2873.99
621.39	2867.16
621.442	2882.35
621.494	2879.64
621.546	2858.45
621.598	2883.11
621.649	2898.4
621.701	2832.57
621.753	2873.78
621.805	2895.02
621.856	2853.34
621.908	2899.12
621.96	2909.91
622.012	2865.93
622.064	2874.92
622.115	2899.12
622.167	2893.57
622.219	2889.55
622.271	2888.41
622.322	2868.07
622.374	2887.94
622.426	2933.44
622.478	2889.92
622.53	2903.12
622.581	2891.5
622.633	2910.27
622.685	2864.71
622.737	2879.07
622.788	2967.36
622.84	2908.51
622.892	2944.76
622.944	2880.1
622.995	2933.18
623.047	2915.36
623.099	2930.52
623.151	2940.93
623.203	2889.45
623.254	2923.13
623.306	2896.83
623.358	2909.05
623.41	2936.77
623.461	2912.45
623.513	2915.69
623.565	2863.82
623.617	2951.16
623.668	2916.28
623.72	2927.6
623.772	2912.49
623.824	2917.8
623.875	2934.37
623.927	2973.97
623.979	2948
624.031	2956.71
624.082	2911.41
624.134	2927.23
624.186	2929.47
624.238	2920.78
624.289	2958.6
624.341	2966.09
624.393	2906.41
624.445	2939.89
624.496	2987.8
624.548	2933.4
624.6	3003.67
624.652	2996.54
624.703	2959.71
624.755	2953.98
624.807	2949.04
624.859	2942.46
624.91	2968.62
624.962	2933.52
625.014	2980.57
625.066	2890.12
625.117	2927.59
625.169	2934.24
625.221	2972.2
625.273	2962.81
625.324	2941.31
625.376	2981.57
625.428	3000.28
625.48	2981.87
625.531	2986.49
625.583	2968.7
625.635	2986.48
625.687	3069.22
625.738	3047.92
625.79	2972.18
625.842	2979.92
625.893	2999.64
625.945	3024.28
625.997	3043
626.049	3051.26
626.1	3062.22
626.152	3030.84
626.204	3062.43
626.256	3014.86
626.307	3010.52
626.316	3011.82
626.368	3023.85
626.42	3096.94
626.472	3023.84
626.523	2975.59
626.575	3013.01
626.627	3065.69
626.679	3028.58
626.731	3053.84
626.783	3091.6
626.835	3019.36
626.887	3077.09
626.938	3083.1
626.99	3057.42
627.042	3004.51
627.094	3078.4
627.146	3079.61
627.198	3122.25
627.25	3075.28
627.302	3124.51
627.353	3106.52
627.405	3053.49
627.457	3093.3
627.509	3106.58
627.561	3109.18
627.613	3125.6
627.665	3118.15
627.716	3156.51
627.768	3117.27
627.82	3156.4
627.872	3136.74
627.924	3132.84
627.976	3122.02
628.028	3135.95
628.079	3126.24
628.131	3106.19
628.183	3136.21
628.235	3126.42
628.287	3144.86
628.339	3084.33
628.391	3160.79
628.443	3155.65
628.494	3164.97
628.546	3164.53
628.598	3111.24
628.65	3162.11
628.702	3113.78
628.754	3090.11
628.805	3136.36
628.857	3153.79
628.909	3137.45
628.961	3163.23
629.013	3162.03
629.065	3165.17
629.117	3152.44
629.168	3197.57
629.22	3215.4
629.272	3208.92
629.324	3222.48
629.376	3205.18
629.428	3169.71
629.479	3255.9
629.531	3223.37
629.583	3249.65
629.635	3215.42
629.687	3219.68
629.739	3177.6
629.791	3210.39
629.842	3263.08
629.894	3204.42
629.946	3272.14
629.998	3198.24
630.05	3187.41
630.102	3230.18
630.153	3205.75
630.205	3276.62
630.257	3262.25
630.309	3278.78
630.361	3261.2
630.413	3285.63
630.464	3282.78
630.516	3298.11
630.568	3260.9
630.62	3292.91
630.672	3291.4
630.724	3293.15
630.776	3309.05
630.827	3308.01
630.879	3306.7
630.931	3295.86
630.983	3337.21
631.035	3314.71
631.086	3352.89
631.138	3297.63
631.19	3363.67
631.242	3333.54
631.294	3345.02
631.346	3331.28
631.397	3313.18
631.449	3323.09
631.501	3336.05
631.553	3376.01
631.605	3353.98
631.657	3351.36
631.708	3356.62
631.76	3340.13
631.812	3367.35
631.864	3370.19
631.916	3384.39
631.967	3402.38
632.019	3420.06
632.071	3412.13
632.123	3423.27
632.175	3436.01
632.227	3458.01
632.278	3418.96
632.33	3441.16
632.382	3399.76
632.434	3445.13
632.486	3455.38
632.537	3399.62
632.589	3443.05
632.641	3403.5
632.693	3453.15
632.745	3476.02
632.797	3464.63
632.848	3499.4
632.9	3457.71
632.952	3456.33
633.004	3478.43
633.056	3466.49
633.107	3463.63
633.159	3460.17
633.211	3498.09
633.263	3492.39
633.315	3510.57
633.366	3559.66
633.418	3499.94
633.47	3511.07
633.522	3539.88
633.574	3525.72
633.625	3562.53
633.677	3587.45
633.729	3574.18
633.781	3544.7
633.833	3644.12
633.885	3625.82
633.936	3622.33
633.988	3601.58
634.04	3610.08
634.092	3612.13
634.143	3590.07
634.195	3617.45
634.247	3659.31
634.299	3614.74
634.351	3656.83
634.403	3652.74
634.454	3683.1
634.506	3709.56
634.558	3684.51
634.61	3660.62
634.661	3730.1
634.713	3666.89
634.765	3709.94
634.817	3714.5
634.869	3726.38
634.92	3713.5
634.972	3717.53
635.024	3758.68
635.076	3777.07
635.128	3766.34
635.179	3774.4
635.231	3816.91
635.283	3811.39
635.335	3786.58
635.387	3837.41
635.438	3824.07
635.49	3847.11
635.542	3823.81
635.594	3858.93
635.645	3861.48
635.697	3878.37
635.749	3921.96
635.801	3918.34
635.853	3919.82
635.904	3900.99
635.956	3974.58
636.008	3991.16
636.06	3991.96
636.112	4023.38
636.163	3980.98
636.215	4062.39
636.267	4077.56
636.319	4084.81
636.37	4105.33
636.422	4152.68
636.474	4168.88
636.526	4175.69
636.577	4211.09
636.629	4216.52
636.681	4204.11
636.733	4297.29
636.785	4300.66
636.836	4331.54
636.888	4364.8
636.94	4408.91
636.992	4442.43
637.043	4466.5
637.095	4496.76
637.147	4591.76
637.199	4606.95
637.25	4662.79
637.302	4679.8
637.354	4667.25
637.406	4715.75
637.458	4836.66
637.509	4874.11
637.561	4827.52
637.613	4901.86
637.665	4975.53
637.716	4996.94
637.768	5079.45
637.82	5056.51
637.872	5109.58
637.923	5122.04
637.975	5157
638.027	5248.42
638.079	5277.47
638.13	5314.07
638.182	5315.97
638.234	5329.47
638.286	5366.38
638.337	5332.1
638.389	5405.22
638.441	5370.46
638.493	5354.69
638.544	5397.28
638.596	5452.86
638.648	5414.39
638.7	5453.53
638.752	5395.64
638.803	5416.65
638.855	5409.73
638.907	5416.11
638.958	5378.32
639.01	5341.3
639.062	5338.71
639.114	5311.11
639.165	5330.63
639.217	5284.09
639.269	5262.91
639.321	5227.93
639.372	5255.05
639.424	5158.47
639.476	5139.5
639.528	5119.56
639.579	5107.57
639.631	5109.6
639.683	5033.41
639.735	5032.69
639.786	4966.53
639.838	5001.32
639.89	4967.57
639.942	4984.87
639.993	4932.86
640.045	4835.19
640.097	4819.62
640.149	4844.8
640.2	4838.37
640.252	4846.64
640.304	4783.62
640.356	4733.94
640.407	4785.88
640.459	4738.53
640.511	4708.94
640.562	4715.31
640.614	4718.95
640.666	4702.3
640.718	4686.77
640.769	4686.63
640.821	4658.67
640.873	4626.61
640.925	4646.46
640.976	4639.52
641.028	4614.08
641.08	4649.49
641.131	4616.22
641.183	4599.98
641.235	4571.9
641.287	4542.73
641.338	4556.12
641.39	4553.8
641.442	4570.78
641.494	4544.17
641.545	4560.25
641.597	4555.01
641.649	4577.65
641.7	4549.68
641.752	4540.26
641.804	4531.39
641.856	4528.83
641.907	4547.44
641.959	4540.68
642.011	4506.8
642.063	4521.6
642.114	4526.52
642.166	4542.16
642.218	4548.06
642.269	4542.99
642.321	4542.65
642.373	4492.78
642.424	4508.34
642.476	4526.02
642.528	4510.05
642.58	4479.49
642.631	4501.56
642.683	4553.24
642.735	4507.63
642.786	4463.99
642.838	4505.34
642.89	4496.68
642.942	4502.62
642.993	4494.95
643.045	4472.22
643.097	4493.77
643.148	4507.19
643.2	4540
643.252	4532.24
643.304	4578.07
643.355	4532.35
643.407	4512.93
643.459	4556.19
643.51	4525.4
643.562	4473.77
643.614	4535.58
643.665	4511.96
643.717	4474.91
643.769	4534.13
643.82	4556.79
643.872	4491.41
643.924	4555.12
643.976	4561.15
644.027	4576.79
644.079	4543.69
644.131	4579.81
644.182	4553.16
644.234	4591.79
644.286	4615.95
644.337	4576.93
644.389	4611.42
644.441	4563.27
644.493	4594.08
644.544	4577.69
644.596	4563.38
644.648	4560.55
644.699	4543.31
644.751	4575.15
644.803	4649.82
644.854	4652.23
644.906	4607.32
644.958	4620.63
645.009	4607.65
645.061	4621.37
645.113	4629.71
645.164	4598.28
645.216	4597.46
645.268	4701.88
645.32	4603.32
645.371	4660.1
645.423	4640.92
645.475	4662.74
645.526	4632.74
645.578	4628.28
645.63	4612.58
645.681	4633.12
645.733	4703.57
645.785	4650.87
645.836	4675.27
645.888	4605.3
645.94	4674.67
645.991	4660.46
646.043	4679.55
646.095	4698.08
646.146	4685.29
646.198	4737.46
646.25	4690.24
646.301	4700.38
646.353	4662.95
646.405	4720.17
646.456	4692.4
646.508	4755.82
646.56	4755.34
646.611	4734.4
646.663	4721.85
646.715	4704.96
646.766	4746.23
646.818	4706.73
646.87	4736.03
646.921	4731.68
646.973	4785.55
647.025	4727.87
647.076	4781.42
647.128	4803.46
647.18	4781.2
647.231	4739.64
647.283	4724.32
647.335	4798.99
647.386	4839.94
647.438	4768.64
647.49	4794.68
647.541	4810.38
647.593	4741.58
647.645	4806.94
647.696	4847.82
647.748	4759.81
647.8	4821.61
647.851	4744.44
647.903	4853.16
647.955	4863.91
648.006	4859.66
648.058	4854.11
648.109	4829.17
648.161	4845.81
648.213	4882.8
648.264	4845.49
648.316	4916.7
648.368	4835.88
648.419	4877.14
648.471	4830.49
648.523	4881.31
648.574	4841.21
648.626	4820.02
648.678	4862.37
648.729	4913.93
648.781	4950.13
648.833	4919.28
648.884	4907.39
648.936	4914.04
648.987	4920.58
649.039	4948.19
649.091	5001.27
649.142	4939.71
649.194	4988.72
649.246	4999.7
649.297	4941.31
649.349	4974.1
649.401	4988.88
649.452	5043.51
649.504	5006.91
649.555	5020.42
649.607	5006.2
649.659	5043.12
649.71	4998.77
649.762	5022.58
649.814	5002.12
649.865	5012.14
649.917	5013.36
649.969	5031.6
650.02	5076.81
650.072	5021.16
650.123	5037.08
650.175	5069.42
650.227	5127.25
650.278	5117.1
650.33	5117.15
650.382	5099.05
650.433	5099.87
650.485	5084.6
650.536	5144.85
650.588	5182.21
650.64	5154.94
650.691	5186.73
650.743	5133.55
650.795	5187.4
650.846	5158.82
650.898	5149.52
650.949	5183.06
651.001	5223.24
651.053	5198.47
651.104	5118.28
651.156	5187.2
651.208	5202.27
651.259	5192.07
651.311	5215.65
651.362	5194.92
651.414	5234.94
651.466	5225.83
651.517	5183.24
651.569	5237.74
651.62	5258.96
651.672	5287.38
651.724	5245.56
651.775	5250.44
651.827	5289.01
651.878	5273.41
651.93	5255.37
651.982	5285.65
652.033	5256.21
652.085	5263.72
652.137	5285.42
652.188	5260.68
652.24	5272.39
652.291	5342.63
652.343	5358.44
652.395	5373.5
652.446	5355.72
652.498	5368.21
652.549	5396.23
652.601	5363.98
652.653	5394.63
652.704	5432.48
652.756	5431.79
652.772	5427.83
652.824	5291.32
652.876	5420.04
652.927	5424.13
652.979	5464.46
653.031	5436.65
653.083	5385.22
653.134	5452.01
653.186	5474.12
653.238	5407.21
653.29	5515.3
653.341	5436.22
653.393	5488.73
653.445	5461.23
653.497	5501.29
653.548	5459.47
653.6	5536.56
653.652	5499.92
653.704	5466.7
653.755	5566.31
653.807	5533.87
653.859	5519.99
653.91	5611.53
653.962	5538.86
654.014	5624.02
654.066	5597.99
654.117	5580.91
654.169	5508.77
654.221	5594.5
654.273	5668.83
654.324	5659.42
654.376	5672.09
654.428	5705.96
654.48	5642.28
654.531	5714.31
654.583	5682.68
654.635	5675.59
654.686	5648.31
654.738	5728.72
654.79	5779.14
654.842	5774.11
654.893	5717.92
654.945	5694.78
654.997	5708.62
655.049	5783.66
655.1	5742.22
655.152	5807.02
655.204	5804.73
655.255	5835.1
655.307	5868.29
655.359	5768.09
655.411	5776.78
655.462	5890.35
655.514	5944.97
655.566	5811.04
655.618	5933.94
655.669	5911.36
655.721	5890.22
655.773	5897.45
655.824	5886.82
655.876	5988.66
655.928	5909.23
655.98	5998.89
656.031	5884.04
656.083	6063.17
656.135	5988.37
656.186	6091.53
656.238	6059.35
656.29	6087.49
656.342	6062.92
656.393	6160.31
656.445	6141.78
656.497	6140.1
656.548	6176.98
656.6	6164.36
656.652	6096.92
656.704	6235.99
656.755	6205.63
656.807	6151.51
656.859	6163.48
656.91	6234.67
656.962	6170.12
657.014	6146.2
657.065	6214.21
657.117	6278.64
657.169	6228.58
657.221	6218.01
657.272	6244.59
657.324	6384.25
657.376	6350.47
657.427	6392.32
657.479	6245.17
657.531	6369.46
657.583	6375.11
657.634	6354.01
657.686	6384.1
657.738	6406.63
657.789	6411.7
657.841	6368.66
657.893	6460.18
657.944	6336.1
657.996	6372.36
658.048	6471.76
658.099	6452.27
658.151	6428.55
658.203	6450.29
658.255	6419.13
658.306	6450.28
658.358	6509.93
658.41	6502.76
658.461	6489.73
658.513	6463.47
658.565	6476.49
658.616	6486.28
658.668	6566.13
658.72	6517.95
658.771	6494.79
658.823	6561.85
658.875	6532.63
658.927	6514.24
658.978	6540.77
659.03	6540.55
659.082	6527.86
659.133	6610.59
659.185	6561.95
659.237	6654.98
659.288	6613.27
659.34	6620.5
659.392	6565.22
659.443	6651.3
659.495	6616.48
659.547	6604.76
659.598	6648.02
659.65	6589.56
659.702	6644.48
659.753	6561.11
659.805	6614.77
659.857	6633.56
659.909	6595.82
659.96	6667.34
660.012	6631.41
660.064	6662.66
660.115	6616.12
660.167	6657.72
660.219	6629.99
660.27	6725.96
660.322	6711.75
660.374	6699.41
660.425	6654.81
660.477	6727.41
660.529	6725.55
660.58	6705.7
660.632	6691.79
660.684	6687.17
660.735	6678.8
660.787	6673.62
660.839	6689.51
660.89	6711.64
660.942	6686.36
660.994	6742.3
661.045	6703.44
661.097	6619.43
661.149	6646.9
661.2	6606.93
661.252	6670.62
661.304	6678.24
661.355	6684.01
661.407	6723.65
661.459	6816.59
661.51	6701.84
661.562	6685.57
661.614	6717.34
661.665	6714.52
661.717	6679.53
661.768	6706.21
661.82	6657.29
661.872	6658.22
661.923	6714.38
661.975	6685.6
662.027	6690.3
662.078	6734.02
662.13	6727.78
662.182	6756.12
662.233	6697
662.285	6712.25
662.337	6682.06
662.388	6685.16
662.44	6674.53
662.492	6728.6
662.543	6656.47
662.595	6713.48
662.647	6664.5
662.698	6708.69
662.75	6713.62
662.802	6692.34
662.853	6728.2
662.905	6758.06
662.956	6747.09
663.008	6757.98
663.06	6755.78
663.111	6751.2
663.163	6662.45
663.215	6718.44
663.266	6763.28
663.318	6757.7
663.37	6762.3
663.421	6687.52
663.473	6738.09
663.525	6733.5
663.576	6733.4
663.628	6710.1
663.679	6728.4
663.731	6740.79
663.783	6737.74
663.834	6721.52
663.886	6735.59
663.938	6751.15
663.989	6738.94
664.041	6751.17
664.093	6760.31
664.144	6774.28
664.196	6786.88
664.247	6739.56
664.299	6748.53
664.351	6729.37
664.402	6703.89
664.454	6709.42
664.506	6693.08
664.557	6712.91
664.609	6737.51
664.66	6720.56
664.712	6740.59
664.764	6685.44
664.815	6735.42
664.867	6689.61
664.919	6724.34
664.97	6756.92
665.022	6781.6
665.073	6789.84
665.125	6735.06
665.177	6724.74
665.228	6689.99
665.28	6744.28
665.332	6705.23
665.383	6712.82
665.435	6689.11
665.486	6759.75
665.538	6701.51
665.59	6709.54
665.641	6738.5
665.693	6707.89
665.745	6678.84
665.796	6673.88
665.848	6708.14
665.899	6706.84
665.951	6709.2
666.003	6721.23
666.054	6714.04
666.106	6704.76
666.157	6687.48
666.209	6712.11
666.261	6678.99
666.312	6674.53
666.364	6719.76
666.415	6729.08
666.467	6748.34
666.519	6702.72
666.57	6655.09
666.622	6709.49
666.673	6662.58
666.725	6663.16
666.777	6684.24
666.828	6664.6
666.88	6655.55
666.931	6705.03
666.983	6669.06
667.035	6687.5
667.086	6701.01
667.138	6661.02
667.189	6655.1
667.241	6614.76
667.293	6699.73
667.344	6704.96
667.396	6714.93
667.447	6642.33
667.499	6644.6
667.551	6642.67
667.602	6629.52
667.654	6656.63
667.705	6652.74
667.757	6654.33
667.809	6726.19
667.86	6665.84
667.912	6684.61
667.963	6645.64
668.015	6696.96
668.067	6701.49
668.118	6660.48
668.17	6694.91
668.221	6661.76
668.273	6662.04
668.325	6662.92
668.376	6660.96
668.428	6600.29
668.479	6657.15
668.531	6671.82
668.582	6649.13
668.634	6655.79
668.686	6650.75
668.737	6665.84
668.789	6569.03
668.84	6724.79
668.892	6686.11
668.944	6656.81
668.995	6663.74
669.047	6652.2
669.098	6631
669.15	6715.05
669.201	6651.8
669.253	6651.62
669.305	6651.45
669.356	6677.08
669.408	6623.67
669.459	6632.62
669.511	6670.1
669.562	6664.46
669.614	6636.15
669.666	6698.79
669.717	6675.44
669.769	6694.99
669.82	6630.23
669.872	6639.51
669.923	6641.34
669.975	6648.79
670.027	6643.56
670.078	6641.9
670.13	6689.66
670.181	6660.15
670.233	6614.76
670.284	6651.07
670.336	6637.75
670.388	6674.26
670.439	6666.56
670.491	6704.74
670.542	6621.39
670.594	6691.39
670.645	6701.58
670.697	6602.32
670.748	6719.2
670.8	6668.66
670.852	6663.34
670.903	6710.58
670.955	6652.94
671.006	6718
671.058	6616.4
671.109	6594.38
671.161	6699.19
671.212	6634.51
671.264	6613.72
671.316	6584.26
671.367	6607.83
671.419	6676.08
671.47	6674.88
671.522	6672.69
671.573	6690.94
671.625	6661.37
671.676	6659.01
671.728	6686.67
671.78	6651.1
671.831	6677.82
671.883	6666.57
671.934	6712.07
671.986	6675.51
672.037	6681.83
672.089	6701.57
672.14	6639.37
672.192	6648.6
672.243	6709.98
672.295	6708.44
672.347	6713.36
672.398	6706.39
672.45	6725.08
672.501	6771.5
672.553	6716.7
672.604	6695.59
672.656	6761.88
672.707	6751.03
672.759	6746.18
672.81	6727.13
672.862	6738.65
672.913	6755.02
672.965	6784.2
673.017	6739.63
673.068	6751.04
673.12	6759.1
673.171	6776.7
673.223	6847.91
673.274	6782.58
673.326	6755.99
673.377	6796.56
673.429	6842.19
673.48	6791.36
673.532	6778.94
673.583	6824.9
673.635	6837.76
673.686	6799.18
673.738	6886.38
673.789	6872.15
673.841	6870.04
673.893	6859.29
673.944	6848.89
673.996	6848.46
674.047	6864.04
674.099	6905.74
674.15	6884.79
674.202	6868.13
674.253	6856.18
674.305	6924.56
674.356	6949.35
674.408	6912.79
674.459	6869.76
674.511	6904.1
674.562	6901.17
674.614	6956.04
674.665	6948.1
674.717	6952.99
674.768	6972.17
674.82	6939.19
674.871	6954.13
674.923	6973.31
674.974	6955.66
675.026	6970.52
675.077	7029.71
675.129	7010.18
675.18	7005.89
675.232	7020.27
675.284	6982.26
675.335	6967.1
675.387	7096.04
675.438	7048.01
675.49	7038.33
675.541	7067.13
675.593	7127.46
675.644	7070.95
675.696	7014.28
675.747	6989.41
675.799	7042.64
675.85	7077.66
675.902	7075.54
675.953	7077.81
676.005	7140.11
676.056	7099.01
676.108	7098.94
676.159	7092.05
676.211	7128.21
676.262	7128.78
676.314	7121.17
676.365	7102.89
676.417	7114.33
676.468	7136.23
676.52	7104.79
676.571	7126.88
676.623	7129.18
676.674	7140.14
676.726	7131.21
676.777	7113.86
676.828	7122.19
676.88	7148.61
676.932	7165.69
676.983	7140.46
677.034	7145.62
677.086	7158.25
677.137	7134.33
677.189	7069.77
677.24	7104.15
677.292	7162.07
677.343	7112.73
677.395	7136.64
677.446	7154.89
677.498	7140.94
677.549	7085.34
677.601	7096.33
677.652	7205.71
677.704	7200.78
677.755	7179.08
677.807	7110.85
677.858	7116.57
677.91	7167.13
677.961	7173.07
678.013	7171.85
678.064	7115.06
678.116	7118.77
678.167	7131.15
678.219	7107.31
678.27	7135.51
678.322	7155.35
678.373	7155.07
678.424	7163.29
678.476	7153.62
678.527	7149.12
678.579	7148.44
678.63	7131.08
678.682	7147.47
678.733	7165.8
678.785	7178.47
678.836	7172.18
678.888	7168.58
678.939	7175.81
678.991	7174.89
679.042	7145.84
679.094	7111.56
679.122	7108.44
679.173	7152.69
679.225	7168.9
679.277	7131.22
679.328	7188.92
679.38	7094.55
679.432	7217.31
679.483	7055.26
679.535	7104.14
679.586	7188.7
679.638	7135.72
679.69	7087.11
679.741	7219.24
679.793	7167.83
679.844	7085.72
679.896	7169.61
679.948	7190.13
679.999	7218.24
680.051	7218.42
680.103	7232.8
680.154	7183.71
680.206	7177.16
680.257	7199.94
680.309	7285.01
680.361	7277.55
680.412	7302.44
680.464	7260.44
680.515	7281.87
680.567	7174.33
680.619	7282.44
680.67	7331.52
680.722	7227.96
680.773	7277.84
680.825	7286.64
680.877	7169.18
680.928	7233.88
680.98	7280.89
681.031	7281.14
681.083	7323.21
681.135	7296.86
681.186	7252.28
681.238	7298.8
681.289	7352.59
681.341	7360.74
681.393	7336.17
681.444	7273.54
681.496	7298.22
681.547	7273.71
681.599	7282.79
681.651	7366.96
681.702	7340.28
681.754	7366.76
681.805	7350.28
681.857	7361.85
681.909	7356.74
681.96	7493.1
682.012	7360.84
682.063	7388.55
682.115	7277.07
682.166	7366.28
682.218	7396.05
682.27	7387.9
682.321	7427.18
682.373	7319.76
682.424	7434.67
682.476	7384.96
682.528	7440.39
682.579	7413.73
682.631	7448.93
682.682	7487.5
682.734	7450.29
682.785	7493.54
682.837	7425.15
682.889	7424.77
682.94	7485.24
682.992	7486.53
683.043	7441.61
683.095	7422.17
683.146	7448.26
683.198	7443.89
683.25	7409.07
683.301	7444.96
683.353	7446.62
683.404	7454.12
683.456	7458.08
683.508	7427.19
683.559	7461.4
683.611	7511.54
683.662	7385.87
683.714	7474.61
683.765	7402.79
683.817	7412.03
683.869	7438.16
683.92	7470.3
683.972	7425.7
684.023	7380.19
684.075	7445.64
684.126	7458.97
684.178	7450.02
684.229	7404.16
684.281	7319.72
684.333	7383.48
684.384	7343.02
684.436	7406.86
684.487	7354.09
684.539	7390.23
684.59	7462.89
684.642	7374.34
684.694	7334.84
684.745	7375
684.797	7390
684.848	7367.47
684.9	7409.08
684.951	7337.15
685.003	7365.55
685.055	7417.61
685.106	7408.2
685.158	7363.71
685.209	7351.92
685.261	7342.37
685.312	7374.98
685.364	7327.9
685.415	7291.88
685.467	7393.74
685.518	7389.26
685.57	7310.47
685.622	7246.89
685.673	7350.47
685.725	7326.04
685.776	7347.66
685.828	7276.24
685.879	7380.38
685.931	7402.12
685.982	7343.83
686.034	7361
686.086	7335.06
686.137	7336.33
686.189	7294.76
686.24	7300.97
686.292	7318.07
686.343	7280.73
686.395	7272.44
686.446	7321.7
686.498	7281.96
686.549	7302.06
686.601	7311.32
686.652	7347.41
686.704	7289.56
686.756	7287.06
686.807	7336.61
686.859	7285.29
686.91	7296.37
686.962	7253.39
687.013	7224.94
687.065	7331.29
687.116	7271.59
687.168	7219.24
687.219	7182.45
687.271	7246.99
687.322	7271.31
687.374	7215.35
687.426	7283.01
687.477	7230.14
687.529	7225
687.58	7167.08
687.632	7319.86
687.683	7211.88
687.735	7237.07
687.786	7275.99
687.838	7278.85
687.889	7246.36
687.941	7282.68
687.992	7269.47
688.044	7244.98
688.095	7227.13
688.147	7281.94
688.198	7266.27
688.25	7233.98
688.302	7275.64
688.353	7220.39
688.405	7355.99
688.456	7306.28
688.508	7260.39
688.559	7263.04
688.611	7175.05
688.662	7209.88
688.714	7211
688.765	7219.78
688.817	7279.12
688.868	7225.15
688.92	7280.78
688.971	7293.37
689.023	7181.32
689.074	7276.76
689.126	7218.59
689.177	7222.42
689.229	7308.95
689.28	7274.82
689.332	7265.62
689.383	7167.9
689.435	7214.38
689.486	7179.38
689.538	7185.33
689.589	7232.41
689.641	7189.44
689.692	7178.77
689.744	7145.16
689.795	7187.66
689.847	7165.91
689.898	7233.77
689.95	7212.22
690.001	7199.81
690.053	7167.12
690.104	7193.84
690.156	7134.74
690.207	7253.19
690.259	7149.47
690.31	7189.96
690.362	7142.89
690.413	7110.25
690.465	7190.73
690.516	7191.33
690.568	7235.53
690.619	7197.49
690.671	7148.97
690.722	7131.03
690.774	7166.92
690.825	7120.01
690.877	7196.53
690.928	7131.87
690.98	7092.87
691.031	7097.75
691.083	7128.98
691.134	7106.59
691.186	7090.59
691.237	7116.3
691.289	7053.71
691.34	7127.3
691.392	7112.43
691.443	7044.29
691.495	7065.65
691.546	7118.08
691.598	7079.4
691.649	7083.85
691.701	7103.53
691.752	7084.91
691.804	7115.97
691.855	7051.12
691.907	7033.75
691.958	7080.27
692.01	7118.76
692.061	7078.33
692.113	7067.69
692.164	7077.24
692.216	7015.83
692.267	7018.39
692.319	7046.82
692.37	7063.93
692.421	7007.23
692.473	7034.23
692.524	7006.32
692.576	7048.34
692.627	7041.02
692.679	7035.55
692.73	7018.91
692.782	6952.16
692.833	6977.54
692.885	6971.37
692.936	6995.21
692.988	6968.69
693.039	6944.34
693.091	6932.91
693.142	6942.9
693.194	6970.24
693.245	6990.68
693.297	6997.06
693.348	6959.71
693.399	6959.87
693.451	6923.95
693.502	6905.35
693.554	6905.88
693.605	6955.59
693.657	6971.07
693.708	6900.34
693.76	6897.82
693.811	6910.2
693.863	6917.19
693.914	6937.63
693.966	6908.38
694.017	6942.05
694.068	6926.84
694.12	6974
694.171	6972.04
694.223	6907.85
694.274	6923.48
694.326	6870.98
694.377	6854.29
694.429	6933.4
694.48	6935.95
694.532	6872.91
694.583	6858.25
694.634	6934.99
694.686	6911.02
694.737	6859.08
694.789	6881.92
694.84	6920.35
694.892	6889.67
694.943	6859.06
694.995	6937.79
695.046	6885.13
695.097	6868.28
695.149	6872.2
695.2	6870.05
695.252	6873.71
695.303	6863.05
695.355	6858.4
695.406	6845.11
695.458	6891.19
695.509	6855.25
695.56	6865.04
695.612	6820.13
695.663	6848.7
695.715	6854.23
695.766	6871.86
695.818	6886.83
695.869	6855.23
695.921	6834.58
695.972	6782.09
696.023	6843.47
696.075	6801.47
696.126	6736.66
696.178	6809.63
696.229	6823.09
696.281	6770.96
696.332	6855.05
696.383	6805.79
696.435	6796.26
696.486	6726.63
696.538	6708.5
696.589	6720.56
696.641	6764.83
696.692	6732.62
696.744	6739.02
696.795	6766.99
696.846	6703.03
696.898	6716.52
696.949	6721.15
697.001	6734.59
697.052	6721.09
697.104	6756.42
697.155	6766
697.206	6705.39
697.258	6730.49
697.309	6706.84
697.361	6730.46
697.412	6692.74
697.463	6737.42
697.515	6704.19
697.566	6686.42
697.618	6592.52
697.669	6658.77
697.721	6661.46
697.772	6638.32
697.823	6646.28
697.875	6697.5
697.926	6608.52
697.978	6630.42
698.029	6651.42
698.08	6683.08
698.132	6639.79
698.183	6671.78
698.235	6624.41
698.286	6592.29
698.338	6656.39
698.389	6566.18
698.44	6594.65
698.492	6537.84
698.543	6547.55
698.595	6567.69
698.646	6575
698.697	6588.39
698.749	6546
698.8	6546.84
698.852	6542.03
698.903	6525.49
698.954	6534.31
699.006	6553.74
699.057	6563.28
699.109	6542.59
699.16	6545.2
699.211	6483.41
699.263	6507.62
699.314	6509.96
699.366	6531.19
699.417	6516.58
699.468	6483.92
699.52	6515.5
699.571	6474.6
699.623	6518.14
699.674	6528.84
699.725	6453.73
699.777	6494.16
699.828	6479.59
699.88	6492.08
699.931	6464.38
699.982	6485.45
700.034	6461.49
700.085	6452.89
700.137	6474.02
700.188	6447.38
700.239	6504.3
700.291	6453.64
700.342	6435.15
700.393	6454.48
700.445	6479.34
700.496	6440.37
700.548	6462.08
700.599	6414.12
700.65	6404.6
700.702	6479.6
700.753	6424.8
700.805	6434.98
700.856	6435.42
700.907	6411.81
700.959	6420.39
701.01	6486.04
701.061	6415.38
701.113	6387.73
701.164	6457
701.216	6459.84
701.267	6443.13
701.318	6390.48
701.37	6428.19
701.421	6469.2
701.472	6436.96
701.524	6433.38
701.575	6416.07
701.627	6449.44
701.678	6474.58
701.729	6473.25
701.781	6452.42
701.832	6456.8
701.883	6409.84
701.935	6396.05
701.986	6447.48
702.038	6477.18
702.089	6483.09
702.14	6485.93
702.192	6419.06
702.243	6380.11
702.294	6443.43
702.346	6440.76
702.397	6390.35
702.448	6409.36
702.5	6434.43
702.551	6404.73
702.603	6374.07
702.654	6401.44
702.705	6436.33
702.757	6434.47
702.808	6428.28
702.859	6442.04
702.911	6488
702.962	6477.76
703.013	6412.86
703.065	6407.12
703.116	6385.37
703.167	6403.6
703.219	6460.52
703.27	6465.88
703.322	6450.05
703.373	6421.98
703.424	6441.47
703.476	6453
703.527	6434.55
703.578	6393.03
703.63	6418.58
703.681	6438.5
703.732	6417.97
703.784	6422.3
703.835	6435.58
703.886	6394.91
703.938	6353.95
703.989	6412.7
704.04	6448.5
704.092	6404.6
704.143	6369.96
704.194	6372.42
704.246	6339.44
704.297	6341.21
704.348	6363.75
704.4	6362.64
704.451	6345.33
704.503	6389.95
704.554	6355.95
704.605	6307.22
704.656	6315.2
704.708	6303.01
704.759	6319.22
704.81	6334.08
704.862	6324.11
704.913	6326.16
704.964	6367.78
705.016	6323.75
705.067	6337.22
705.119	6297.97
705.17	6274.32
705.221	6338.69
705.273	6279.67
705.324	6270.23
705.375	6283.73
705.408	6290
705.459	6292
705.511	6256.16
705.562	6186.7
705.614	6198.92
705.665	6225.07
705.717	6283.2
705.768	6181.61
705.82	6268.91
705.871	6212.06
705.923	6261.41
705.974	6335.14
706.026	6206.73
706.077	6259.26
706.129	6228.39
706.18	6206.44
706.232	6219.81
706.283	6196.99
706.335	6134.55
706.386	6212.11
706.438	6214.88
706.489	6139.71
706.541	6139.85
706.592	6199.66
706.643	6197.98
706.695	6154.96
706.746	6132.44
706.798	6154.75
706.849	6137.22
706.901	6089.63
706.952	6175.74
707.004	6133.3
707.055	6152.52
707.107	6090.55
707.158	6131.73
707.21	6128.89
707.261	6049.74
707.313	6027.4
707.364	6105.85
707.416	6089.31
707.467	6111.1
707.518	6066.14
707.57	6092.87
707.621	6112.14
707.673	6022.34
707.724	6051.85
707.776	6116.79
707.827	6059.54
707.879	6010.64
707.93	6054.17
707.982	6024.96
708.033	6041.45
708.084	6035.75
708.136	6113.38
708.187	6008.77
708.239	6046.47
708.29	6012.48
708.342	6020.6
708.393	6002.95
708.445	5931.77
708.496	5998.42
708.548	6036.67
708.599	5868.03
708.651	5952.93
708.702	5893.18
708.753	5923.07
708.805	5994.2
708.856	6013.01
708.908	5958.12
708.959	5993.82
709.011	5922.48
709.062	5961.28
709.114	5925.07
709.165	5953.07
709.216	6023.34
709.268	5984.63
709.319	5880.69
709.371	6040.15
709.422	5959.69
709.474	6000.98
709.525	5939.85
709.577	5871.8
709.628	5922.82
709.679	5925.04
709.731	5924.18
709.782	5947.21
709.834	5904.92
709.885	5929.38
709.937	5962.37
709.988	5994.75
710.039	5975.4
710.091	5950.26
710.142	5920.22
710.194	5975.55
710.245	5930.16
710.297	5891.27
710.348	5925.98
710.4	5858.96
710.451	5911.69
710.502	5877.46
710.554	5896.21
710.605	5849.89
710.657	5936.53
710.708	5863.38
710.76	5833
710.811	5888.93
710.862	5893.39
710.914	5901.46
710.965	5875.28
711.017	5864.37
711.068	5826.92
711.12	5869.99
711.171	5850.55
711.222	5831.71
711.274	5836.08
711.325	5826.85
711.377	5863.43
711.428	5836.14
711.479	5818.04
711.531	5763.93
711.582	5812.84
711.634	5868.48
711.685	5815.52
711.737	5770.03
711.788	5746.93
711.839	5771.35
711.891	5783.74
711.942	5771.8
711.994	5733.17
712.045	5790.4
712.096	5780.57
712.148	5799.38
712.199	5736.28
712.251	5711.67
712.302	5741.89
712.354	5756.22
712.405	5764.6
712.456	5740.57
712.508	5741.72
712.559	5697.6
712.611	5724.44
712.662	5708.13
712.713	5763.11
712.765	5692.68
712.816	5659.31
712.868	5646.27
712.919	5625.01
712.97	5689.5
713.022	5663.35
713.073	5628.39
713.125	5635.56
713.176	5593.09
713.227	5612.78
713.279	5569.18
713.33	5630.36
713.382	5608.47
713.433	5553.75
713.484	5577.42
713.536	5614.37
713.587	5567.3
713.639	5492.02
713.69	5559.58
713.741	5566.31
713.793	5542.16
713.844	5555.74
713.896	5524.76
713.947	5531.53
713.998	5541.84
714.05	5551.82
714.101	5502.04
714.153	5528.45
714.204	5545.98
714.255	5497.65
714.307	5505.83
714.358	5496.98
714.41	5512.67
714.461	5471.04
714.512	5464.07
714.564	5490.99
714.615	5462.07
714.666	5498.81
714.718	5466.13
714.769	5393.63
714.821	5431.76
714.872	5449.61
714.923	5424.17
714.975	5420.58
715.026	5384.68
715.078	5441.83
715.129	5438.18
715.18	5370.27
715.232	5463.93
715.283	5385.3
715.334	5396.95
715.386	5332.64
715.437	5364.9
715.489	5379.51
715.54	5417.99
715.591	5369.99
715.643	5387.69
715.694	5347.04
715.745	5331.66
715.797	5337.95
715.848	5339.97
715.9	5332.16
715.951	5396.6
716.002	5320.6
716.054	5300.62
716.105	5328.28
716.156	5329.05
716.208	5334.36
716.259	5336.15
716.31	5296.61
716.362	5319.26
716.413	5307.77
716.465	5267.7
716.516	5302.36
716.567	5333.58
716.619	5339.86
716.67	5234.71
716.721	5277.08
716.773	5248.26
716.824	5228.15
716.875	5284.74
716.927	5269.25
716.978	5318.84
717.03	5271.14
717.081	5247.51
717.132	5230.92
717.184	5265.54
717.235	5272.62
717.286	5222.28
717.338	5251.35
717.389	5282.68
717.44	5237.89
717.492	5209.8
717.543	5267.33
717.594	5216.35
717.646	5220.15
717.697	5269.35
717.749	5212.18
717.8	5208.95
717.851	5205.82
717.903	5191.82
717.954	5205.76
718.005	5235.72
718.057	5189.57
718.108	5199.25
718.159	5244.87
718.211	5177.97
718.262	5184.14
718.313	5141.85
718.365	5133.14
718.416	5194.08
718.467	5172.96
718.519	5142.62
718.57	5145.91
718.621	5157.83
718.673	5125.18
718.724	5135.8
718.775	5139.71
718.827	5133.33
718.878	5084.94
718.93	5116.28
718.981	5149.74
719.032	5156.81
719.083	5101.51
719.135	5073.7
719.186	5111.84
719.237	5132.34
719.289	5131.14
719.34	5082.88
719.391	5063.76
719.443	5096.71
719.494	5048.94
719.545	5092.52
719.597	5045.01
719.648	5061.52
719.699	5034.97
719.751	5080.72
719.802	5044.97
719.853	5038.1
719.905	5021.77
719.956	5051.78
720.007	5025.02
720.059	5032.39
720.11	4993.67
720.161	5021.78
720.213	5013.18
720.264	5028.85
720.315	4981.98
720.367	5042.63
720.418	5037.39
720.469	5031.89
720.521	4972.68
720.572	4998.88
720.623	5018.61
720.675	5016.76
720.726	4984.3
720.777	4958.88
720.829	4971.77
720.88	4948.17
720.931	4957.3
720.982	4964.48
721.034	4912.33
721.085	4922.13
721.136	4919.45
721.188	4910.23
721.239	4910.11
721.29	4933.8
721.342	4874.59
721.393	4887.36
721.444	4900.21
721.496	4891.13
721.547	4883.26
721.598	4894.96
721.65	4881.87
721.701	4880.84
721.752	4862.36
721.803	4841.14
721.855	4823.26
721.906	4816.95
721.957	4816.48
722.009	4818.65
722.06	4806.85
722.111	4774.22
722.163	4801.45
722.214	4772.97
722.265	4770.57
722.316	4786.25
722.368	4794.81
722.419	4794.4
722.47	4764.95
722.522	4796.35
722.573	4808.49
722.624	4744.86
722.676	4728.24
722.727	4731.78
722.778	4708.31
722.829	4767.05
722.881	4741.18
722.932	4739.54
722.983	4735.12
723.035	4707.25
723.086	4707.01
723.137	4724.76
723.188	4690.7
723.24	4717.08
723.291	4714.52
723.342	4681.75
723.394	4645.29
723.445	4690.05
723.496	4677.3
723.547	4676.18
723.599	4677.91
723.65	4633.62
723.701	4605.03
723.753	4642.04
723.804	4630.07
723.855	4670
723.906	4662.44
723.958	4638.39
724.009	4630.08
724.06	4664.17
724.112	4634.25
724.163	4640.65
724.214	4653.58
724.265	4633.89
724.317	4643.48
724.368	4619.82
724.419	4584.09
724.47	4578.71
724.522	4587.48
724.573	4572.87
724.624	4597.84
724.676	4603.02
724.727	4562.88
724.778	4574.42
724.829	4581.2
724.881	4550.65
724.932	4583.73
724.983	4574.62
725.034	4582.19
725.086	4577.34
725.137	4574.81
725.188	4533.89
725.24	4551.63
725.291	4571.91
725.342	4572.24
725.393	4574.6
725.445	4562.7
725.496	4559.9
725.547	4513.37
725.598	4498.21
725.65	4505.95
725.701	4512.77
725.752	4503.79
725.803	4529.52
725.855	4541.22
725.906	4523.49
725.957	4512.46
726.008	4544.85
726.06	4502.14
726.111	4483.25
726.162	4469.62
726.213	4441.97
726.265	4416.05
726.316	4461.76
726.367	4461.75
726.418	4446.42
726.47	4486.22
726.521	4476.22
726.572	4424.91
726.623	4469.85
726.675	4462.07
726.726	4458.89
726.777	4430.98
726.828	4393.05
726.88	4427.15
726.931	4412.86
726.982	4410.15
727.033	4422.71
727.085	4397.96
727.136	4404.08
727.187	4418.07
727.238	4392.08
727.29	4353.35
727.341	4377.11
727.392	4367.9
727.443	4327.83
727.495	4363.97
727.546	4343.97
727.597	4337.65
727.648	4358.9
727.7	4299.34
727.751	4313.88
727.802	4337.18
727.853	4318.32
727.904	4313.67
727.956	4275.42
728.007	4299.65
728.058	4273.84
728.109	4311.45
728.161	4313.88
728.212	4312.46
728.263	4242.18
728.314	4269.6
728.366	4298.86
728.417	4332.98
728.468	4299.52
728.519	4225.4
728.57	4249.04
728.622	4233.72
728.673	4258.81
728.724	4190.99
728.775	4199.73
728.827	4240.11
728.878	4230.76
728.929	4255.43
728.98	4201.61
729.031	4195.86
729.083	4167.62
729.134	4227.04
729.185	4199.9
729.236	4208.8
729.288	4208.91
729.339	4096.61
729.39	4206.48
729.441	4113.14
729.492	4147.76
729.544	4175.24
729.595	4160.37
729.646	4127.62
729.697	4130.17
729.748	4044.4
729.8	4108.76
729.851	4075.66
729.902	4102.13
729.953	4118.26
730.004	4116.84
730.056	4118.95
730.107	4125.51
730.158	4074.43
730.209	4047.61
730.26	4060.64
730.312	4013.88
730.363	4078.02
730.414	4052.25
730.465	3967.61
730.517	4010.29
730.568	4024.28
730.619	4016.42
730.67	3965.02
730.721	4025.84
730.773	3929.23
730.824	3963.1
730.875	4010.19
730.926	3925.73
730.977	3952.07
731.029	3937.74
731.08	3938.84
731.131	3961.08
731.182	3913.09
731.233	3930.65
731.284	3924.16
731.336	3917.01
731.387	3893.29
731.438	3951.05
731.489	3958.51
731.54	3926.74
731.592	3914.61
731.643	3806.63
731.643	3806
731.694	3902
731.746	3866
731.797	3928.08
731.848	3946.15
731.9	3912.2
731.951	3918.74
732.002	3837.53
732.054	3845.64
732.105	3788.75
732.156	3887.52
732.208	3854.61
732.259	3831.94
732.311	3853.21
732.362	3880.68
732.413	3846.86
732.465	3836.36
732.516	3815.8
732.567	3776.99
732.619	3833.03
732.67	3875.19
732.721	3875.82
732.773	3831.63
732.824	3851.3
732.875	3893.11
732.927	3819.33
732.978	3827.24
733.029	3818.64
733.081	3808.89
733.132	3846.17
733.183	3773.46
733.235	3792.36
733.286	3832.13
733.337	3789.09
733.389	3776.35
733.44	3821.41
733.491	3786.83
733.543	3826.89
733.594	3807.21
733.645	3777.49
733.697	3795.48
733.748	3825.85
733.799	3824.23
733.851	3775.53
733.902	3736.39
733.953	3777.83
734.005	3742.25
734.056	3809.8
734.107	3777.02
734.158	3724.43
734.21	3764.14
734.261	3747.1
734.312	3757.96
734.364	3753.03
734.415	3793.49
734.466	3796.66
734.518	3737.72
734.569	3754.22
734.62	3754.24
734.672	3720.75
734.723	3759.51
734.774	3759.45
734.826	3773.64
734.877	3733.53
734.928	3711.94
734.98	3706.31
735.031	3722.66
735.082	3696.99
735.133	3704.94
735.185	3743.43
735.236	3686.69
735.287	3745.24
735.339	3762.94
735.39	3675.55
735.441	3663.69
735.493	3740.26
735.544	3655.14
735.595	3700.17
735.647	3692.98
735.698	3710.84
735.749	3716.13
735.8	3709.59
735.852	3690.62
735.903	3712.75
735.954	3655.06
736.006	3758.87
736.057	3729.38
736.108	3691.88
736.16	3695.36
736.211	3709.05
736.262	3666.77
736.313	3687.85
736.365	3739.38
736.416	3661.38
736.467	3669.57
736.519	3659.65
736.57	3671.09
736.621	3671.97
736.673	3707.46
736.724	3667.35
736.775	3649.1
736.826	3686.46
736.878	3627.08
736.929	3655.64
736.98	3680.2
737.032	3647.62
737.083	3694.42
737.134	3747.49
737.185	3660.82
737.237	3607.84
737.288	3657.68
737.339	3695.86
737.391	3663.73
737.442	3636.02
737.493	3707.48
737.544	3664.97
737.596	3706.2
737.647	3652.34
737.698	3675
737.75	3668.12
737.801	3636.05
737.852	3652.88
737.903	3649.4
737.955	3669.14
738.006	3698.48
738.057	3657.08
738.109	3683.23
738.16	3634.82
738.211	3666.71
738.262	3683.09
738.314	3591.24
738.365	3585.69
738.416	3641.55
738.468	3610.53
738.519	3644.12
738.57	3628.99
738.621	3626.25
738.673	3628.81
738.724	3665.29
738.775	3604.01
738.826	3600.62
738.878	3636.2
738.929	3625.29
738.98	3632.56
739.031	3672.93
739.083	3614.58
739.134	3602.85
739.185	3563.87
739.237	3603.14
739.288	3594.52
739.339	3611.52
739.39	3579.58
739.442	3583.26
739.493	3615.26
739.544	3624.83
739.595	3614
739.647	3593.63
739.698	3590.88
739.749	3578.06
739.8	3585.07
739.852	3590.17
739.903	3573.48
739.954	3583.6
740.005	3592.49
740.057	3565.11
740.108	3535.62
740.159	3514.23
740.211	3539.14
740.262	3566.77
740.313	3599.99
740.364	3504.96
740.416	3583.37
740.467	3523.04
740.518	3511.67
740.569	3510.34
740.621	3482.7
740.672	3503.77
740.723	3525.72
740.774	3492.47
740.826	3499.14
740.877	3510.69
740.928	3481.07
740.979	3488.41
741.031	3492.72
741.082	3481.52
741.133	3458.26
741.184	3455.74
741.235	3472.59
741.287	3494.47
741.338	3494.71
741.389	3432.51
741.44	3481.96
741.492	3489.16
741.543	3481.99
741.594	3378.27
741.645	3408.54
741.697	3449.43
741.748	3447.45
741.799	3424.37
741.85	3443.88
741.902	3447.98
741.953	3422.28
742.004	3426.59
742.055	3449.41
742.107	3422.19
742.158	3416.39
742.209	3427.34
742.26	3454.83
742.311	3428.72
742.363	3407.92
742.414	3427.39
742.465	3413.23
742.516	3410.23
742.568	3432.92
742.619	3374.11
742.67	3382.57
742.721	3343.67
742.773	3362.22
742.824	3407.12
742.875	3372.48
742.926	3357.53
742.977	3383.78
743.029	3373.39
743.08	3326.43
743.131	3374.77
743.182	3357.78
743.234	3350.16
743.285	3354.42
743.336	3366.29
743.387	3312.34
743.438	3342.76
743.49	3344.53
743.541	3336.11
743.592	3338.06
743.643	3317.84
743.694	3306.35
743.746	3346.98
743.797	3331.72
743.848	3310.3
743.899	3328.41
743.951	3328.39
744.002	3345.15
744.053	3301.15
744.104	3302.79
744.155	3301.62
744.207	3301.29
744.258	3315.87
744.309	3308.26
744.36	3249.01
744.411	3269.79
744.463	3264.63
744.514	3263.25
744.565	3274.19
744.616	3260.05
744.667	3243.8
744.719	3287.76
744.77	3267.11
744.821	3268.23
744.872	3254.49
744.923	3250.86
744.975	3263.7
745.026	3264.09
745.077	3230.44
745.128	3224.41
745.179	3256.83
745.231	3251.37
745.282	3248.69
745.333	3212.97
745.384	3218.41
745.435	3237.48
745.487	3213.08
745.538	3180.12
745.589	3199.01
745.64	3216.83
745.691	3193.47
745.743	3207.49
745.794	3200.87
745.845	3216.78
745.896	3170.19
745.947	3183.09
745.998	3174.5
746.05	3172.28
746.101	3170.72
746.152	3183.76
746.203	3205.38
746.254	3168.09
746.306	3147.41
746.357	3172.92
746.408	3199.87
746.459	3177.88
746.51	3175.09
746.562	3173.84
746.613	3165.63
746.664	3151.99
746.715	3167.2
746.766	3160.35
746.817	3161.46
746.869	3158.22
746.92	3138
746.971	3115.77
747.022	3148.21
747.073	3135.48
747.125	3157.89
747.176	3135.82
747.227	3106.68
747.278	3104.16
747.329	3101.08
747.38	3124.59
747.432	3111.22
747.483	3116.28
747.534	3121.19
747.585	3101.31
747.636	3108.01
747.687	3103.16
747.739	3108.04
747.79	3105.88
747.841	3081.42
747.892	3090.31
747.943	3094.21
747.994	3112.22
748.046	3097.46
748.097	3104.37
748.148	3090.78
748.199	3064.85
748.25	3068.26
748.301	3071.16
748.352	3036.15
748.404	3052.67
748.455	3059.08
748.506	3102.25
748.557	3073.07
748.608	3098.29
748.659	3070.31
748.711	3063.26
748.762	3074.35
748.813	3078.2
748.864	3059.27
748.915	3054.95
748.966	3070.2
749.018	3055.05
749.069	3053.8
749.12	3068.3
749.171	3053.64
749.222	3019.89
749.273	3009.67
749.324	3024.45
749.376	3037.07
749.427	3019.03
749.478	3006.34
749.529	2992.98
749.58	3014.32
749.631	3001.16
749.682	2999.5
749.734	3016.9
749.785	2998.15
749.836	3010.91
749.887	2981.47
749.938	3018.3
749.989	2976.05
750.04	3007.92
750.092	2993.14
750.143	3006.52
750.194	2991.3
750.245	3000.71
750.296	2990.02
750.347	2934.07
750.398	2969.16
750.45	2995.58
750.501	2955.21
750.552	2942.25
750.603	2953.08
750.654	2987.72
750.705	2981.49
750.756	2978.26
750.807	2947.28
750.859	2954.74
750.91	2967.72
750.961	2932.37
751.012	2916.56
751.063	2970.66
751.114	2920.72
751.165	2967.45
751.216	2936.07
751.268	2909.25
751.319	2916.25
751.37	2945.33
751.421	2971.46
751.472	2960.17
751.523	2935.21
751.574	2890
751.625	2915.59
751.677	2913.82
751.728	2928.03
751.779	2893.48
751.83	2913.72
751.881	2909.81
751.932	2878.64
751.983	2881.58
752.034	2897.29
752.086	2881.8
752.137	2900.66
752.188	2857.49
752.239	2904.6
752.29	2892.26
752.341	2889.4
752.392	2830.23
752.443	2845.25
752.494	2869.2
752.546	2844.66
752.597	2840.16
752.648	2855.75
752.699	2873.35
752.75	2877.14
752.801	2843.85
752.852	2838.62
752.903	2834.45
752.954	2838.67
753.005	2809.64
753.057	2776.58
753.108	2783.25
753.159	2772.93
753.21	2811.68
753.261	2801.69
753.312	2743.37
753.363	2791.36
753.414	2794.87
753.465	2768.02
753.516	2813.1
753.568	2840.52
753.619	2790.97
753.67	2801.3
753.721	2775.15
753.772	2787.1
753.823	2766.3
753.874	2740.28
753.925	2718.38
753.976	2739.31
754.027	2765.9
754.079	2782.46
754.13	2738.44
754.181	2760.25
754.232	2737.82
754.283	2769.61
754.334	2719.21
754.385	2724.45
754.436	2734.98
754.487	2708.52
754.538	2732.56
754.589	2738.15
754.641	2737.56
754.692	2701.26
754.743	2728.25
754.794	2761.38
754.845	2744.09
754.896	2635.51
754.947	2668.49
754.998	2623.83
755.049	2720.33
755.1	2666.83
755.151	2675.32
755.202	2718.6
755.253	2689.68
755.305	2713.84
755.356	2672.14
755.407	2690.62
755.458	2651.3
755.509	2679.92
755.56	2664.29
755.611	2689.08
755.662	2666.49
755.713	2631.19
755.764	2651.4
755.815	2645.28
755.866	2638.65
755.917	2627.26
755.968	2677.2
756.02	2598.07
756.071	2637.57
756.122	2567.75
756.173	2622.95
756.224	2617.14
756.275	2630.38
756.326	2623.15
756.377	2619.04
756.428	2620.42
756.479	2635.45
756.53	2578.2
756.581	2597.48
756.632	2607.71
756.683	2560.18
756.734	2549.47
756.785	2617.6
756.837	2666.81
756.888	2650.62
756.939	2634.89
756.99	2596.41
757.041	2613
757.092	2589.61
757.143	2606.38
757.194	2570.22
757.245	2583.52
757.296	2575.71
757.347	2560.79
757.398	2551.1
757.449	2520.67
757.5	2526.05
757.551	2547.28
757.602	2508.36
757.653	2506.18
757.704	2578.88
757.755	2565.5
757.807	2580.13
757.858	2567.17
757.909	2545.72
757.917	2542
757.968	2543.99
758.02	2511.97
758.071	2504.08
758.122	2486.22
758.173	2521.84
758.224	2456.16
758.276	2535.32
758.327	2511.73
758.378	2526.06
758.429	2456.52
758.48	2507.43
758.532	2496.65
758.583	2482.73
758.634	2499.35
758.685	2511.25
758.736	2482.1
758.788	2475.94
758.839	2498.62
758.89	2509.66
758.941	2448.97
758.992	2443.35
759.044	2429.42
759.095	2453.7
759.146	2492.38
759.197	2472.33
759.248	2464.25
759.3	2429.49
759.351	2404.38
759.402	2417.95
759.453	2365.2
759.504	2512.43
759.556	2427.28
759.607	2475.47
759.658	2458.76
759.709	2484.66
759.76	2435.79
759.811	2385.5
759.863	2399.12
759.914	2416.48
759.965	2436.18
760.016	2429.26
760.067	2410.13
760.119	2433.87
760.17	2418.53
760.221	2349.24
760.272	2406.1
760.323	2403.76
760.375	2356.34
760.426	2367.41
760.477	2360.63
760.528	2362.67
760.579	2393.2
760.63	2386.11
760.682	2399.59
760.733	2369.05
760.784	2379.28
760.835	2348.12
760.886	2348.06
760.937	2362.57
760.989	2317.64
761.04	2339.59
761.091	2352.5
761.142	2352.87
761.193	2351.44
761.245	2296.05
761.296	2314.17
761.347	2313.17
761.398	2365.67
761.449	2337.86
761.5	2302.98
761.552	2294.54
761.603	2313.36
761.654	2266.53
761.705	2306.18
761.756	2287.36
761.807	2310.82
761.859	2298.88
761.91	2315.91
761.961	2290.13
762.012	2265.04
762.063	2279.06
762.114	2309.52
762.165	2297.77
762.217	2265.72
762.268	2305.95
762.319	2279.56
762.37	2280.92
762.421	2266.18
762.472	2257.84
762.524	2247.73
762.575	2261.37
762.626	2284.03
762.677	2250.86
762.728	2262.01
762.779	2227.12
762.831	2251.65
762.882	2256.34
762.933	2264.38
762.984	2297.4
763.035	2226.41
763.086	2237.45
763.137	2288.72
763.189	2236.32
763.24	2209.32
763.291	2237.77
763.342	2269.67
763.393	2247.19
763.444	2265.27
763.495	2207.09
763.547	2229.54
763.598	2202.21
763.649	2231.85
763.7	2234.86
763.751	2222.57
763.802	2206.56
763.853	2182.06
763.905	2155.92
763.956	2217.18
764.007	2199.07
764.058	2153.93
764.109	2196.82
764.16	2216.41
764.211	2208.65
764.263	2201.02
764.314	2138.17
764.365	2165.29
764.416	2214.28
764.467	2173.53
764.518	2184.84
764.569	2194.29
764.621	2145.54
764.672	2178.9
764.723	2182.22
764.774	2166.53
764.825	2143.34
764.876	2171.61
764.927	2160.73
764.978	2176.04
765.03	2139.82
765.081	2180.55
765.132	2150.15
765.183	2171.08
765.234	2157.51
765.285	2150.05
765.336	2097.72
765.387	2104.08
765.439	2130.51
765.49	2128.69
765.541	2111.84
765.592	2135.31
765.643	2171.22
765.694	2133.55
765.745	2103.81
765.796	2110.29
765.848	2121.01
765.899	2115.11
765.95	2112.62
766.001	2129.54
766.052	2114.32
766.103	2102.55
766.154	2052.85
766.205	2100.31
766.256	2113.07
766.308	2087.8
766.359	2081.14
766.41	2108.98
766.461	2084.55
766.512	2078.4
766.563	2107.29
766.614	2078.9
766.665	2061.47
766.716	2063.95
766.768	2050.12
766.819	2082.09
766.87	2032.25
766.921	2066.52
766.972	2055.95
767.023	2067.65
767.074	2080.6
767.125	2080.45
767.176	2053.71
767.227	2026.27
767.279	2038.47
767.33	2026.6
767.381	2029.15
767.432	2022.17
767.483	2038.08
767.534	2028.2
767.585	2021.12
767.636	2020.96
767.687	2047.21
767.739	2024.54
767.79	2022.26
767.841	2015.01
767.892	2001.09
767.943	2011.71
767.994	2027.84
768.045	2001.33
768.096	1977.3
768.147	1963.83
768.198	2001.59
768.249	2001.04
768.301	1984.03
768.352	2019.73
768.403	1999.38
768.454	1977.01
768.505	1969.09
768.556	1966.36
768.607	2006.58
768.658	1959.49
768.709	1983.11
768.76	1957.58
768.811	1984.23
768.862	1957.68
768.914	1918.75
768.965	1953.73
769.016	1948.72
769.067	1948.94
769.118	1958.26
769.169	1928.54
769.22	1969.2
769.271	1938.46
769.322	1951.47
769.373	1973.72
769.424	1935.6
769.475	1939.04
769.526	1905.2
769.578	1905.42
769.629	1966.7
769.68	1937.3
769.731	1939.93
769.782	1889.82
769.833	1926.03
769.884	1911.36
769.935	1913.95
769.986	1887.65
770.037	1872.09
770.088	1915.24
770.139	1876.44
770.19	1894.58
770.242	1869.74
770.293	1894.95
770.344	1877.34
770.395	1860.1
770.446	1900.92
770.497	1872.56
770.548	1893.43
770.599	1901.48
770.65	1852.65
770.701	1863.87
770.752	1848.09
770.803	1852.92
770.854	1883.18
770.905	1876.78
770.956	1868.4
771.007	1851.02
771.058	1873.12
771.11	1843.6
771.161	1844.74
771.212	1825.39
771.263	1826.98
771.314	1834.08
771.365	1843.14
771.416	1828.37
771.467	1806.13
771.518	1805.81
771.569	1799.14
771.62	1804.91
771.671	1823.16
771.722	1825.97
771.773	1823.8
771.824	1809
771.875	1811.35
771.926	1814.87
771.977	1821.23
772.028	1808.43
772.079	1787.47
772.131	1781.84
772.182	1805.16
772.233	1790.22
772.284	1786.23
772.335	1774.61
772.386	1791.76
772.437	1785.48
772.488	1735.39
772.539	1773.59
772.59	1773.03
772.641	1732.59
772.692	1737.49
772.743	1731.72
772.794	1798.51
772.845	1769.45
772.896	1765.45
772.947	1769.68
772.998	1752.89
773.049	1765.64
773.1	1756.93
773.151	1753.28
773.202	1729.65
773.253	1715.71
773.304	1761.22
773.355	1733.97
773.406	1710.25
773.457	1728.76
773.508	1720.25
773.56	1728.24
773.611	1690.14
773.662	1706.45
773.713	1726.76
773.764	1712.08
773.815	1702.27
773.866	1706.63
773.917	1721.18
773.968	1703.85
774.019	1688.96
774.07	1733.92
774.121	1683.72
774.172	1705.13
774.223	1724.99
774.274	1716.04
774.325	1683.63
774.376	1698.71
774.427	1686.1
774.478	1663.32
774.529	1680.22
774.58	1656.95
774.631	1690
774.682	1679.14
774.733	1665
774.784	1673.02
774.835	1660.62
774.886	1652.1
774.937	1692.94
774.988	1664.72
775.039	1663.76
775.09	1650.05
775.141	1655.5
775.192	1638.37
775.243	1641.16
775.294	1641.56
775.345	1624.17
775.396	1633.93
775.447	1637.1
775.498	1652.29
775.549	1614.59
775.6	1602.38
775.651	1643.58
775.702	1603.77
775.753	1602.52
775.804	1608.6
775.855	1608.49
775.906	1617.29
775.957	1624.81
776.008	1633.67
776.059	1612.97
776.11	1594.16
776.161	1599.83
776.212	1604.32
776.263	1612.72
776.314	1594.62
776.365	1588.26
776.416	1586.36
776.467	1602.98
776.518	1592.13
776.569	1593.05
776.62	1582.89
776.671	1576.82
776.722	1587.35
776.773	1571.51
776.824	1561.47
776.875	1567.37
776.926	1553.72
776.977	1571.36
777.028	1577.51
777.079	1559.52
777.13	1546.87
777.181	1566.6
777.232	1565.15
777.283	1548.28
777.334	1543.23
777.385	1553.46
777.436	1568.47
777.487	1553.68
777.538	1545.14
777.589	1545.85
777.64	1537.05
777.691	1533.35
777.742	1532.19
777.793	1539.68
777.844	1524.21
777.895	1529.64
777.946	1530.51
777.997	1508.05
778.047	1494.75
778.098	1498.83
778.149	1501.56
778.2	1506.38
778.251	1517.18
778.302	1507.59
778.353	1515.46
778.404	1509.56
778.455	1498.9
778.506	1500.09
778.557	1509.96
778.608	1499.66
778.659	1484.94
778.71	1505.5
778.761	1505.07
778.812	1490.8
778.863	1507.99
778.914	1507.64
778.965	1479.32
779.016	1480.4
779.067	1480.93
779.118	1460.04
779.169	1452
779.22	1473.07
779.271	1478.66
779.322	1453.01
779.373	1446.91
779.424	1460.66
779.474	1462.2
779.525	1461.59
779.576	1464.62
779.627	1471.81
779.678	1450.85
779.729	1465.08
779.78	1480.54
779.831	1474.57
779.882	1468.07
779.933	1462.19
779.984	1457.5
780.035	1469.42
780.086	1448.46
780.137	1422.07
780.188	1421.34
780.239	1421.31
780.29	1428.24
780.341	1431.05
780.392	1428.18
780.442	1446.69
780.493	1434.07
780.544	1419.06
780.595	1423.67
780.646	1431.52
780.697	1439.19
780.748	1414.44
780.799	1411.63
780.85	1402.48
780.901	1418.69
780.952	1425.21
781.003	1423.23
781.054	1401.82
781.105	1399.63
781.156	1378.46
781.207	1398.11
781.257	1415.85
781.308	1420.22
781.359	1407.37
781.41	1402.3
781.461	1399.44
781.512	1392.84
781.563	1382.24
781.614	1381.72
781.665	1382.66
781.716	1378.5
781.767	1346.26
781.818	1368.05
781.869	1371.76
781.919	1358.21
781.97	1380.98
782.021	1365.26
782.072	1372.52
782.123	1386.48
782.174	1359.12
782.225	1352.89
782.276	1341.48
782.327	1341.03
782.378	1375.79
782.429	1368.7
782.48	1357.42
782.531	1343.3
782.581	1336.15
782.632	1338.86
782.683	1348.04
782.734	1373.14
782.785	1330.97
782.836	1328.73
782.887	1342.92
782.938	1352.9
782.989	1350.42
783.04	1346.79
783.091	1332.28
783.141	1325.85
783.192	1317.36
783.243	1325.18
783.294	1305.64
783.345	1305.7
783.396	1308.78
783.447	1313.06
783.498	1299.99
783.549	1317.95
783.6	1308.51
783.651	1289.25
783.701	1302
783.752	1301.96
783.803	1297.85
783.854	1300.13
783.905	1316.88
783.956	1310.33
784.007	1300.06
784.058	1293.42
784.1	1310
784.151	1254.04
784.202	1319.98
784.253	1301.86
784.304	1317.58
784.355	1275.96
784.406	1261.83
784.458	1285.96
784.509	1266.11
784.56	1301.27
784.611	1280.23
784.662	1291.51
784.713	1268.51
784.764	1262.66
784.815	1287.48
784.866	1270.78
784.917	1228.97
784.968	1269.68
785.019	1256.14
785.07	1263.66
785.121	1293.46
785.172	1260.55
785.223	1269.45
785.274	1274.9
785.326	1238.69
785.377	1250.52
785.428	1259.29
785.479	1240.76
785.53	1235.96
785.581	1241.75
785.632	1232
785.683	1229.32
785.734	1224.86
785.785	1236.86
785.836	1212.76
785.887	1229.8
785.938	1223.03
785.989	1223.45
786.04	1206.14
786.091	1238.79
786.142	1198.03
786.193	1198.37
786.244	1220.96
786.295	1222
786.346	1189.12
786.397	1237.97
786.448	1193.09
786.5	1218.91
786.551	1221.54
786.602	1215.66
786.653	1160.79
786.704	1185.57
786.755	1181.75
786.806	1200.11
786.857	1210.22
786.908	1177.03
786.959	1187.6
787.01	1203.72
787.061	1189.19
787.112	1198.8
787.163	1131.66
787.214	1183.75
787.265	1183.29
787.316	1175.73
787.367	1169.69
787.418	1164
787.469	1176.47
787.52	1154.61
787.571	1181.47
787.622	1165.6
787.673	1155.09
787.724	1150.21
787.775	1142.52
787.826	1165.99
787.877	1164.88
787.928	1176.15
787.979	1171.23
788.03	1157.33
788.081	1138.14
788.132	1140.13
788.183	1154.15
788.234	1155.22
788.285	1144.84
788.336	1111.73
788.387	1142.9
788.438	1156.91
788.49	1140.27
788.541	1139.13
788.591	1125.13
788.643	1139.09
788.694	1133.82
788.745	1115.98
788.796	1111.04
788.847	1115.82
788.898	1127.34
788.949	1142.47
789	1109.9
789.051	1118.78
789.102	1135.25
789.153	1132.3
789.204	1138.32
789.255	1110.15
789.306	1114.41
789.357	1122.9
789.408	1139.66
789.459	1105.21
789.51	1074.91
789.561	1103.04
789.612	1099.55
789.663	1102.34
789.714	1094.56
789.765	1097.98
789.816	1090.31
789.867	1074.84
789.918	1083.05
789.969	1089.94
790.02	1092.47
790.071	1104.94
790.122	1095.67
790.173	1087.66
790.224	1106.82
790.275	1077.85
790.326	1085.06
790.377	1079.22
790.428	1082.24
790.479	1087.19
790.53	1074.17
790.581	1074.28
790.632	1083.59
790.682	1055.34
790.734	1087.19
790.784	1048.73
790.836	1060.15
790.886	1063.41
790.937	1067.73
790.988	1053.6
791.039	1068.01
791.09	1061.56
791.141	1081
791.192	1064.17
791.243	1033.35
791.294	1077.07
791.345	1057.19
791.396	1031.86
791.447	1051.89
791.498	1064.14
791.549	1057.92
791.6	1075.76
791.651	1045.72
791.702	1041.22
791.753	1034.62
791.804	1027.39
791.855	1062.34
791.906	1023.74
791.957	1020.55
792.008	1005.35
792.059	1019.21
792.11	1016.13
792.161	1041.4
792.212	1008.54
792.263	1014.22
792.314	1010.46
792.365	1037.55
792.416	998.501
792.467	1019.07
792.518	1022.49
792.569	1013.59
792.62	1015.71
792.671	999.789
792.722	1021.72
792.773	1005.14
792.823	1022.38
792.874	987.975
792.925	1016.98
792.976	988.256
793.027	990.406
793.078	997.405
793.129	998.264
793.18	995.211
793.231	979.085
793.282	987.848
793.333	978.196
793.384	999.021
793.435	999.173
793.486	992.85
793.537	984.153
793.588	974.61
793.639	976.676
793.69	968.805
793.741	979.245
793.792	975.962
793.843	981.444
793.894	983.748
793.945	977.758
793.995	972.004
794.046	945.391
794.097	975.71
794.148	969.192
794.199	982.151
794.25	934.914
794.301	959.849
794.352	972.484
794.403	949.271
794.454	959.178
794.505	963.642
794.556	962.473
794.607	980.062
794.658	960.247
794.709	939.828
794.76	941.692
794.811	963.992
794.862	938.245
794.912	947.502
794.963	960.007
795.014	927.949
795.065	940.237
795.116	920.885
795.167	932.35
795.218	923.573
795.269	929.184
795.32	931.41
795.371	935.5
795.422	943.376
795.473	923.555
795.524	927.93
795.575	934.095
795.625	925.445
795.676	954.54
795.727	931.467
795.778	924.458
795.829	933.605
795.88	927.668
795.931	910.472
795.982	904.381
796.033	906.848
796.084	917.56
796.135	897.38
796.186	906.674
796.237	889.462
796.287	903.669
796.338	913.761
796.389	891.451
796.44	895.897
796.491	915.09
796.542	908.471
796.593	905.558
796.644	887.609
796.695	892.547
796.746	895.829
796.797	907.274
796.848	899.582
796.898	887.076
796.949	890.858
797	879.012
797.051	891.874
797.102	883.514
797.153	905.615
797.204	881.539
797.255	877.115
797.306	875.265
797.357	874.418
797.408	886.141
797.458	889.355
797.509	882.379
797.56	865.545
797.611	871.614
797.662	863.895
797.713	896.656
797.764	860.145
797.815	886.176
797.866	873.905
797.917	881.584
797.968	884.492
798.018	856.955
798.069	854.317
798.12	865.868
798.171	869.814
798.222	867.324
798.273	882.803
798.324	866.01
798.375	854.568
798.426	854.579
798.477	844.254
798.527	858.475
798.578	854.018
798.629	840.028
798.68	833.749
798.731	850.095
798.782	823.84
798.833	830.724
798.884	845.239
798.935	843.348
798.985	837.161
799.036	837.49
799.087	830.782
799.138	841.693
799.189	823.17
799.24	828.664
799.291	836.63
799.342	846.203
799.393	837.114
799.443	845.122
799.494	825.622
799.545	838.278
799.596	836.58
799.647	822.6
799.698	815.959
799.749	826.231
799.8	828.13
799.85	806.183
799.901	819.826
799.952	831.01
800.003	818.882
800.054	809.23
800.105	812.531
800.156	806.499
800.207	810.733
800.257	811.653
800.308	794.911
800.359	793.406
800.41	806.476
800.461	814.661
800.512	808.503
800.563	803.012
800.613	807.458
800.664	804.858
800.715	787.92
800.766	782.275
800.817	785.345
800.868	806.079
800.919	795.29
800.97	785.082
801.02	764.456
801.071	787.864
801.122	779.122
801.173	761.135
801.224	788.706
801.275	797.343
801.326	769.723
801.376	791.867
801.427	787.289
801.478	762.531
801.529	775.188
801.58	777.226
801.631	781.513
801.682	778.106
801.732	773.63
801.783	780.712
801.834	777.679
801.885	769.422
801.936	771.357
801.987	760.198
802.038	767.614
802.088	763.138
802.139	752.548
802.19	761.8
802.241	759.701
802.292	756.719
802.343	760.963
802.393	763.403
802.444	755.33
802.495	755.26
802.546	773.869
802.597	758.543
802.648	756.878
802.698	738.43
802.749	742.894
802.8	764.778
802.851	752.829
802.902	743.451
802.953	736.704
803.004	741.052
803.054	737.291
803.105	731.49
803.156	760.035
803.207	733.036
803.258	723.824
803.309	736.921
803.359	744.154
803.41	721.173
803.461	721.457
803.512	738.958
803.563	741.986
803.614	720.886
803.664	737.409
803.715	718.673
803.766	742.914
803.817	729.335
803.868	747.305
803.919	725.383
803.969	710.644
804.02	734.886
804.071	718.287
804.122	734.899
804.173	747.973
804.223	716.371
804.274	738.315
804.325	738.06
804.376	742.335
804.427	714.537
804.478	722.436
804.528	711.502
804.579	707.045
804.63	720.684
804.681	727.042
804.732	733.71
804.782	703.043
804.833	714.985
804.884	703.659
804.935	689.927
804.986	728.488
805.036	702.965
805.087	703.522
805.138	689.944
805.189	705.243
805.24	720.291
805.291	688.767
805.341	705.118
805.392	711.748
805.443	702.444
805.494	716.757
805.545	713.75
805.595	706.242
805.646	699.632
805.697	715.786
805.748	690.594
805.799	684
805.849	687.083
805.9	697.465
805.951	712.846
806.002	693.653
806.053	682.962
806.103	698.684
806.154	669.394
806.205	674.055
806.256	683.904
806.307	688.727
806.357	655.944
806.408	673.698
806.459	692.77
806.51	679.716
806.561	686.816
806.611	678.227
806.662	677.796
806.713	682.337
806.764	688.259
806.815	659.585
806.865	672.756
806.916	671.265
806.967	674.51
807.018	653.327
807.068	680.42
807.119	655.587
807.17	655.37
807.221	671.585
807.272	662.072
807.322	656.346
807.373	656.019
807.424	670.81
807.475	680.82
807.526	663.649
807.576	649.281
807.627	654.027
807.678	652.296
807.729	657.296
807.779	661.454
807.83	668.334
807.881	647.829
807.932	647.64
807.982	661.127
808.033	665.35
808.084	661.383
808.135	667.004
808.186	638.541
808.236	632.653
808.287	666.966
808.338	646.009
808.389	628.247
808.439	630.66
808.49	638.185
808.541	635.367
808.592	645.459
808.643	658.511
808.693	658.876
808.744	649.759
808.795	643.429
808.846	636.166
808.896	660.379
808.947	634.315
808.998	618.669
809.049	611.95
809.099	619.821
809.15	634.663
809.201	631.049
809.252	644.266
809.302	634.824
809.353	635.971
809.404	620.236
809.455	613.023
809.505	614.391
809.556	623.866
809.607	649.23
809.658	622.453
809.708	628.084
809.759	637.104
809.81	625.488
809.861	631.922
809.911	636.504
809.962	622.914
810.013	630.217
810.064	628.968
810.114	627.848
810.133	630
810.183	618
810.234	606.002
810.285	607.982
810.336	623.921
810.387	594.12
810.438	588.198
810.489	592.161
810.54	598.258
810.591	621.842
810.642	604.016
810.693	633.272
810.743	625.52
810.794	582.506
810.845	592.367
810.896	618.172
810.947	584.669
810.998	588.454
811.049	598.002
811.1	603.574
811.151	609.169
811.202	594.199
811.253	629.016
811.303	609.954
811.354	609.362
811.405	618.953
811.456	620.462
811.507	571.371
811.558	603.526
811.609	586.553
811.66	603.744
811.711	615.076
811.762	590.513
811.813	564.54
811.863	565.293
811.914	600.657
811.965	594.463
812.016	585.123
812.067	588.078
812.118	605.816
812.169	573.904
812.22	576.999
812.271	558.42
812.321	583.947
812.372	570.831
812.423	581.304
812.474	573.63
812.525	596.4
812.576	581.397
812.627	560.692
812.678	563.182
812.729	577.185
812.779	563.745
812.83	579.783
812.881	589.898
812.932	589.278
812.983	570.326
813.034	567.312
813.085	568.779
813.136	565.293
813.187	561.031
813.237	562.289
813.288	567.433
813.339	578.444
813.39	575.838
813.441	568.812
813.492	569.45
813.543	543.939
813.594	569.294
813.644	555.946
813.695	564.608
813.746	555.567
813.797	576.626
813.848	527.037
813.899	536.243
813.95	539.365
814.001	551.54
814.051	558.563
814.102	568.599
814.153	550.086
814.204	548.275
814.255	516.389
814.306	570.643
814.357	544.92
814.408	557.883
814.458	552.693
814.509	552.313
814.56	553.826
814.611	557.387
814.662	532.884
814.713	559.445
814.764	527.666
814.814	543.567
814.865	528.446
814.916	553.124
814.967	536.04
815.018	538.885
815.069	525.69
815.12	552.979
815.17	551.205
815.221	542.497
815.272	538.342
815.323	544.586
815.374	550.012
815.425	534.205
815.476	527.239
815.526	530.75
815.577	542.916
815.628	548.378
815.679	522.078
815.73	522.359
815.781	526.36
815.832	534.842
815.882	516.291
815.933	533.169
815.984	528.681
816.035	527.296
816.086	512.068
816.137	530.556
816.188	520.625
816.238	512.327
816.289	508.562
816.34	527.84
816.391	538.823
816.442	514.34
816.493	525.305
816.543	519.64
816.594	516.805
816.645	516.708
816.696	511.29
816.747	520.982
816.798	520.107
816.848	506.765
816.899	516.861
816.95	512.809
817.001	496.423
817.052	497.721
817.103	536.999
817.153	514.473
817.204	504.325
817.255	500.871
817.306	493.235
817.357	495.294
817.408	500.554
817.458	521.128
817.509	510.585
817.56	517.095
817.611	504.796
817.662	485.429
817.713	504.348
817.763	511.767
817.814	500.647
817.865	490.865
817.916	508.775
817.967	490.355
818.018	495.622
818.068	488.745
818.119	489.015
818.17	489.687
818.221	502.666
818.272	469.935
818.323	495.246
818.373	500.898
818.424	487.928
818.475	489.179
818.526	507.535
818.577	486.767
818.627	491.682
818.678	497.098
818.729	498.134
818.78	488.882
818.831	493.011
818.881	481.143
818.932	496.39
818.983	490.038
819.034	467.773
819.085	479.542
819.135	481.666
819.186	483.704
819.237	464.091
819.288	478.72
819.339	477.901
819.39	469.262
819.44	491.36
819.491	475.743
819.542	444.266
819.593	482.001
819.644	477.298
819.694	465.289
819.745	477.025
819.796	461.87
819.847	464.969
819.898	466.014
819.948	480.438
819.999	480.551
820.05	460.581
820.101	471.418
820.152	462.26
820.202	462.473
820.253	465.072
820.304	467.262
820.355	477.282
820.406	462.038
820.456	457.104
820.507	463.113
820.558	467.274
820.609	468.945
820.66	457.102
820.71	457.657
820.761	445.286
820.812	448.829
820.863	456.756
820.914	463.054
820.964	460.599
821.015	459.991
821.066	453.256
821.117	461.121
821.167	451.393
821.218	456.512
821.269	444.73
821.32	470.452
821.371	452.294
821.421	457.345
821.472	439.915
821.523	446.146
821.574	461.699
821.624	444.759
821.675	453.88
821.726	454.666
821.777	462.438
821.828	447.367
821.878	432.48
821.929	443.468
821.98	439.488
822.031	455.082
822.081	454.643
822.132	452.658
822.183	439.044
822.234	438.042
822.285	436.39
822.335	447.394
822.386	449.887
822.437	434.183
822.488	436.688
822.538	438.669
822.589	439.387
822.64	424.041
822.691	436.778
822.741	437.853
822.792	435.937
822.843	437.617
822.894	435.452
822.945	433.757
822.995	414.873
823.046	430.481
823.097	425.356
823.148	433.785
823.198	420.96
823.249	423.257
823.3	435.86
823.351	428.958
823.401	436.632
823.452	419.132
823.503	426.077
823.554	426.859
823.604	425.853
823.655	428.104
823.706	421.178
823.757	425.822
823.807	427.624
823.858	426.644
823.909	435.97
823.96	423.606
824.01	426.853
824.061	413.144
824.112	429.961
824.163	413.516
824.213	411.152
824.264	409.014
824.315	439.369
824.366	419.439
824.416	406.678
824.467	410.964
824.518	413.757
824.569	420.811
824.619	416.267
824.67	402.74
824.721	414.413
824.772	420.39
824.822	418.703
824.873	408.253
824.924	405.818
824.974	413.574
825.025	413.12
825.076	412.709
825.127	416.488
825.177	411.965
825.228	407
825.279	408.559
825.33	418.271
825.38	421.571
825.431	399.457
825.482	413.3
825.533	402.697
825.583	413.954
825.634	409.203
825.685	397.126
825.735	405.461
825.786	402.482
825.837	392.637
825.888	398.206
825.938	391.303
825.989	402.996
826.04	397.877
826.091	407.094
826.141	411.785
826.192	414.667
826.243	391.072
826.293	398.503
826.344	402.429
826.395	401.221
826.446	388.717
826.496	389.906
826.547	405.711
826.598	390.869
826.648	385.422
826.699	383.009
826.75	405.587
826.801	391.003
826.851	399.925
826.902	397.37
826.953	395.092
827.003	385.355
827.054	389.513
827.105	397.735
827.156	403.76
827.206	398.401
827.257	386.391
827.308	378.732
827.358	385.252
827.409	388.65
827.46	393.671
827.511	390.774
827.561	396.183
827.612	398.258
827.663	385.312
827.713	396.038
827.764	386.691
827.815	384.82
827.865	377.006
827.916	380.495
827.967	387.457
828.018	397.795
828.068	388.889
828.119	373.026
828.17	375.222
828.22	379.807
828.271	380.554
828.322	369.953
828.372	374.01
828.423	376.385
828.474	379.779
828.525	366.498
828.575	376.924
828.626	374.975
828.677	370.41
828.727	381.528
828.778	378.353
828.829	367.049
828.879	369.333
828.93	374.191
828.981	374.123
829.031	367.864
829.082	364.236
829.133	369.855
829.183	376.614
829.234	368.051
829.285	374.244
829.336	382.525
829.386	380.123
829.437	366.901
829.488	370.809
829.538	370.515
829.589	368.835
829.64	363.55
829.69	365.076
829.741	368.11
829.792	367.595
829.842	368.628
829.893	359.503
829.944	361.192
829.994	362.918
830.045	367.43
830.096	370.966
830.146	363.047
830.197	357.08
830.248	358.462
830.298	355.881
830.349	348.178
830.4	368.591
830.45	377.96
830.501	371.109
830.552	364.739
830.602	356.755
830.653	352.121
830.704	342.906
830.754	360.144
830.805	366.037
830.856	346.495
830.906	348.192
830.957	357.927
831.008	352.757
831.058	350.781
831.109	355.567
831.16	364.66
831.21	368.283
831.261	360.214
831.312	366.309
831.362	362.63
831.413	350.732
831.464	343.787
831.514	340.889
831.565	347.166
831.616	352.809
831.666	357.565
831.717	340.898
831.767	341.828
831.818	348.758
831.869	344.363
831.919	340.706
831.97	346.646
832.021	345.351
832.071	340.653
832.122	351.024
832.173	353.31
832.223	350.973
832.274	349.379
832.325	329.957
832.375	344.83
832.426	354.68
832.477	353.916
832.527	340.084
832.578	329.818
832.628	336.721
832.679	337.738
832.73	344.267
832.78	333.375
832.831	345.955
832.882	348.971
832.932	348.551
832.983	350.901
833.034	344.537
833.084	330.066
833.135	338.371
833.185	339.874
833.236	334.679
833.287	337.337
833.337	334.916
833.388	339.884
833.439	339.2
833.489	331.689
833.54	330.156
833.59	329.821
833.641	338.363
833.692	343.363
833.742	341.53
833.793	349.868
833.844	340.055
833.894	334.245
833.945	328.849
833.995	330.736
834.046	329.762
834.097	329.987
834.147	345.813
834.198	331.727
834.249	324.609
834.299	325.444
834.35	337.123
834.4	332.355
834.451	325.216
834.502	324.131
834.552	329.071
834.603	336.531
834.653	348.635
834.704	336.628
834.755	332.121
834.805	332.31
834.856	319.452
834.906	323.073
834.957	331.508
835.008	325.54
835.058	333.395
835.109	329.718
835.16	333.924
835.21	329.998
835.261	328.266
835.311	344.062
835.362	329.167
835.413	339.035
835.463	318.589
835.514	310.989
835.564	323.588
835.615	330.267
835.666	316.95
835.716	316.849
835.767	316.16
835.817	316.974
835.868	336.959
835.919	318.65
835.969	314.854
836.02	317.162
836.07	316.085
836.121	326.415
836.161	336
836.212	332
836.263	331.992
836.314	296.087
836.365	331.898
836.415	292.21
836.466	320.139
836.517	318.041
836.568	325.795
836.618	315.835
836.669	314.074
836.72	304.275
836.771	296.222
836.821	327.71
836.872	298.489
836.923	307.93
836.974	315.692
837.024	319.956
837.075	311.819
837.126	307.581
837.177	311.067
837.227	323.122
837.278	303.957
837.329	328.693
837.38	311.451
837.43	313.356
837.481	292.456
837.532	323.279
837.583	310.26
837.633	302.834
837.684	289.173
837.735	305.657
837.786	296.827
837.836	311.851
837.887	294.984
837.938	311.485
837.989	303.668
838.039	311.633
838.09	308.657
838.141	311.004
838.192	311.289
838.242	303.956
838.293	308.586
838.344	305.985
838.395	295.627
838.445	311.547
838.496	301.53
838.547	298.729
838.598	307.62
838.648	312.241
838.699	303.907
838.75	307.334
838.801	282.184
838.851	293.072
838.902	301.179
838.953	298.565
839.003	305.594
839.054	295.566
839.105	299.851
839.156	308.353
839.206	300.143
839.257	283.569
839.308	284.497
839.359	308.433
839.409	301.812
839.46	298.332
839.511	289.585
839.562	301.098
839.612	303.811
839.663	305.628
839.714	302.236
839.764	301.374
839.815	293.173
839.866	291.235
839.917	295.73
839.967	296.053
840.018	283.12
840.069	296.572
840.119	282.781
840.17	288
840.221	292.709
840.272	288.694
840.322	288.242
840.373	294.319
840.424	285.175
840.474	292.252
840.525	284.692
840.576	295.969
840.627	284.788
840.677	294.891
840.728	281.334
840.779	291.349
840.829	287.192
840.88	268.162
840.931	288.687
840.982	282.528
841.032	294.591
841.083	265.646
841.134	281.891
841.184	277.24
841.235	287.229
841.286	283.649
841.337	279.3
841.387	290.022
841.438	287.075
841.489	280.807
841.539	292.015
841.59	291.587
841.641	291.437
841.691	264.742
841.742	280.023
841.793	282.429
841.844	293.843
841.894	287.12
841.945	278.203
841.996	273.786
842.046	270.882
842.097	281.934
842.148	285.078
842.198	273.924
842.249	282.723
842.3	281.271
842.351	285.684
842.401	274.677
842.452	274.085
842.503	273.161
842.553	275.426
842.604	283.918
842.655	278.266
842.705	286.106
842.756	268.298
842.807	267.489
842.857	276.892
842.908	274.455
842.959	275.098
843.009	280.661
843.06	271.515
843.111	268.265
843.161	275.787
843.212	261.165
843.263	264.893
843.314	269.567
843.364	279.541
843.415	286.652
843.466	279.08
843.516	276.195
843.567	265.239
843.618	276.641
843.668	263.62
843.719	269.423
843.77	273.675
843.82	269.187
843.871	261.083
843.922	258.861
843.972	271.728
844.023	257.585
844.074	266.529
844.124	252.416
844.175	265.065
844.226	269.19
844.276	268.921
844.327	259.586
844.378	276.49
844.428	257.039
844.479	268.538
844.53	256.23
844.58	274.252
844.631	273.098
844.682	239.137
844.732	269.597
844.783	280.28
844.834	274.927
844.884	256.233
844.935	265.774
844.986	259.132
845.036	259.036
845.087	257.951
845.138	268.657
845.188	251.648
845.239	266.992
845.29	260.22
845.34	257.11
845.391	265.689
845.442	266.372
845.492	256.031
845.543	271.025
845.594	268.108
845.644	260.642
845.695	247.11
845.745	265.263
845.796	262.59
845.847	238.926
845.897	259.326
845.948	259.872
845.999	258.643
846.049	249.728
846.1	260.202
846.151	246.87
846.201	253.316
846.252	253.175
846.303	253.971
846.353	244.891
846.404	239.958
846.455	245.763
846.505	236.323
846.556	269.984
846.606	253.696
846.657	248.972
846.708	249.805
846.758	260.221
846.809	242.772
846.86	255.783
846.91	250.102
846.961	250.844
847.012	249.668
847.062	251.136
847.113	248.083
847.163	257.31
847.214	254.227
847.265	256.475
847.315	252.467
847.366	254.414
847.417	245.979
847.467	251.458
847.518	245.298
847.568	250.873
847.619	243.696
847.67	250.433
847.72	247.621
847.771	252.89
847.822	251.854
847.872	238.382
847.923	241.21
847.973	250.537
848.024	242.609
848.075	241.353
848.125	249.102
848.176	239.535
848.227	235.034
848.277	240.293
848.328	239.335
848.378	248.186
848.429	257.715
848.48	244.243
848.53	243.265
848.581	248.591
848.631	239.665
848.682	242.167
848.733	237.602
848.783	241.775
848.834	231.222
848.885	247.172
848.935	243.583
848.986	249.67
849.036	234.62
849.087	235.866
849.138	230.28
849.188	237.705
849.239	234.177
849.289	223.475
849.34	248.686
849.391	235.27
849.441	244.702
849.492	229.796
849.542	229.764
849.593	228.208
849.644	234.32
849.694	241.971
849.745	242.796
849.795	239.605
849.846	228.802
849.897	233.842
849.947	240.786
849.998	237.696
850.048	245.136
850.099	226.149
850.15	228.442
850.2	234.763
850.251	227.884
850.301	223.519
850.352	234.881
850.403	231.515
850.453	228.916
850.504	233.788
850.554	236.517
850.605	235.21
850.656	233.15
850.706	228.318
850.757	240.57
850.807	229.496
850.858	238.207
850.908	224.472
850.959	226.348
851.01	226.796
851.06	239.117
851.111	224.875
851.161	233.62
851.212	233.378
851.263	226.43
851.313	224.416
851.364	230.49
851.414	234.082
851.465	233.882
851.515	225.446
851.566	218.021
851.617	229.909
851.667	226.767
851.718	224.37
851.768	224.904
851.819	228.17
851.869	218.475
851.92	222.277
851.971	220.928
852.021	219.417
852.072	230.305
852.122	227.696
852.173	227.099
852.223	232.394
852.274	219.869
852.325	214.622
852.375	227.527
852.426	217.534
852.476	220.285
852.527	219.291
852.577	226.115
852.628	227.466
852.678	220.143
852.729	221.878
852.78	220.678
852.83	219.726
852.881	224.233
852.931	218.112
852.982	219.771
853.032	222.192
853.083	220.453
853.133	229.103
853.184	214.239
853.235	214.687
853.285	212.634
853.336	222.21
853.386	217.186
853.437	221.348
853.487	218.772
853.538	215.902
853.588	223.235
853.639	219.231
853.69	220.684
853.74	208.846
853.791	223.445
853.841	222.257
853.892	221.668
853.942	212.083
853.993	218.121
854.043	215.357
854.094	214.991
854.144	220.471
854.195	210.767
854.246	215.192
854.296	224.642
854.347	226.343
854.397	208.995
854.448	208.486
854.498	205.164
854.549	224.164
854.599	221.229
854.65	217.824
854.7	215.23
854.751	212.584
854.801	224.575
854.852	226.889
854.902	215.117
854.953	218.203
855.004	208.971
855.054	207.904
855.105	209.866
855.155	202.151
855.206	213.316
855.256	213.672
855.307	209.127
855.357	210.427
855.408	211.144
855.458	221.72
855.509	220.28
855.559	218.398
855.61	223.981
855.66	227.266
855.711	216.982
855.761	218.366
855.812	220.838
855.862	215.057
855.913	213.951
855.964	219.745
856.014	214.113
856.065	222.222
856.115	214.334
856.166	219.337
856.216	222.415
856.267	218.285
856.317	209.186
856.368	207.942
856.418	214.846
856.469	222.705
856.519	215.635
856.57	215.114
856.62	214.957
856.671	207.368
856.721	205.154
856.772	206.336
856.822	210.521
856.873	209.467
856.923	209.019
856.974	216.757
857.024	210.261
857.075	202.535
857.125	208.658
857.176	207.642
857.226	207.219
857.277	209.536
857.327	206.77
857.378	204.523
857.428	198.914
857.479	201.341
857.529	210.791
857.58	202.7
857.63	202.072
857.681	204.12
857.731	201.817
857.782	200.861
857.832	195.485
857.883	200.007
857.933	207.436
857.984	207.677
858.034	202.339
858.085	195.757
858.135	186.744
858.186	199.513
858.236	201.322
858.287	193.847
858.337	199.049
858.388	207.583
858.438	200.161
858.489	202.638
858.539	198.846
858.589	194.729
858.64	200.102
858.69	188.594
858.741	194.594
858.791	199
858.842	191.986
858.892	191.784
858.943	192.159
858.993	191.016
859.044	192.513
859.094	195.806
859.145	196.422
859.195	195.392
859.246	186.72
859.296	190.22
859.347	187.955
859.397	193.497
859.448	188.767
859.498	188.433
859.549	188.71
859.599	192.561
859.649	185.612
859.7	184.737
859.75	192.206
859.801	192.106
859.851	183.419
859.902	189.149
859.952	192.082
860.003	193.92
860.053	190.102
860.104	192.173
860.154	192.312
860.205	190.587
860.255	187.601
860.305	190.215
860.356	196.529
860.406	188.443
860.457	183.119
860.507	187.208
860.558	187.12
860.608	189.879
860.659	186.779
860.709	198.867
860.76	189.107
860.81	190.052
860.861	183.727
860.911	181.609
860.961	184.808
861.012	182.189
861.062	190.075
861.113	186.661
861.163	184.509
861.214	184.922
861.264	178.952
861.315	176.151
861.365	191.943
861.415	187.725
861.466	176.95
861.516	183.041
861.567	187.462
861.617	177.073
861.668	184.614
861.718	179.171
861.769	175.225
861.819	173.49
861.869	178.85
861.92	182.866
861.97	188.045
862.021	193.523
862.071	182.39
862.112	176.012
862.162	185.987
862.213	191.969
862.263	179.983
862.314	178.018
862.365	180.091
862.415	168.216
862.466	174.063
862.516	174.074
862.567	177.856
862.618	185.973
862.668	181.979
862.719	175.971
862.77	168.011
862.82	175.672
862.871	174.009
862.921	175.787
862.972	166.144
863.023	171.849
863.073	167.772
863.124	185.457
863.174	179.518
863.225	171.925
863.276	183.621
863.326	183.901
863.377	183.246
863.427	184.868
863.478	171.821
863.529	192.876
863.579	174.028
863.63	172.012
863.68	183.319
863.731	160.967
863.782	173.414
863.832	173.233
863.883	177.816
863.933	165.29
863.984	168.164
864.034	171.894
864.085	187.297
864.136	173.748
864.186	178.617
864.237	158.762
864.287	164.414
864.338	180.527
864.389	173.38
864.439	183.005
864.49	167.019
864.54	182.774
864.591	191.298
864.642	171.602
864.692	164.798
864.743	169.913
864.793	176.941
864.844	174.092
864.894	174.33
864.945	180.714
864.996	175.286
865.046	172.137
865.097	171.23
865.147	183.693
865.198	179.281
865.248	165.108
865.299	168.048
865.35	173.081
865.4	178.155
865.451	169.507
865.501	160.917
865.552	170.597
865.603	167.258
865.653	165.374
865.704	147.663
865.754	164.858
865.805	170.567
865.855	161.515
865.906	171.545
865.956	187.895
866.007	158.309
866.058	173.186
866.108	178.657
866.159	169.99
866.209	154.948
866.26	163.763
866.31	178.395
866.361	169.602
866.412	171
866.462	175.848
866.513	147.046
866.563	168.197
866.614	167.435
866.664	160.079
866.715	166.357
866.766	171.603
866.816	168.81
866.867	152.684
866.917	179.205
866.968	156.945
867.018	154.362
867.069	165.326
867.119	169.285
867.17	162.417
867.22	160.228
867.271	171.469
867.322	168.139
867.372	164.382
867.423	156.622
867.473	153.484
867.524	155.104
867.574	168.018
867.625	171.84
867.675	162.124
867.726	154.016
867.776	158.99
867.827	160.896
867.878	164.89
867.928	161.749
867.979	161.729
868.029	165.452
868.08	160.004
868.13	156.177
868.181	163.773
868.231	157.608
868.282	158.09
868.332	158.204
868.383	168.758
868.433	165.521
868.484	158.601
868.535	158.655
868.585	165.486
868.636	163.98
868.686	159.996
868.737	160.909
868.787	161.201
868.838	159.123
868.888	146.959
868.939	161.803
868.989	171.993
869.04	153.118
869.09	155.733
869.141	148.48
869.191	149.714
869.242	157.755
869.292	164.087
869.343	164.97
869.394	148.138
869.444	153.088
869.495	144.799
869.545	150.337
869.596	162.547
869.646	150.695
869.697	152.913
869.747	165.857
869.798	140.695
869.848	151.897
869.899	157.496
869.949	164.725
870	149.39
870.05	145.633
870.101	144.544
870.151	157.353
870.202	149.26
870.252	153.03
870.303	159.721
870.353	163.267
870.404	152.915
870.454	146.542
870.505	153.718
870.555	161.604
870.606	146.913
870.656	153.747
870.707	142.494
870.757	153.32
870.808	144.314
870.858	152.936
870.909	150.597
870.959	157.072
871.01	145.008
871.06	151.701
871.111	148.983
871.161	148.333
871.212	149.27
871.262	152.02
871.313	144.646
871.363	159.969
871.414	131.335
871.464	144.116
871.515	151.798
871.565	147.462
871.616	153.498
871.666	148.042
871.717	138.834
871.767	147.191
871.818	137.499
871.868	150.648
871.919	148.44
871.969	142.233
872.02	142.727
872.07	156.46
872.121	152.802
872.171	155.899
872.222	149.264
872.272	154.304
872.323	140.054
872.373	141.206
872.424	152.419
872.474	155.533
872.525	150.754
872.575	144.769
872.626	144.394
872.676	151.993
872.727	143.911
872.777	159.491
872.828	141.47
872.878	142.182
872.929	132.247
872.979	143.62
873.03	146.165
873.08	146.386
873.13	144
873.181	143.171
873.231	150.095
873.282	139.511
873.332	161.201
873.383	138.636
873.433	157.004
873.484	144.788
873.534	137.484
873.585	142.284
873.635	161.08
873.686	143.221
873.736	148.016
873.787	144.573
873.837	143.599
873.888	149.579
873.938	150.489
873.988	135.178
874.039	148.896
874.089	135.356
874.14	143.061
874.19	138.091
874.241	141.372
874.291	136.308
874.342	141.18
874.392	133.13
874.443	144.599
874.493	132.836
874.544	144.403
874.594	144.47
874.644	140.611
874.695	141.806
874.745	150.382
874.796	143.892
874.846	143.245
874.897	140.733
874.947	131.301
874.998	136.725
875.048	143.548
875.099	145.992
875.149	139.609
875.199	137.266
875.25	138.354
875.3	131.834
875.351	138.28
875.401	139.097
875.452	138.668
875.502	137.221
875.553	143.317
875.603	134.951
875.653	142.342
875.704	135.622
875.754	138.156
875.805	140.562
875.855	141.674
875.906	138.672
875.956	135.884
876.006	137.919
876.057	131.01
876.107	136.828
876.158	134.884
876.208	137.283
876.259	138.407
876.309	140.511
876.36	127.87
876.41	130.784
876.46	140.723
876.511	135.857
876.561	143.81
876.612	128.939
876.662	126.262
876.713	130.472
876.763	130.828
876.813	140.822
876.864	140.026
876.914	144.776
876.965	133.84
877.015	138.865
877.065	134.355
877.116	134.159
877.166	142.977
877.217	138.028
877.267	124.634
877.318	130.243
877.368	129.641
877.418	143.588
877.469	145.028
877.519	141.905
877.57	130.303
877.62	130.114
877.671	131.973
877.721	137.214
877.771	136.376
877.822	135.597
877.872	129.803
877.923	132.071
877.973	127.517
878.023	132.566
878.074	133.812
878.124	130.979
878.175	128.271
878.225	128.703
878.276	125.805
878.326	126.917
878.376	131.401
878.427	130.885
878.477	135.46
878.528	137.848
878.578	136.663
878.628	135.43
878.679	130.925
878.729	133.679
878.78	125.809
878.83	126.708
878.88	129.096
878.931	134
878.981	130.917
879.031	125.849
879.082	122.532
879.132	128.06
879.183	122.794
879.233	121.008
879.284	126.483
879.334	126.502
879.384	128.772
879.435	134.696
879.485	131.067
879.535	131.584
879.586	130.434
879.636	130.581
879.687	128
879.737	130.353
879.787	126.736
879.838	130.923
879.888	131.834
879.939	125.305
879.989	129.984
880.039	130.983
880.09	129.967
880.14	120.717
880.19	127.643
880.241	136.143
880.291	137.825
880.342	131.05
880.392	126.593
880.442	125.363
880.493	121.011
880.543	125.184
880.594	127.361
880.644	126.269
880.694	128.988
880.745	134.479
880.795	132.98
880.845	126.792
880.896	122.998
880.946	121.337
880.996	123.728
881.047	126.237
881.097	131.088
881.148	120.247
881.198	125.712
881.248	130.897
881.299	135.452
881.349	125.064
881.399	122.25
881.45	124.375
881.5	123.551
881.551	121.789
881.601	120.977
881.651	121.71
881.702	123.82
881.752	120.869
881.802	115.235
881.853	123.288
881.903	128.441
881.953	126.171
882.004	123.46
882.054	118.611
882.104	115.222
882.155	126.235
882.205	127.226
882.256	120.276
882.306	128.684
882.356	121.924
882.407	134.132
882.457	125.965
882.507	113.864
882.558	115.586
882.608	122.927
882.658	126.576
882.709	128.76
882.759	129.571
882.809	121.116
882.86	123.412
882.91	114.649
882.96	121.938
883.011	123.019
883.061	118.54
883.111	125.518
883.162	123.897
883.212	119.414
883.262	120.347
883.313	115.741
883.363	118.404
883.413	116.038
883.464	113.324
883.514	115.093
883.565	114.31
883.615	120.464
883.665	122.643
883.716	120.322
883.766	122.524
883.816	122.485
883.867	126.353
883.917	127.583
883.967	120.806
884.017	123.65
884.068	120.472
884.118	116.894
884.168	112.755
884.219	116.096
884.269	116.627
884.319	119.788
884.37	116.373
884.42	125.612
884.47	118.364
884.521	117.62
884.571	120.019
884.621	117.981
884.672	120.969
884.722	126.016
884.772	117.308
884.823	116.315
884.873	116.706
884.923	115.949
884.974	116.736
885.024	113.967
885.074	115.028
885.125	113.902
885.175	110.901
885.225	117.783
885.276	116.659
885.326	119.517
885.376	114.514
885.426	116.223
885.477	116.045
885.527	111.743
885.577	106.55
885.628	119.121
885.678	116.226
885.728	119.809
885.779	110.398
885.829	117.438
885.879	108.918
885.93	111.748
885.98	110.323
886.03	109.572
886.08	109.489
886.131	113.075
886.181	108.295
886.231	124.237
886.282	112.061
886.332	108.508
886.382	110.561
886.432	111.241
886.483	106.183
886.533	120.023
886.583	112.801
886.634	115.638
886.684	115.784
886.734	112.577
886.785	119.386
886.835	112.971
886.885	100.512
886.935	120.521
886.986	109.022
887.036	106.197
887.086	108.255
887.137	108.003
887.187	98.7175
887.237	110.142
887.287	106.322
887.338	113.268
887.388	115.475
887.438	115.892
887.489	110.289
887.539	105.811
887.589	106
887.639	112.149
887.69	115.69
887.74	125.581
887.79	100.584
887.841	94.2865
887.891	105.693
887.941	102.147
887.943	102.053
887.993	106.013
888.044	111.935
888.094	104.14
888.144	110.024
888.195	119.642
888.245	115.841
888.296	106.251
888.346	98.3942
888.397	125.185
888.447	106.067
888.498	117.585
888.548	98.7886
888.599	115.835
888.649	113.483
888.699	106.093
888.75	112.097
888.8	111.538
888.851	108.268
888.901	104.464
888.952	112.808
889.002	116.685
889.053	100.719
889.103	105.619
889.153	104.993
889.204	109.525
889.254	104.794
889.305	100.544
889.355	95.1042
889.406	103.137
889.456	112.246
889.507	108.61
889.557	106.45
889.607	112.568
889.658	109.364
889.708	96.1722
889.759	107.122
889.809	111.53
889.86	96.743
889.91	103.487
889.96	100.951
890.011	113.882
890.061	99.0699
890.112	106.071
890.162	100.549
890.213	104.38
890.263	103.589
890.313	100.805
890.364	106.495
890.414	103.53
890.465	99.5461
890.515	99.6232
890.566	106
890.616	94.3171
890.666	110.159
890.717	102.698
890.767	108.111
890.818	109.471
890.868	98.3919
890.919	96.6039
890.969	95.7355
891.019	103.796
891.07	101.473
891.12	106.916
891.171	104.058
891.221	108.893
891.271	105.135
891.322	101.472
891.372	102.581
891.423	106.328
891.473	105.353
891.523	99.394
891.574	102.142
891.624	102.591
891.675	103.697
891.725	104.193
891.776	111.207
891.826	94.7481
891.876	95.2239
891.927	88.3887
891.977	99.5594
892.028	92.4793
892.078	110.553
892.128	93.8319
892.179	101.483
892.229	98.9935
892.28	105.086
892.33	98.9922
892.38	105.41
892.431	100.91
892.481	107.413
892.532	94.0477
892.582	97.0408
892.632	100.155
892.683	101.137
892.733	90.6538
892.784	93.342
892.834	104.97
892.884	101.591
892.935	104.531
892.985	101.723
893.036	99.8721
893.086	102.624
893.136	94.1057
893.187	96.554
893.237	92.8294
893.288	97.2295
893.338	92.2422
893.388	93.0548
893.439	101.015
893.489	91.5388
893.539	98.1866
893.59	96.5362
893.64	99.0535
893.691	104.732
893.741	92.028
893.791	99.1492
893.842	102.167
893.892	100.915
893.943	96.9493
893.993	91.0531
894.043	96.0217
894.094	97.9855
894.144	93.9952
894.194	96.0024
894.245	95.9952
894.295	100
894.346	99.0169
894.396	87.0845
894.446	91.9275
894.497	99.9094
894.547	92.087
894.597	91.0966
894.648	97.7872
894.698	88.1812
894.749	93.0326
894.799	96.7464
894.849	93.279
894.9	97.8696
894.95	90.1377
895	90.0495
895.051	83
895.101	92.8889
895.151	96.6449
895.202	99.1232
895.252	98.0652
895.303	95.0688
895.353	96.7146
895.403	96
895.454	95.2355
895.504	92.8358
895.554	93.3386
895.605	87.087
895.655	95.8188
895.706	90.3768
895.756	87.6131
895.806	93.1002
895.857	93.8961
895.907	94.7872
895.957	94.2198
896.008	92.1135
896.058	86.0447
896.108	90.4456
896.159	87.8549
896.209	85.2512
896.259	97.5785
896.31	88.659
896.36	88.4058
896.41	92.7243
896.461	87.4275
896.511	79.2923
896.561	88.4051
896.612	92.9348
896.662	90.7739
896.713	89.9493
896.763	97.3567
896.813	93.5072
896.864	86.8404
896.914	94.314
896.964	93.8259
897.015	94
897.065	96.8198
897.115	86.1087
897.166	91.4377
897.216	89.1898
897.266	94.6135
897.317	86.5913
897.367	81.2005
897.417	87.9843
897.468	82.6203
897.518	92
897.568	89.4256
897.619	90.9178
897.669	97
897.719	91.2225
897.77	79.6784
897.82	87.6884
897.87	96.133
897.921	95.2358
897.971	89.1956
898.021	93.5417
898.072	86.9819
898.122	90.2491
898.172	88.2524
898.223	92.7183
898.273	90.8114
898.323	85.5248
898.374	90.9408
898.424	82.5387
898.474	89.9117
898.524	87.5514
898.575	84
898.625	88.873
898.675	91.7158
898.726	92.5756
898.776	88
898.826	89.8198
898.877	87.5973
898.927	89.3011
898.977	92.3906
899.028	89.1584
899.078	92.757
899.128	78.5151
899.179	84.0919
899.229	86.7183
899.279	89.6481
899.33	87.6723
899.38	91.3313
899.43	81.3337
899.48	81.6626
899.531	80.7279
899.581	82.9323
899.631	78
899.682	84
899.732	78.7086
899.782	87.3579
899.833	85.5538
899.883	85.0919
899.933	86.6324
899.984	83.1114
