#Acq. time (s)=	3
#Accumulations=	2
#Range (nm)=	520...900
#Windows=	16
#Auto scanning=	On
#Autofocus=	Off
#AutoExposure=	Off
#Spike filter=	Multiple accum.
#Delay time (s)=	0
#Binning=	1
#Readout mode=	Signal
#DeNoise=	Off
#ICS correction=	Off
#Dark correction=	Off
#Inst. Process=	Off
#Detector temperature (°C)=	-59.98
#Instrument=	LabRAM HR Evol
#Detector=	Syncerity OE
#Objective=	x50_VIS
#Grating=	600 (500nm)
#ND Filter=	10%
#Laser=	514nm_Edge
#Hole=	199.981
#Range=	Auto
#StageXY=	Marzhauser
#StageZ=	Marzhauser
#X (µm)=	3093.7
#Y (µm)=	-1092.4
#Z (µm)=	-209.5
#Full time(mm:ss)=	2:39
#Project=	
#Sample=	
#Site=	
#Title=	PL_Fatia_SCD_021223
#Remark=	
#Date=	18.12.2023 18:04
#Acquired=	18.12.2023 18:04:23
520.042	44
520.094	45.086
520.147	42.0454
520.199	47.8137
520.251	42.0488
520.304	44.1537
520.356	51.6857
520.408	42.1607
520.461	39.2279
520.513	43.9418
520.565	38.9406
520.618	44.9372
520.67	47.8719
520.723	46.1304
520.775	41.9325
520.827	43.0698
520.88	47
520.932	46.8533
520.984	48.9243
521.037	43.2305
521.089	50.9209
521.141	47.9185
521.194	45.248
521.246	49.7451
521.298	42.3446
521.351	49.6419
521.403	44.3632
521.455	40.1863
521.508	44.5285
521.56	51.4203
521.612	42.8801
521.665	48.4942
521.717	48.3073
521.769	47.6857
521.822	47
521.874	43.4331
521.926	44
521.979	51.3295
522.031	45.5646
522.083	45.6543
522.136	46.2372
522.188	46.2398
522.24	44
522.293	48.2596
522.345	49.5029
522.397	43
522.45	45.3877
522.502	42.8685
522.554	45.4016
522.607	41.3248
522.659	46.8626
522.711	47.2794
522.764	42.4226
522.816	45.8545
522.868	43.6007
522.921	39.9732
522.973	45.298
523.025	44.1513
523.078	43
523.13	45.3807
523.182	49.1572
523.234	45
523.287	41.9639
523.339	43.1851
523.391	41.6612
523.444	45.4971
523.496	42.1688
523.548	45.8298
523.601	51.3108
523.653	45.5239
523.705	46
523.758	44.6438
523.81	41.0827
523.862	38.8172
523.915	44.4447
523.967	47.6251
524.019	46.5664
524.072	42.1909
524.124	43
524.176	42.3888
524.229	45.0163
524.281	39.3981
524.333	49
524.385	42
524.438	43.7951
524.49	39.6217
524.542	41.8382
524.595	41.9452
524.647	45.7881
524.699	41
524.752	39.2165
524.804	40.6566
524.856	42.7797
524.909	42.3329
524.961	41.7753
525.013	41.454
525.066	50.0862
525.118	43.461
525.17	43.7672
525.222	45
525.275	48.4726
525.327	42
525.379	40.2762
525.432	45.4866
525.484	47.7544
525.536	37
525.589	42.4988
525.641	41.5029
525.693	40.7462
525.745	45.2343
525.798	44
525.85	43.035
525.902	43.6962
525.955	39.7928
526.007	44.2028
526.059	41.8033
526.112	41
526.164	40.2716
526.216	38.4529
526.268	44.5524
526.321	40
526.373	38.1189
526.425	38.5914
526.478	45.1478
526.53	44.7133
526.582	39.3097
526.635	43.549
526.687	39.1688
526.739	46.6504
526.791	39.3749
526.844	41.5082
526.896	42.901
526.948	37.303
527.001	43.085
527.053	39.0804
527.105	42.9255
527.157	42.6224
527.21	37.2526
527.262	38.4266
527.314	41.5891
527.367	40.7226
527.419	37.9615
527.471	44.0582
527.523	43.3252
527.576	45.3457
527.628	38.9685
527.68	37.6682
527.733	40.662
527.785	42.6643
527.837	42.3504
527.889	38.2984
527.942	39.0245
527.994	38
528.046	47.2692
528.099	41
528.151	47.9476
528.203	47.4126
528.255	44.0652
528.308	42.2867
528.36	42.7179
528.412	38.6391
528.464	38.9091
528.517	39.1888
528.569	44.7972
528.621	44.369
528.674	38.2308
528.726	42
528.778	40.248
528.83	40.3788
528.883	41.1002
528.935	48.4709
528.987	44.305
529.039	39.8392
529.092	43.5571
529.144	39.1713
529.196	40.8217
529.249	41.7893
529.301	41.4103
529.353	47.6002
529.405	46.5991
529.458	40.6131
529.51	38.5937
529.562	44.4079
529.614	42.1795
529.667	41.8252
529.719	37
529.771	41
529.823	43.7427
529.876	41.683
529.928	42.3077
529.98	49.8508
530.033	41.2832
530.085	42.8555
530.137	43
530.189	43.7343
530.242	43.6923
530.294	44.7483
530.346	40.1199
530.398	43
530.451	43.1096
530.503	45.6573
530.555	40.6923
530.607	44.549
530.66	40
530.712	42
530.764	45.7098
530.816	41.683
530.869	40.1538
530.921	40.3916
530.973	41.669
531.025	44.4685
531.078	40.9417
531.13	40.4732
531.182	40.5734
531.234	42.9114
531.287	41.5991
531.339	43.965
531.391	44.549
531.443	47.4562
531.496	43.0256
531.548	42.958
531.6	38.0326
531.652	42.9883
531.705	41.007
531.757	40.9977
531.809	42.9977
531.861	46.993
531.914	40.0233
531.966	39.5076
532.018	40.472
532.07	47
532.123	43.972
532.175	44.6224
532.227	40.4009
532.279	47.9568
532.332	43.0932
532.384	41.5256
532.436	41.4161
532.488	47.9394
532.541	41.5321
532.593	46.6014
532.645	45.8555
532.697	44.6189
532.75	39.0828
532.802	38.5431
532.854	43.8182
532.906	45.4522
532.958	45.5496
533.011	51.3427
533.063	49.5548
533.115	53
533.167	47.1179
533.22	43.8788
533.272	50.2564
533.324	42.4341
533.376	42.2972
533.429	47.5682
533.481	41.4332
533.533	41.9541
533.585	43.8828
533.638	42.2297
533.69	46.5013
533.742	42.9726
533.794	46.7292
533.846	48.2425
533.899	44.8614
533.951	40.7201
534.003	48.8591
534.055	46
534.108	47.5669
534.16	47.754
534.212	48.3157
534.264	48.7681
534.316	53.5333
534.369	45.9108
534.421	48.7506
534.473	47.5859
534.525	49.9928
534.578	46.1249
534.63	53.97
534.682	49.1785
534.734	49.4518
534.786	46.8943
534.839	52.0165
534.891	52.4165
534.943	48.1379
534.995	48.9183
535.047	58.1319
535.1	53.4179
535.152	52.4553
535.204	49.3048
535.256	47.3192
535.309	53.6513
535.361	55.2047
535.413	53.2993
535.465	52.0297
535.517	53.5338
535.57	50.4294
535.622	49.7217
535.674	50.4462
535.726	49.2845
535.778	53.7133
535.831	47.5694
535.883	50.4724
535.935	48.8493
535.987	48.0215
536.039	48.6772
536.092	53.6524
536.144	50.4149
536.196	48.9639
536.248	51.2
536.301	56.5148
536.353	50.0376
536.405	47.4701
536.457	54.0394
536.509	49.9639
536.562	50.2294
536.614	51.4786
536.666	49.875
536.718	47.572
536.77	49.5749
536.823	47.8032
536.875	47.9941
536.927	48.1009
536.979	54.8656
537.031	47.8531
537.083	52.4891
537.136	43.966
537.188	51.1645
537.24	53.3228
537.292	46.1977
537.344	44.4497
537.397	49.9423
537.449	43.7845
537.501	51.3092
537.553	49.9021
537.605	54.3787
537.658	50.0744
537.71	46.7454
537.762	42.6276
537.814	47.6863
537.866	45.3268
537.919	45.7041
537.971	39.8903
538.023	47.3033
538.075	46.867
538.127	53.2515
538.18	46.3931
538.232	50.0879
538.284	46.2905
538.336	52.7892
538.388	50.9132
538.44	51.7134
538.493	53.3182
538.545	53.6973
538.597	45.7256
538.649	49.0277
538.701	48.6008
538.754	47.9467
538.806	52.6474
538.858	50.3006
538.91	52.2033
538.962	54.1638
539.014	43.8128
539.067	55.4873
539.119	49.4684
539.171	51.8235
539.223	45.1753
539.275	49.9912
539.327	46.4566
539.38	47.6497
539.432	45.454
539.484	44.9884
539.536	43.5403
539.588	48.4438
539.641	47.5503
539.693	51.4174
539.745	44.8828
539.797	52.0985
539.849	47.2425
539.901	50.7641
539.954	50.7142
540.006	50.5884
540.058	48.4028
540.11	52
540.162	50.2289
540.214	52.8562
540.267	46.3503
540.319	46.9428
540.371	53.7747
540.423	56.7986
540.475	47.7536
540.527	49.8279
540.58	49.4265
540.632	51.6837
540.684	47.6749
540.736	46.2407
540.788	45.8154
540.84	55.2722
540.892	56.3952
540.945	52.4132
540.997	50.1362
541.049	54.3381
541.101	48.5888
541.153	42.6696
541.205	52.3833
541.258	56.3233
541.31	46.5881
541.362	60.1696
541.414	53.6715
541.466	50.8954
541.518	52.7148
541.57	41.0759
541.623	58.3636
541.675	51.134
541.727	56.7167
541.779	48.1794
541.831	60.372
541.883	55.949
541.936	53.1492
541.988	52.9374
542.04	54.6331
542.092	52.6011
542.144	57.8675
542.196	46.7333
542.248	48.4864
542.301	53.8154
542.353	59.2862
542.405	43.6438
542.457	58.512
542.509	49.071
542.561	55.3007
542.613	50.3072
542.666	49.661
542.718	46.6405
542.77	53.2297
542.822	57.9529
542.874	57.133
542.926	54.008
542.978	54.2798
543.031	51.1239
543.083	50.544
543.135	48.8245
543.187	53.3986
543.239	51.7681
543.291	58.1586
543.343	55.5319
543.396	59.4171
543.448	56.8241
543.5	51.6666
543.552	56.8862
543.604	55.9827
543.656	43.5296
543.708	58.2589
543.76	55.2649
543.813	47.699
543.865	52.1761
543.917	54.1215
543.969	45.0771
544.021	53.5168
544.073	53.6047
544.125	53.6125
544.177	51.3628
544.23	56.7901
544.282	54.9701
544.334	53.2877
544.386	57.9139
544.438	49.5345
544.49	53.9085
544.542	59.3996
544.594	49.062
544.647	53.9981
544.699	55.9908
544.751	57.6887
544.803	56.1712
544.855	58.1018
544.907	57.865
544.959	60.7067
545.011	51.9184
545.064	60.6928
545.116	65.1183
545.168	57.0347
545.22	57.342
545.272	53.511
545.324	52.2074
545.376	55.1435
545.428	58.15
545.48	54.2011
545.533	61.1142
545.585	56.9136
545.637	54.4139
545.689	53.9237
545.741	55.8791
545.793	51.2918
545.845	58.8145
545.897	58.4045
545.949	64.7333
546.002	59.3851
546.054	62.9575
546.106	65.6039
546.158	59.4504
546.21	54.7444
546.262	57.3567
546.314	64.5364
546.366	66.0254
546.418	57.7203
546.471	57.6898
546.523	61.3266
546.575	53.8346
546.627	58.5887
546.679	63.2464
546.689	63.9722
546.741	65.9149
546.793	73.8245
546.845	67.915
546.898	61.9536
546.95	63.9359
547.002	65.8176
547.054	59.8584
547.106	59.883
547.159	71.6595
547.211	65.7658
547.263	59.8097
547.315	63.7977
547.368	69.8425
547.42	67.7717
547.472	56.072
547.524	71.6043
547.577	67.7784
547.629	77.386
547.681	56.1488
547.733	63.6183
547.785	64.024
547.838	73.3918
547.89	62.0585
547.942	73.4964
547.994	63.9837
548.047	69.752
548.099	67.8698
548.151	59.8731
548.203	63.9668
548.255	69.4575
548.308	67.5633
548.36	76.7906
548.412	77.2405
548.464	74.1537
548.517	59.1848
548.569	73.5147
548.621	68.3113
548.673	60.6148
548.725	71.702
548.778	69.5264
548.83	71.3403
548.882	68.07
548.934	64.4009
548.987	67.8152
549.039	82.3749
549.091	71.764
549.143	64.5593
549.195	73.3518
549.248	71.5626
549.3	75.2246
549.352	70.3169
549.404	64.2701
549.456	78.3231
549.509	78.5169
549.561	68.3357
549.613	72.2934
549.665	68.4708
549.718	75.3483
549.77	82.756
549.822	74.9699
549.874	82.8005
549.926	76.0928
549.979	81.3952
550.031	78.4332
550.083	76.0697
550.135	75.4689
550.187	75.9056
550.24	76.0071
550.292	81.7179
550.344	73.3375
550.396	80.7746
550.448	82.4892
550.501	83.0101
550.553	80.8905
550.605	78.1051
550.657	79.9856
550.709	87.4926
550.762	79.5811
550.814	83.4318
550.866	86.4443
550.918	88.0856
550.97	81.6005
551.023	88.5261
551.075	88.9786
551.127	89.0722
551.179	84.4544
551.231	91.5094
551.284	93.7512
551.336	92.575
551.388	89.4956
551.44	107.339
551.492	109.752
551.545	102.244
551.597	105.453
551.649	111.318
551.701	110.439
551.753	117.45
551.806	127.481
551.858	121.717
551.91	124.026
551.962	132.229
552.014	140.804
552.067	152.184
552.119	166.207
552.171	185.433
552.223	205.135
552.275	235.697
552.327	307.302
552.38	445.157
552.432	922.342
552.484	1881.26
552.536	3504.83
552.588	5898.69
552.641	9655.79
552.693	11974.1
552.745	8443.05
552.797	4289.92
552.849	1695.66
552.901	741.857
552.954	413.963
553.006	296.015
553.058	231.406
553.11	192.631
553.162	175.429
553.215	164.668
553.267	148.333
553.319	140.954
553.371	137.249
553.423	129.924
553.475	118.332
553.528	123.322
553.58	119.034
553.632	114.19
553.684	113.125
553.736	110.477
553.788	108.336
553.841	105.284
553.893	105.771
553.945	111.552
553.997	116.705
554.049	105.257
554.102	102.512
554.154	100.885
554.206	116.245
554.258	101.896
554.31	100.31
554.362	95.894
554.414	97.6667
554.467	95.8814
554.519	107.712
554.571	106.399
554.623	111.543
554.675	95.728
554.727	96.6128
554.78	100.669
554.832	101.42
554.884	94.1911
554.936	94.4572
554.988	109.527
555.04	102.915
555.093	96.8295
555.145	104.411
555.197	99.7396
555.249	97.5547
555.301	104.722
555.353	110.684
555.406	110.143
555.458	106.196
555.51	105.602
555.562	95.6625
555.614	107.284
555.666	111.22
555.719	103.394
555.771	110.305
555.823	107.532
555.875	110.838
555.927	100.947
555.979	105.607
556.031	112.636
556.084	113.286
556.136	107.937
556.188	108.843
556.24	112.1
556.292	112.063
556.344	113.329
556.396	112.525
556.449	116.294
556.501	115.019
556.553	107.374
556.605	108.798
556.657	121.92
556.709	114.906
556.762	117.935
556.814	119.208
556.866	122.601
556.918	120.461
556.97	116.099
557.022	124.591
557.074	117.464
557.127	115.399
557.179	122.087
557.231	113.464
557.283	126.269
557.335	121.697
557.387	122.773
557.439	122.111
557.492	131.401
557.544	124.843
557.596	123.276
557.648	127.109
557.7	124.274
557.752	123.86
557.804	130.079
557.856	120.205
557.909	126.419
557.961	118.441
558.013	125.71
558.065	122.322
558.117	129.416
558.169	130.261
558.221	128.037
558.273	132.596
558.326	131.547
558.378	112.467
558.43	118.69
558.482	133.786
558.534	133.254
558.586	128.388
558.638	131.47
558.691	116.943
558.743	120.52
558.795	127.987
558.847	132.494
558.899	122.373
558.951	118.163
559.003	124.981
559.055	136.313
559.108	129.234
559.16	135.998
559.212	119.673
559.264	124.067
559.316	128.055
559.368	130.045
559.42	132.165
559.472	130.55
559.525	138.559
559.577	140.339
559.629	133.072
559.681	131.158
559.733	138.159
559.785	132.415
559.837	132.048
559.889	134.131
559.941	134.93
559.994	139.014
560.046	127.865
560.098	136
560.15	135.841
560.202	145.152
560.254	136.776
560.306	128.596
560.358	135.934
560.41	136.918
560.463	127.113
560.515	139.648
560.567	142.37
560.619	138.183
560.671	150.965
560.723	140.476
560.775	140.483
560.827	138.856
560.879	147.148
560.932	151.041
560.984	148.001
561.036	142.045
561.088	143.088
561.14	139.295
561.192	149.268
561.244	149.044
561.296	152.14
561.348	146.292
561.4	148.433
561.453	155.329
561.505	152.323
561.557	156.092
561.609	153.151
561.661	145.757
561.713	151.197
561.765	159.364
561.817	150.503
561.869	149.36
561.921	162.344
561.974	159.28
562.026	151.409
562.078	157.205
562.13	160.88
562.182	161.268
562.234	140.038
562.286	147.485
562.338	162.992
562.39	159.6
562.442	165.988
562.494	164.076
562.547	161.572
562.599	162.665
562.651	160.958
562.703	168.98
562.755	172.364
562.807	161.375
562.859	160.821
562.911	169.935
562.963	170.943
563.015	175.618
563.067	167.051
563.12	174.992
563.172	174.757
563.224	173.542
563.276	166.306
563.328	175.1
563.38	168.156
563.432	166.388
563.484	167.438
563.536	170.101
563.588	183.742
563.64	178.802
563.692	177.961
563.744	175.983
563.797	171.041
563.849	176.946
563.901	174.741
563.953	175.909
564.005	166.619
564.057	184.403
564.109	181.373
564.161	181.118
564.213	181.272
564.265	186.631
564.317	179.508
564.369	182.944
564.421	184.634
564.474	191.407
564.526	186.557
564.578	189.392
564.63	183.019
564.682	184.294
564.734	188.63
564.786	187.289
564.838	190.168
564.89	193.33
564.942	191.463
564.994	189.531
565.046	190.245
565.098	190.279
565.15	193.232
565.202	188.79
565.255	193.741
565.307	196.018
565.359	184.042
565.411	194.482
565.463	203.102
565.515	200.978
565.567	194.452
565.619	196.812
565.671	206.39
565.723	197.571
565.775	197.24
565.827	194.64
565.879	201.483
565.931	213.399
565.983	208.978
566.035	211.607
566.087	208.586
566.139	212.691
566.192	210.482
566.244	208.021
566.296	202.164
566.348	209.077
566.4	209.98
566.452	206.606
566.504	217.037
566.556	209.284
566.608	194.674
566.66	208.058
566.712	216.601
566.764	218.488
566.816	215.64
566.868	220.675
566.92	217.98
566.972	226.133
567.024	208.481
567.076	210.072
567.128	211.971
567.18	220.748
567.232	229.511
567.285	226.036
567.337	225.779
567.389	227.868
567.441	220.135
567.493	224.708
567.545	226.266
567.597	220.791
567.649	224.665
567.701	223.302
567.753	223.182
567.805	230.516
567.857	236.492
567.909	227.548
567.961	227.702
568.013	226.443
568.065	232.887
568.117	230.404
568.169	229.153
568.221	230.687
568.273	236.477
568.325	235.925
568.377	238.19
568.429	236.186
568.481	239.808
568.533	243.788
568.585	257.015
568.637	253.079
568.69	249.653
568.742	249.918
568.794	247.411
568.846	240.733
568.898	242.082
568.95	245.074
569.002	251.106
569.054	249.651
569.106	252.01
569.158	257.972
569.21	254.371
569.262	252.245
569.314	252.108
569.366	257.673
569.418	255.589
569.47	249.108
569.522	254.149
569.574	255.778
569.626	253.871
569.678	257.968
569.73	263.221
569.782	259.451
569.834	257.607
569.886	261.888
569.938	269.692
569.99	275.633
570.042	271.248
570.094	275.107
570.146	285.923
570.198	291.889
570.25	293.671
570.302	284.671
570.354	276.871
570.406	274.693
570.458	286.842
570.51	280.501
570.562	268.593
570.614	280.57
570.666	289.293
570.718	284.387
570.77	289.453
570.822	298.724
570.874	302
570.926	305.339
570.978	300.511
571.03	295.718
571.082	304.637
571.134	306.707
571.186	302.246
571.238	304.991
571.29	315.935
571.342	318.63
571.394	325.998
571.446	341.145
571.498	328.866
571.55	319.181
571.602	335.364
571.654	330.098
571.706	327.396
571.758	327.616
571.81	347.11
571.862	344.957
571.914	350.781
571.966	351.951
572.018	336.825
572.07	340.79
572.122	370.681
572.174	368.612
572.226	361.927
572.278	365.174
572.33	372.038
572.382	370.188
572.434	388.832
572.486	395.799
572.538	385.148
572.59	401.746
572.642	404.103
572.694	415.935
572.746	398.245
572.798	402.606
572.85	416.221
572.902	423.143
572.954	422.788
573.006	439.413
573.058	431.039
573.11	449.52
573.162	458.681
573.214	457.026
573.266	452.986
573.302	459.956
573.355	463.904
573.407	495.716
573.459	468.119
573.511	481.909
573.563	478.019
573.615	503.768
573.667	501.701
573.719	474.54
573.772	520
573.824	506.514
573.876	512.421
573.928	531.887
573.98	571.031
574.032	538.706
574.084	583.219
574.136	584.841
574.188	587.644
574.241	592.201
574.293	605.743
574.345	606.04
574.397	631.3
574.449	631.479
574.501	663.657
574.553	643.398
574.605	664.875
574.657	693.684
574.71	696.21
574.762	689.86
574.814	691.001
574.866	717.043
574.918	709.305
574.97	762.759
575.022	755.18
575.074	768.198
575.126	767.465
575.178	779.293
575.231	789.588
575.283	822.114
575.335	820.109
575.387	810.093
575.439	842.192
575.491	875.983
575.543	855.843
575.595	861.881
575.647	845.046
575.7	880.012
575.752	854.71
575.804	865.014
575.856	888.379
575.908	896.158
575.96	907.94
576.012	885.928
576.064	902.118
576.116	883.033
576.168	853.305
576.22	870.169
576.273	878.082
576.325	883.791
576.377	883.339
576.429	870.532
576.481	844.417
576.533	857.508
576.585	860.851
576.637	833.652
576.689	827.665
576.741	811.937
576.793	815.352
576.846	811.612
576.898	790.821
576.95	758.411
577.002	790.336
577.054	776.216
577.106	764.98
577.158	753.609
577.21	745.897
577.262	739.465
577.314	744.217
577.366	738.368
577.418	719.719
577.471	715.878
577.523	701.173
577.575	701.243
577.627	704.092
577.679	667.761
577.731	666.59
577.783	647.523
577.835	643.66
577.887	684.951
577.939	657.622
577.991	630.289
578.043	619.287
578.095	625.012
578.148	616.762
578.2	626.347
578.252	631.696
578.304	606.758
578.356	620.351
578.408	611.646
578.46	599.496
578.512	593.564
578.564	605.449
578.616	594.665
578.668	567.012
578.72	595.646
578.772	582.222
578.824	610.249
578.877	575.85
578.929	562.419
578.981	566.953
579.033	549.108
579.085	547.32
579.137	560.327
579.189	555.42
579.241	562.137
579.293	578.388
579.345	549.795
579.397	559.247
579.449	571
579.501	576.234
579.553	555.625
579.605	555.267
579.658	543.457
579.71	554.568
579.762	541.976
579.814	537.89
579.866	557.109
579.918	555.825
579.97	565.715
580.022	547.56
580.074	566.174
580.126	535.383
580.178	552.719
580.23	547.059
580.282	552.294
580.334	554.696
580.386	557.658
580.438	546.071
580.49	538.61
580.542	560.73
580.595	563.04
580.647	553.073
580.699	556.108
580.751	566.263
580.803	548.655
580.855	559.099
580.907	563.47
580.959	562.355
581.011	557.016
581.063	549.964
581.115	558.718
581.167	555.846
581.219	563.756
581.271	551.923
581.323	569.969
581.375	559.151
581.427	561.912
581.479	558.597
581.531	564.765
581.583	572.383
581.635	560.714
581.688	566.639
581.74	569.807
581.792	570.277
581.844	581.607
581.896	555.853
581.948	563.126
582	583.024
582.052	581.481
582.104	583.854
582.156	579.321
582.208	568.882
582.26	559.607
582.312	575.992
582.364	598.285
582.416	569.248
582.468	604.795
582.52	593.876
582.572	594.838
582.624	602.231
582.676	586.526
582.728	579.036
582.78	596.282
582.832	589.494
582.884	600.457
582.936	596.784
582.988	600.992
583.04	597.083
583.092	614.579
583.144	594.716
583.196	606.006
583.249	587.852
583.301	602.3
583.353	614.104
583.405	611.874
583.457	603.032
583.509	617.569
583.561	607.009
583.613	631.11
583.665	614.716
583.717	632.698
583.769	620.291
583.821	633.74
583.873	633.025
583.925	636.524
583.977	641.604
584.029	651.926
584.081	620.205
584.133	636.644
584.185	648.187
584.237	644.926
584.289	641.086
584.341	645.883
584.393	642.858
584.445	657.979
584.497	653.687
584.549	662.769
584.601	669.912
584.653	659.804
584.705	650.753
584.757	685.985
584.809	676.633
584.861	685.943
584.913	673.896
584.965	664.511
585.017	670.443
585.069	686.874
585.121	669.049
585.173	684.167
585.225	685.602
585.277	678.755
585.329	690.405
585.381	702.028
585.433	709.176
585.485	705.769
585.537	694.188
585.589	701.431
585.641	705.318
585.693	712.969
585.745	706.434
585.797	733.377
585.849	721.48
585.901	708.075
585.953	733.578
586.005	726.151
586.057	725.321
586.109	726.057
586.161	731.139
586.213	727.914
586.265	723.458
586.317	722.418
586.369	742.74
586.421	729.966
586.473	744.829
586.525	735.427
586.577	736.847
586.629	748.407
586.681	755.619
586.733	750.404
586.785	746.781
586.837	742.682
586.889	762.787
586.941	738.261
586.993	727.026
587.045	766.731
587.097	756.784
587.149	754.698
587.201	755.151
587.253	753.363
587.305	751.705
587.357	759.12
587.409	753.13
587.461	738.442
587.513	745.938
587.565	743.583
587.617	760.727
587.669	763.808
587.721	750.638
587.773	770.521
587.825	764.292
587.877	753.509
587.929	750.249
587.981	773.556
588.033	764.486
588.085	766.196
588.137	760.029
588.189	751.522
588.241	774.23
588.293	768.08
588.345	781.475
588.397	782.998
588.449	791.08
588.501	760.603
588.552	779.068
588.604	769.621
588.656	783.474
588.708	777.997
588.76	764.986
588.812	788.372
588.864	778.18
588.916	775.462
588.968	784.872
589.02	782.061
589.072	776.621
589.124	792.35
589.176	791.233
589.228	779.032
589.28	786.655
589.332	785.159
589.384	799.776
589.436	802.002
589.488	795.863
589.54	779.723
589.592	796.556
589.644	800.245
589.696	797.83
589.748	818.204
589.8	802.159
589.852	797.956
589.904	796.186
589.956	807.043
590.008	807.269
590.06	803.964
590.112	781.437
590.163	778.048
590.215	795.981
590.267	795.117
590.319	791.111
590.371	794.718
590.423	798.859
590.475	795.11
590.527	781.146
590.579	790.89
590.631	811.411
590.683	804.18
590.735	807.857
590.787	794.696
590.839	783.372
590.891	801.457
590.943	777.298
590.995	794.591
591.047	788.348
591.099	795.353
591.151	803.2
591.203	783.397
591.254	768.783
591.306	798.338
591.358	792.536
591.41	789.307
591.462	787.531
591.514	765.026
591.566	787.839
591.618	782.975
591.67	769.758
591.722	761.412
591.774	773.321
591.826	786.806
591.878	783.802
591.93	778.287
591.982	773.572
592.034	776.323
592.086	774.311
592.137	775.35
592.189	766.855
592.241	778.649
592.293	765.075
592.345	782.786
592.397	782.996
592.449	782.519
592.501	771.007
592.553	773.246
592.605	772.464
592.657	772.342
592.709	765.023
592.761	796.8
592.813	775.185
592.865	783.062
592.916	770.832
592.968	768.716
593.02	786.976
593.072	794.42
593.124	782.295
593.176	775.129
593.228	777.34
593.28	778.32
593.332	781.416
593.384	776.025
593.436	778.862
593.488	783.597
593.54	786.101
593.591	797.664
593.643	793.532
593.695	786.912
593.747	780.318
593.799	775.922
593.851	788.789
593.903	796.336
593.955	772.069
594.007	787.916
594.059	794.802
594.111	792.104
594.163	796.381
594.215	787.849
594.266	783.437
594.318	788.199
594.37	781.404
594.422	801.199
594.474	810.583
594.526	805.544
594.578	805.742
594.63	809.266
594.682	807.501
594.734	802.23
594.786	800.363
594.837	807.519
594.889	804.069
594.941	797.259
594.993	799.863
595.045	802.496
595.097	804.812
595.149	792.006
595.201	804.76
595.253	813.97
595.305	812.799
595.357	806.897
595.408	797.32
595.46	806.48
595.512	823.395
595.564	807.266
595.616	790.872
595.668	824.484
595.72	852.878
595.772	830.6
595.824	817.185
595.876	812.028
595.927	832.715
595.979	844.579
596.031	853.406
596.083	832.959
596.135	830.15
596.187	829.055
596.239	819.763
596.291	833.853
596.343	849.918
596.394	850.465
596.446	851.246
596.498	844.308
596.55	861.279
596.602	856.564
596.654	860.243
596.706	877.859
596.758	868.011
596.81	857.864
596.862	832.423
596.913	830.992
596.965	854.287
597.017	848.365
597.069	865.338
597.121	862.047
597.173	862.814
597.225	881.975
597.277	866.173
597.328	873.586
597.38	873.885
597.432	867.501
597.484	885.644
597.536	877.073
597.588	867.449
597.64	877.123
597.692	866.117
597.744	875.526
597.795	880.834
597.847	871.561
597.899	874.003
597.951	875.668
598.003	893.682
598.055	903.23
598.107	887.288
598.159	890.118
598.21	896.822
598.262	892.368
598.314	899.418
598.366	894.865
598.418	909.686
598.47	914.058
598.522	905.695
598.574	904.683
598.625	888.201
598.677	897.85
598.729	877.516
598.781	880.666
598.833	890.785
598.885	867.45
598.937	899.328
598.988	897.633
599.04	899.33
599.092	908.621
599.144	913.119
599.196	903.914
599.248	890.299
599.3	903.647
599.352	895.591
599.403	894.873
599.455	899.454
599.507	905.392
599.559	901.496
599.611	902.238
599.663	912.819
599.715	903.617
599.766	891.936
599.803	877.982
599.855	880.052
599.907	894.008
599.959	896.08
600.011	903.681
600.063	913.877
600.115	891.708
600.167	911.832
600.219	939.031
600.271	924.65
600.323	859.749
600.375	911.576
600.427	922.954
600.479	889.53
600.531	894.2
600.583	926.812
600.635	874.866
600.686	888.848
600.738	880.473
600.79	887.632
600.842	907.035
600.894	891.628
600.946	896.295
600.998	925.761
601.05	890.64
601.102	891.922
601.154	896.228
601.206	908.074
601.258	910.962
601.31	900.502
601.362	883.543
601.414	910.436
601.466	909.696
601.518	907.93
601.57	903.191
601.622	914.406
601.674	895.371
601.726	876.005
601.778	925.084
601.83	928.323
601.882	904.028
601.934	908.388
601.986	915.013
602.038	947.619
602.09	925.13
602.142	889.422
602.194	904
602.246	929.435
602.298	935.804
602.35	917.139
602.402	918.993
602.454	896.799
602.506	919.801
602.558	910.986
602.61	919.69
602.662	918.086
602.714	926.041
602.766	902.243
602.818	911.086
602.87	908.694
602.922	929.151
602.974	927.673
603.026	928.982
603.078	943.897
603.13	932.231
603.182	916.869
603.234	958.958
603.285	946.353
603.337	949.352
603.389	910.158
603.441	944.262
603.493	910.305
603.545	924.561
603.597	938.746
603.649	928.309
603.701	942.948
603.753	946.495
603.805	926.14
603.857	946.74
603.909	920.346
603.961	927.256
604.013	918.75
604.065	947.611
604.117	942.908
604.169	945.267
604.221	928.034
604.273	939.844
604.325	965.341
604.377	940.787
604.429	923.869
604.481	933.59
604.533	950.422
604.584	942.132
604.636	941.242
604.688	964.019
604.74	957.419
604.792	948.077
604.844	914.245
604.896	941.296
604.948	950.915
605	944.449
605.052	939.506
605.104	952.905
605.156	934.621
605.208	935.554
605.26	944.055
605.312	980.005
605.364	978.548
605.416	960.81
605.468	954.338
605.52	951.671
605.572	969.788
605.623	952.79
605.675	974.376
605.727	971.72
605.779	946.72
605.831	957.388
605.883	932.409
605.935	948.027
605.987	952.765
606.039	951.182
606.091	962.235
606.143	933.643
606.195	944.248
606.247	962.172
606.299	950.324
606.351	963.08
606.403	975.219
606.455	934.926
606.506	931.958
606.558	950.013
606.61	962.261
606.662	936.1
606.714	969.909
606.766	924.832
606.818	955.985
606.87	936.034
606.922	946.635
606.974	949.359
607.026	964.344
607.078	937.016
607.13	964.589
607.182	946.231
607.234	942.593
607.285	926.259
607.337	947.251
607.389	949.25
607.441	967.006
607.493	960.913
607.545	942.429
607.597	967.417
607.649	946.458
607.701	948.963
607.753	956.554
607.805	948.338
607.857	944.433
607.909	962.575
607.96	924.189
608.012	963.172
608.064	970.151
608.116	969.85
608.168	989.485
608.22	978.253
608.272	955.406
608.324	949.068
608.376	977.937
608.428	981.792
608.48	963.97
608.532	943.859
608.583	970.352
608.635	1005.07
608.687	987.713
608.739	974.944
608.791	991.69
608.843	975.984
608.895	974.178
608.947	975.468
608.999	974.395
609.051	983.177
609.103	990.258
609.155	991.023
609.206	979.546
609.258	973.613
609.31	985.688
609.362	992.794
609.414	1004.29
609.466	1004.64
609.518	997.206
609.57	988.752
609.622	987.039
609.674	1007.77
609.725	1007.28
609.777	999.481
609.829	1025.88
609.881	995.054
609.933	985.061
609.985	986.453
610.037	1033.57
610.089	1003.78
610.141	1019.09
610.193	1007.58
610.245	990.696
610.296	1004.01
610.348	1004.23
610.4	1001.24
610.452	1007.73
610.504	999.227
610.556	987.686
610.608	997.412
610.66	1016.11
610.712	994.087
610.763	1021.6
610.815	1015.02
610.867	1020.83
610.919	1032.4
610.971	1028.04
611.023	1010.58
611.075	1018.6
611.127	997.885
611.179	1019.92
611.23	1018.77
611.282	1001.37
611.334	1029.64
611.386	1017.7
611.438	1049.59
611.49	1034.9
611.542	1032.99
611.594	1026.25
611.646	1022.49
611.697	1019.39
611.749	1044.55
611.801	1037.37
611.853	1020.1
611.905	1020.2
611.957	1031.68
612.009	1039.49
612.061	1039.08
612.113	1028.95
612.164	1027.39
612.216	1049.06
612.268	1043.38
612.32	1035.78
612.372	1064.19
612.424	1006.38
612.476	1037.95
612.528	1040.94
612.579	1042.44
612.631	1029.28
612.683	1051.04
612.735	1044.25
612.787	1034.93
612.839	1040.27
612.891	1030.82
612.943	1050.17
612.994	1051.25
613.046	1054.53
613.098	1075.48
613.15	1081.55
613.202	1071.01
613.254	1049.68
613.306	1062.26
613.357	1088.73
613.409	1062.97
613.461	1061.41
613.513	1069.86
613.565	1055.04
613.617	1075.37
613.669	1063.8
613.721	1084.74
613.772	1087.55
613.824	1074.93
613.876	1087.82
613.928	1094.5
613.98	1084.56
614.032	1079.65
614.084	1076.75
614.135	1078.69
614.187	1096.66
614.239	1085.75
614.291	1096.86
614.343	1085.7
614.395	1087.32
614.447	1092.58
614.498	1110.42
614.55	1101.23
614.602	1094.9
614.654	1121.2
614.706	1103.33
614.758	1104.85
614.81	1122.66
614.861	1109.26
614.913	1102.24
614.965	1116.39
615.017	1111.63
615.069	1110.42
615.121	1137.41
615.172	1131.33
615.224	1122.5
615.276	1133.16
615.328	1140.03
615.38	1130.9
615.432	1121.98
615.484	1118.95
615.535	1132.69
615.587	1124.13
615.639	1130.5
615.691	1114.07
615.743	1139.91
615.795	1122
615.846	1121.9
615.898	1137.72
615.95	1157.57
616.002	1137.26
616.054	1156.24
616.106	1168.03
616.158	1150.99
616.209	1141.84
616.261	1152.97
616.313	1173.9
616.365	1163.83
616.417	1164.3
616.469	1190.73
616.52	1148.17
616.572	1164.02
616.624	1174.83
616.676	1168.88
616.728	1155.64
616.78	1185.3
616.831	1187.63
616.883	1173.41
616.935	1177.51
616.987	1182.53
617.039	1184.15
617.091	1175.73
617.142	1174.22
617.194	1168.13
617.246	1175.9
617.298	1189.7
617.35	1192.9
617.401	1187.34
617.453	1192.62
617.505	1202.63
617.557	1201.66
617.609	1214.93
617.661	1214.55
617.712	1203.97
617.764	1204.82
617.816	1216.68
617.868	1222.37
617.92	1219.24
617.972	1215.12
618.023	1243.72
618.075	1218.3
618.127	1237.16
618.179	1196.3
618.231	1198.62
618.282	1204.57
618.334	1228.72
618.386	1223.36
618.438	1230.52
618.49	1205.22
618.542	1240.49
618.593	1238.25
618.645	1261.38
618.697	1240.52
618.749	1239.29
618.801	1236.11
618.852	1257.07
618.904	1260.17
618.956	1243.82
619.008	1250.61
619.06	1252.49
619.111	1257.21
619.163	1238.31
619.215	1260
619.267	1266.4
619.319	1281.4
619.37	1264.64
619.422	1244.06
619.474	1274.89
619.526	1279.09
619.578	1259.98
619.63	1279.38
619.681	1280.67
619.733	1288.29
619.785	1256.36
619.837	1272.67
619.888	1293.51
619.94	1301.09
619.992	1286.67
620.044	1297.02
620.096	1295.95
620.147	1286.36
620.199	1261.59
620.251	1307.54
620.303	1310.47
620.355	1294.36
620.406	1297.46
620.458	1311.54
620.51	1287.08
620.562	1313.8
620.614	1290.38
620.665	1332.25
620.717	1314.98
620.769	1283.29
620.821	1321.07
620.873	1316.88
620.924	1305.12
620.976	1333.86
621.028	1325.81
621.08	1308.72
621.132	1318.64
621.183	1312.11
621.235	1309.77
621.287	1323.61
621.339	1306.61
621.39	1292.91
621.442	1291.16
621.494	1291.82
621.546	1321.64
621.598	1324.76
621.649	1315.52
621.701	1314.54
621.753	1319.21
621.805	1317.56
621.856	1347.74
621.908	1310.2
621.96	1291.42
622.012	1339.63
622.064	1334.58
622.115	1354.87
622.167	1351.63
622.219	1332.88
622.271	1325.72
622.322	1315.63
622.374	1318.12
622.426	1325.01
622.478	1307.79
622.53	1350.69
622.581	1324.78
622.633	1329.43
622.685	1323.91
622.737	1346.45
622.788	1323.23
622.84	1330.59
622.892	1341.73
622.944	1353.05
622.995	1345.59
623.047	1350.31
623.099	1327.19
623.151	1328.51
623.203	1348.25
623.254	1324.6
623.306	1357.26
623.358	1344.37
623.41	1335.42
623.461	1360.22
623.513	1335.61
623.565	1349.64
623.617	1303.73
623.668	1336.03
623.72	1346.49
623.772	1353.25
623.824	1374.31
623.875	1338.57
623.927	1340.95
623.979	1336.75
624.031	1336.17
624.082	1336
624.134	1370.7
624.186	1326.06
624.238	1341.83
624.289	1378.58
624.341	1347.61
624.393	1341.85
624.445	1343.85
624.496	1359.84
624.548	1367.33
624.6	1362.39
624.652	1367.04
624.703	1372.93
624.755	1356.56
624.807	1342.34
624.859	1344.17
624.91	1359.98
624.962	1383.1
625.014	1361.83
625.066	1392.28
625.117	1383.65
625.169	1391.44
625.221	1362
625.273	1364.98
625.324	1389.69
625.376	1389.53
625.428	1373.43
625.48	1348.24
625.531	1374.92
625.583	1400.22
625.635	1369.19
625.687	1397.3
625.738	1368.77
625.79	1384.83
625.842	1384.93
625.893	1399.23
625.945	1380.12
625.997	1403.25
626.049	1398.31
626.1	1354.22
626.152	1398.47
626.204	1371.37
626.256	1375.94
626.307	1366.45
626.316	1364.04
626.368	1395.98
626.42	1397.93
626.472	1405.98
626.523	1423.87
626.575	1408
626.627	1408.19
626.679	1382.59
626.731	1406.36
626.783	1419.74
626.835	1391.73
626.887	1431.44
626.938	1447.04
626.99	1380.62
627.042	1434.84
627.094	1422.73
627.146	1446.3
627.198	1424.21
627.25	1435.61
627.302	1423.93
627.353	1398.45
627.405	1430.67
627.457	1392.75
627.509	1393.34
627.561	1424.41
627.613	1466.76
627.665	1419.66
627.716	1442.24
627.768	1423.1
627.82	1448.82
627.872	1451.21
627.924	1435.85
627.976	1446.34
628.028	1443.77
628.079	1442.84
628.131	1454.64
628.183	1416.86
628.235	1470.66
628.287	1451.46
628.339	1461.56
628.391	1458.9
628.443	1483.52
628.494	1439.95
628.546	1468.75
628.598	1430.09
628.65	1496.41
628.702	1468.81
628.754	1469.54
628.805	1485.59
628.857	1485.67
628.909	1477.97
628.961	1460.45
629.013	1467.05
629.065	1480.74
629.117	1443.12
629.168	1459.31
629.22	1460.75
629.272	1487.61
629.324	1459.5
629.376	1472.61
629.428	1475.9
629.479	1506.21
629.531	1487.23
629.583	1471.94
629.635	1478.27
629.687	1488.24
629.739	1476.95
629.791	1453.64
629.842	1462.35
629.894	1476.66
629.946	1470.28
629.998	1488.2
630.05	1501.74
630.102	1551.95
630.153	1476.06
630.205	1514.93
630.257	1485.98
630.309	1524.33
630.361	1438.92
630.413	1520.77
630.464	1509.4
630.516	1518.95
630.568	1483.5
630.62	1516.38
630.672	1482.68
630.724	1546.47
630.776	1541.64
630.827	1476.32
630.879	1525.81
630.931	1518.17
630.983	1529.19
631.035	1499.49
631.086	1536.41
631.138	1538.06
631.19	1574.06
631.242	1526.11
631.294	1534.91
631.346	1555.45
631.397	1532.58
631.449	1599.85
631.501	1571.4
631.553	1564.65
631.605	1558.22
631.657	1538.1
631.708	1562.75
631.76	1559.27
631.812	1574.13
631.864	1569.67
631.916	1588.19
631.967	1537.8
632.019	1561.07
632.071	1620.05
632.123	1604.9
632.175	1597.97
632.227	1612.48
632.278	1616.9
632.33	1593.13
632.382	1563.71
632.434	1613.54
632.486	1620.11
632.537	1593.08
632.589	1583.71
632.641	1627.02
632.693	1623.82
632.745	1622.52
632.797	1599.54
632.848	1630.57
632.9	1609.63
632.952	1634.01
633.004	1615.15
633.056	1621.95
633.107	1625.87
633.159	1644.64
633.211	1605.45
633.263	1667.88
633.315	1649.43
633.366	1666.58
633.418	1630.7
633.47	1643.8
633.522	1641.16
633.574	1657.28
633.625	1630.36
633.677	1660.61
633.729	1678.81
633.781	1647.19
633.833	1662.51
633.885	1631.96
633.936	1663.22
633.988	1697.59
634.04	1669.2
634.092	1696.37
634.143	1669.53
634.195	1659.32
634.247	1675.98
634.299	1693.8
634.351	1668.09
634.403	1691.33
634.454	1721.79
634.506	1700.23
634.558	1727.24
634.61	1746.82
634.661	1713.06
634.713	1722.25
634.765	1696.09
634.817	1710.94
634.869	1716.96
634.92	1748.95
634.972	1734.72
635.024	1729.21
635.076	1737.21
635.128	1751.26
635.179	1774.45
635.231	1764.35
635.283	1759
635.335	1793.33
635.387	1761.11
635.438	1811.04
635.49	1766.61
635.542	1806.11
635.594	1792.86
635.645	1817.7
635.697	1816.23
635.749	1842.68
635.801	1851.13
635.853	1825.21
635.904	1852.4
635.956	1895.36
636.008	1873.56
636.06	1871.18
636.112	1898.91
636.163	1898.09
636.215	1935.28
636.267	1891.38
636.319	1919.9
636.37	1936.77
636.422	1985.8
636.474	1938.48
636.526	1984.09
636.577	1971.12
636.629	1998.35
636.681	2026.01
636.733	1983.19
636.785	2081.72
636.836	2065.13
636.888	2076.92
636.94	2082.51
636.992	2116.86
637.043	2133.35
637.095	2116.05
637.147	2200.72
637.199	2178.07
637.25	2169.63
637.302	2199.84
637.354	2237.88
637.406	2250.75
637.458	2286.75
637.509	2284.97
637.561	2322.41
637.613	2372.68
637.665	2345.64
637.716	2397.57
637.768	2407.56
637.82	2425.25
637.872	2461.81
637.923	2453.19
637.975	2481.6
638.027	2475.45
638.079	2490.84
638.13	2517.28
638.182	2519.53
638.234	2499.06
638.286	2518.38
638.337	2538.02
638.389	2576.22
638.441	2530.37
638.493	2542.74
638.544	2556.62
638.596	2556.57
638.648	2582.11
638.7	2528.3
638.752	2553.56
638.803	2540.85
638.855	2530.31
638.907	2525.54
638.958	2519.82
639.01	2516.49
639.062	2527.73
639.114	2479.22
639.165	2496.95
639.217	2470.41
639.269	2466.77
639.321	2435.42
639.372	2437.44
639.424	2415.5
639.476	2398.26
639.528	2432
639.579	2373
639.631	2388.71
639.683	2394.34
639.735	2358.53
639.786	2368.59
639.838	2321.53
639.89	2351.98
639.942	2293.27
639.993	2310.21
640.045	2276.8
640.097	2306.31
640.149	2285.97
640.2	2285.3
640.252	2274.73
640.304	2275.16
640.356	2228.12
640.407	2242.62
640.459	2228.45
640.511	2239.26
640.562	2203.92
640.614	2219.34
640.666	2237.27
640.718	2233.74
640.769	2198.75
640.821	2221.77
640.873	2187.55
640.925	2185.51
640.976	2159.75
641.028	2170.84
641.08	2168.02
641.131	2167.01
641.183	2150.65
641.235	2160.61
641.287	2172.64
641.338	2144.93
641.39	2150.26
641.442	2143.11
641.494	2159.56
641.545	2147.38
641.597	2146.09
641.649	2136.63
641.7	2139.34
641.752	2124.93
641.804	2121.63
641.856	2109.81
641.907	2134.74
641.959	2146.94
642.011	2094.02
642.063	2130.59
642.114	2147.87
642.166	2141.11
642.218	2126.41
642.269	2144.34
642.321	2137.57
642.373	2138.71
642.424	2115.49
642.476	2122.49
642.528	2129.23
642.58	2132.46
642.631	2102.82
642.683	2149.33
642.735	2139.49
642.786	2135.07
642.838	2125.68
642.89	2144.1
642.942	2140.13
642.993	2140.87
643.045	2113.13
643.097	2152.99
643.148	2130.86
643.2	2150.4
643.252	2146.24
643.304	2141.28
643.355	2129.37
643.407	2151.86
643.459	2130.99
643.51	2137.77
643.562	2105.5
643.614	2132.56
643.665	2133.91
643.717	2153.63
643.769	2160.7
643.82	2170.8
643.872	2165.66
643.924	2120.82
643.976	2169.14
644.027	2173.07
644.079	2168.41
644.131	2176.11
644.182	2189.13
644.234	2178.71
644.286	2157.3
644.337	2165.34
644.389	2144.1
644.441	2166.84
644.493	2172.56
644.544	2180.23
644.596	2188.64
644.648	2160.52
644.699	2191.63
644.751	2177.89
644.803	2191.27
644.854	2189.1
644.906	2202.84
644.958	2195.4
645.009	2211.06
645.061	2201.04
645.113	2197.86
645.164	2205.01
645.216	2184.72
645.268	2157.26
645.32	2211.51
645.371	2218.27
645.423	2213.82
645.475	2233.49
645.526	2141.58
645.578	2162.04
645.63	2234.99
645.681	2193.53
645.733	2215.11
645.785	2212.77
645.836	2194.52
645.888	2221.78
645.94	2221.99
645.991	2184.7
646.043	2223.62
646.095	2188.8
646.146	2229.48
646.198	2212.14
646.25	2181.04
646.301	2240.25
646.353	2186.87
646.405	2271.49
646.456	2233.04
646.508	2264.02
646.56	2249.85
646.611	2247.31
646.663	2210.72
646.715	2230.83
646.766	2279.11
646.818	2288.72
646.87	2249.28
646.921	2251.61
646.973	2255.43
647.025	2264.35
647.076	2281.1
647.128	2275.6
647.18	2265.18
647.231	2302.65
647.283	2255.15
647.335	2227.26
647.386	2267.16
647.438	2249.97
647.49	2288.67
647.541	2275.61
647.593	2267.41
647.645	2311.18
647.696	2297.68
647.748	2242.35
647.8	2320.98
647.851	2267
647.903	2273.27
647.955	2279.13
648.006	2269.93
648.058	2280.02
648.109	2253.72
648.161	2332.46
648.213	2337.52
648.264	2379.47
648.316	2341.19
648.368	2308.19
648.419	2304.86
648.471	2303.93
648.523	2324.52
648.574	2318.92
648.626	2322.18
648.678	2354.38
648.729	2326.03
648.781	2256.16
648.833	2331.88
648.884	2359.44
648.936	2332.21
648.987	2321.22
649.039	2331.38
649.091	2342.08
649.142	2354.53
649.194	2352.97
649.246	2344.82
649.297	2366.53
649.349	2393.78
649.401	2368.56
649.452	2378.42
649.504	2400.72
649.555	2425.26
649.607	2373.62
649.659	2389.92
649.71	2396.21
649.762	2394.41
649.814	2388.28
649.865	2391.43
649.917	2395.31
649.969	2401.2
650.02	2396.17
650.072	2444.79
650.123	2430.09
650.175	2414.57
650.227	2415.34
650.278	2384.76
650.33	2434.78
650.382	2443.03
650.433	2448.48
650.485	2451.42
650.536	2431.43
650.588	2436.18
650.64	2470.16
650.691	2469.5
650.743	2454.24
650.795	2469.95
650.846	2427.54
650.898	2467.58
650.949	2487.29
651.001	2448.2
651.053	2462.2
651.104	2477.95
651.156	2474.3
651.208	2472.55
651.259	2506.46
651.311	2508.9
651.362	2491.99
651.414	2505.68
651.466	2516.73
651.517	2505.17
651.569	2504.69
651.62	2514.42
651.672	2494.76
651.724	2503.96
651.775	2511.98
651.827	2553.08
651.878	2539.02
651.93	2561.68
651.982	2545.17
652.033	2542.64
652.085	2554.74
652.137	2519.2
652.188	2540.87
652.24	2574.51
652.291	2574.53
652.343	2555.77
652.395	2573.15
652.446	2539.23
652.498	2525.29
652.549	2585.7
652.601	2583.87
652.653	2600.31
652.704	2590.4
652.756	2582.58
652.772	2583.86
652.824	2577.92
652.876	2528.5
652.927	2607.71
652.979	2597.75
653.031	2597.41
653.083	2573.92
653.134	2587.28
653.186	2562.35
653.238	2628.97
653.29	2621.7
653.341	2620.03
653.393	2650.85
653.445	2639.68
653.497	2665.8
653.548	2623.13
653.6	2654.49
653.652	2589.88
653.704	2684.27
653.755	2652.4
653.807	2701.67
653.859	2685.23
653.91	2676.08
653.962	2700.69
654.014	2660.51
654.066	2675.88
654.117	2665.81
654.169	2673.11
654.221	2744.01
654.273	2721.44
654.324	2702.4
654.376	2679.65
654.428	2689.83
654.48	2700.18
654.531	2767.48
654.583	2719.28
654.635	2703.87
654.686	2723.97
654.738	2738.81
654.79	2733.63
654.842	2709.53
654.893	2760.48
654.945	2756.9
654.997	2714.7
655.049	2749.27
655.1	2814.41
655.152	2746.96
655.204	2768.69
655.255	2793.24
655.307	2774.93
655.359	2796.54
655.411	2778.47
655.462	2801.42
655.514	2874.45
655.566	2849.06
655.618	2870.41
655.669	2836.32
655.721	2843.38
655.773	2857.85
655.824	2849.28
655.876	2902.98
655.928	2881.2
655.98	2890.71
656.031	2893.46
656.083	2918.69
656.135	2875.28
656.186	2963.48
656.238	2872.74
656.29	2899.93
656.342	2919.51
656.393	2893.57
656.445	2893.96
656.497	2963.28
656.548	2914.31
656.6	2977.58
656.652	2963.98
656.704	2919.97
656.755	2959.74
656.807	2941.94
656.859	2999.03
656.91	2973.97
656.962	3013.47
657.014	2930.19
657.065	3016.92
657.117	2976.68
657.169	2982.68
657.221	2968.2
657.272	3020.39
657.324	3039.2
657.376	3028.89
657.427	3001.7
657.479	3011.82
657.531	3065.69
657.583	3013.63
657.634	3056.07
657.686	3049.01
657.738	3075.91
657.789	3032.19
657.841	3062.64
657.893	3100.83
657.944	3053.81
657.996	3066.1
658.048	3089.97
658.099	3117.48
658.151	3121.83
658.203	3083.88
658.255	3072.28
658.306	3132.83
658.358	3126.82
658.41	3098.81
658.461	3118.38
658.513	3085.19
658.565	3161.44
658.616	3124.62
658.668	3081.9
658.72	3113.91
658.771	3106.69
658.823	3155.48
658.875	3134.99
658.927	3147.92
658.978	3144.76
659.03	3142.51
659.082	3147.22
659.133	3163
659.185	3178.26
659.237	3148.43
659.288	3158.1
659.34	3153.82
659.392	3190.5
659.443	3162.3
659.495	3176.45
659.547	3152.84
659.598	3191.01
659.65	3211.19
659.702	3200.45
659.753	3143.61
659.805	3163.4
659.857	3169.35
659.909	3158.89
659.96	3200.35
660.012	3190.12
660.064	3201.19
660.115	3190.12
660.167	3179.19
660.219	3193.85
660.27	3177.87
660.322	3214.31
660.374	3184.75
660.425	3233.2
660.477	3257.12
660.529	3211.17
660.58	3197.73
660.632	3179.48
660.684	3191.05
660.735	3185.14
660.787	3237.41
660.839	3226.56
660.89	3240.59
660.942	3211.67
660.994	3189
661.045	3174.83
661.097	3195.03
661.149	3195.25
661.2	3209.43
661.252	3213.53
661.304	3168.11
661.355	3236.6
661.407	3225.09
661.459	3150.07
661.51	3212.42
661.562	3236.26
661.614	3150.67
661.665	3211.3
661.717	3203.11
661.768	3203.19
661.82	3254.48
661.872	3220.77
661.923	3218.26
661.975	3214.58
662.027	3240.39
662.078	3207.24
662.13	3192.25
662.182	3184.76
662.233	3218.82
662.285	3179.64
662.337	3196.56
662.388	3223.71
662.44	3215.18
662.492	3203.77
662.543	3218.92
662.595	3208
662.647	3217.5
662.698	3181.46
662.75	3211.33
662.802	3172.04
662.853	3192.21
662.905	3204.55
662.956	3210.03
663.008	3220.42
663.06	3201.96
663.111	3206.09
663.163	3153.89
663.215	3191.3
663.266	3195.95
663.318	3196.63
663.37	3233.64
663.421	3203.07
663.473	3221.18
663.525	3247.55
663.576	3174.69
663.628	3207.4
663.679	3214.96
663.731	3191.3
663.783	3233.41
663.834	3207.36
663.886	3194.07
663.938	3229.34
663.989	3212.39
664.041	3180.34
664.093	3202.16
664.144	3233.67
664.196	3247.85
664.247	3230.54
664.299	3195.54
664.351	3202.7
664.402	3201.78
664.454	3246.8
664.506	3225.48
664.557	3174.45
664.609	3217.03
664.66	3193.31
664.712	3206.06
664.764	3196.41
664.815	3204.34
664.867	3217.56
664.919	3170.62
664.97	3215.96
665.022	3209.52
665.073	3197.72
665.125	3155.67
665.177	3206.68
665.228	3207.55
665.28	3206.18
665.332	3171.05
665.383	3183.79
665.435	3182.35
665.486	3194.12
665.538	3163.25
665.59	3193.18
665.641	3204.76
665.693	3204.2
665.745	3210.18
665.796	3185.5
665.848	3206.9
665.899	3202.35
665.951	3208.74
666.003	3185.64
666.054	3165.35
666.106	3171.77
666.157	3177.72
666.209	3189.37
666.261	3201.39
666.312	3203.02
666.364	3194.88
666.415	3172.1
666.467	3182.8
666.519	3162
666.57	3190.5
666.622	3185.73
666.673	3190.97
666.725	3201.79
666.777	3179.9
666.828	3148.96
666.88	3125.2
666.931	3168.24
666.983	3190.94
667.035	3177.7
667.086	3181.48
667.138	3149.78
667.189	3127.32
667.241	3133.12
667.293	3157.78
667.344	3172.31
667.396	3165.8
667.447	3147.4
667.499	3169.53
667.551	3182.38
667.602	3212.8
667.654	3164.68
667.705	3176.11
667.757	3192.61
667.809	3196.48
667.86	3169.13
667.912	3184.25
667.963	3172.62
668.015	3164.48
668.067	3209.03
668.118	3158.95
668.17	3157.48
668.221	3150.52
668.273	3130.45
668.325	3130.98
668.376	3133.32
668.428	3165.55
668.479	3172.68
668.531	3166.87
668.582	3168.37
668.634	3150.59
668.686	3162.11
668.737	3168.78
668.789	3152.77
668.84	3155.08
668.892	3164.6
668.944	3199.21
668.995	3163.65
669.047	3207.56
669.098	3213.14
669.15	3157.14
669.201	3134.54
669.253	3175.53
669.305	3210.88
669.356	3178.07
669.408	3170.69
669.459	3185.3
669.511	3155.43
669.562	3160.7
669.614	3171.1
669.666	3143.57
669.717	3164.95
669.769	3187.78
669.82	3170.98
669.872	3152.32
669.923	3176.01
669.975	3153.5
670.027	3153.33
670.078	3173.6
670.13	3177.5
670.181	3153.91
670.233	3163.63
670.284	3177.02
670.336	3197.63
670.388	3142.63
670.439	3189.48
670.491	3179.96
670.542	3152.38
670.594	3120.24
670.645	3163.09
670.697	3195.89
670.748	3209.24
670.8	3169.98
670.852	3161.5
670.903	3154.51
670.955	3162.94
671.006	3187.09
671.058	3131.51
671.109	3144.28
671.161	3175.3
671.212	3177.3
671.264	3167.32
671.316	3174.9
671.367	3183.36
671.419	3140.47
671.47	3169.31
671.522	3175.8
671.573	3146.57
671.625	3182.35
671.676	3146.3
671.728	3162.38
671.78	3169.57
671.831	3145.2
671.883	3199.68
671.934	3189.64
671.986	3174.54
672.037	3140.18
672.089	3181.45
672.14	3171.35
672.192	3178.74
672.243	3211.9
672.295	3168.96
672.347	3179.54
672.398	3193.67
672.45	3223.06
672.501	3196.28
672.553	3176.75
672.604	3205.07
672.656	3211.25
672.707	3139.74
672.759	3188.02
672.81	3236.43
672.862	3199.75
672.913	3229.42
672.965	3200.69
673.017	3171.31
673.068	3175.18
673.12	3194.2
673.171	3220.93
673.223	3221.07
673.274	3220.82
673.326	3245.88
673.377	3228.06
673.429	3202.25
673.48	3249.34
673.532	3275.12
673.583	3243.07
673.635	3212.32
673.686	3249.14
673.738	3254.47
673.789	3242.08
673.841	3251.55
673.893	3265.92
673.944	3262.64
673.996	3273.07
674.047	3225.89
674.099	3258.7
674.15	3277.03
674.202	3299.49
674.253	3292.44
674.305	3234.79
674.356	3265
674.408	3297.11
674.459	3328.59
674.511	3329.55
674.562	3302.34
674.614	3295.95
674.665	3315.35
674.717	3328.66
674.768	3328.94
674.82	3313.4
674.871	3300
674.923	3307.86
674.974	3309.93
675.026	3317.14
675.077	3341.85
675.129	3316.65
675.18	3314.02
675.232	3376.33
675.284	3374.79
675.335	3350.88
675.387	3339.37
675.438	3309.95
675.49	3382.02
675.541	3369.64
675.593	3349.28
675.644	3397.15
675.696	3386.16
675.747	3344.44
675.799	3347.28
675.85	3348.57
675.902	3340.45
675.953	3379.47
676.005	3383.99
676.056	3400.07
676.108	3391.04
676.159	3359.4
676.211	3387.13
676.262	3366.56
676.314	3313.39
676.365	3310.94
676.417	3363.32
676.468	3408.65
676.52	3377.17
676.571	3361.2
676.623	3399.84
676.674	3361.32
676.726	3354.16
676.777	3350.7
676.828	3338.89
676.88	3366.24
676.932	3374.61
676.983	3325.04
677.034	3369.4
677.086	3409.58
677.137	3408.03
677.189	3378.07
677.24	3362.59
677.292	3372.7
677.343	3409.57
677.395	3395.83
677.446	3384.22
677.498	3398.98
677.549	3394.48
677.601	3397.59
677.652	3409.75
677.704	3404.02
677.755	3369.33
677.807	3355.37
677.858	3406.12
677.91	3412.53
677.961	3417.99
678.013	3418.91
678.064	3381.53
678.116	3402.57
678.167	3427.38
678.219	3393.76
678.27	3374.42
678.322	3373.42
678.373	3382.92
678.424	3360.1
678.476	3341.16
678.527	3382.72
678.579	3362.16
678.63	3329.22
678.682	3372.35
678.733	3396.03
678.785	3372.17
678.836	3373.38
678.888	3388.4
678.939	3399.87
678.991	3418.65
679.042	3404.23
679.094	3338.76
679.122	3332.32
679.173	3358.35
679.225	3399.84
679.277	3368.25
679.328	3400.12
679.38	3386.76
679.432	3338.95
679.483	3378.11
679.535	3408.07
679.586	3430.69
679.638	3379.71
679.69	3328.78
679.741	3381.42
679.793	3422.24
679.844	3357.25
679.896	3396.57
679.948	3435.23
679.999	3425.25
680.051	3362.05
680.103	3450.97
680.154	3424.25
680.206	3434.19
680.257	3409.62
680.309	3451.55
680.361	3435.55
680.412	3439.05
680.464	3410.48
680.515	3440
680.567	3394.11
680.619	3458.77
680.67	3427.29
680.722	3417.31
680.773	3384.4
680.825	3422.15
680.877	3395.84
680.928	3477.39
680.98	3424.64
681.031	3441.39
681.083	3464.08
681.135	3453.09
681.186	3481.83
681.238	3453.03
681.289	3453.08
681.341	3471.65
681.393	3468.62
681.444	3493.62
681.496	3454.07
681.547	3514.26
681.599	3503.56
681.651	3415.07
681.702	3482.98
681.754	3476.21
681.805	3450.12
681.857	3485.58
681.909	3456.02
681.96	3458.06
682.012	3459.75
682.063	3485.18
682.115	3503.82
682.166	3532.04
682.218	3471.24
682.27	3489.5
682.321	3465.08
682.373	3497.69
682.424	3459.11
682.476	3535.55
682.528	3508.11
682.579	3501.58
682.631	3491.95
682.682	3548.15
682.734	3502.98
682.785	3522.76
682.837	3489.28
682.889	3499.27
682.94	3557.37
682.992	3471.9
683.043	3506.07
683.095	3528.64
683.146	3534.83
683.198	3473.49
683.25	3513.75
683.301	3510.57
683.353	3523.4
683.404	3587.72
683.456	3518.83
683.508	3508.76
683.559	3517.66
683.611	3503.63
683.662	3526.85
683.714	3512.62
683.765	3493.18
683.817	3469.02
683.869	3512.82
683.92	3478.09
683.972	3489.82
684.023	3521.5
684.075	3497.91
684.126	3488.83
684.178	3483.74
684.229	3517.63
684.281	3447.91
684.333	3489
684.384	3442.48
684.436	3498.98
684.487	3507.21
684.539	3486.22
684.59	3545.91
684.642	3528.67
684.694	3464.64
684.745	3505.61
684.797	3498.41
684.848	3493.78
684.9	3446.63
684.951	3482.23
685.003	3465.13
685.055	3481.42
685.106	3504.91
685.158	3435.04
685.209	3433.22
685.261	3455.43
685.312	3434.57
685.364	3388.47
685.415	3469.02
685.467	3468.66
685.518	3440.74
685.57	3439.05
685.622	3489.61
685.673	3422.58
685.725	3493.09
685.776	3432.3
685.828	3432.49
685.879	3482.12
685.931	3442.23
685.982	3445.35
686.034	3430.24
686.086	3496.93
686.137	3440.96
686.189	3460.18
686.24	3453.06
686.292	3452.65
686.343	3409.34
686.395	3405.64
686.446	3404.78
686.498	3471.32
686.549	3462.5
686.601	3418.6
686.652	3436.45
686.704	3443.75
686.756	3446.33
686.807	3437.57
686.859	3448.14
686.91	3426.02
686.962	3453.33
687.013	3439.18
687.065	3409.55
687.116	3409.54
687.168	3396.87
687.219	3446.18
687.271	3444.5
687.322	3416.83
687.374	3408.72
687.426	3365.41
687.477	3426.12
687.529	3403.32
687.58	3425.9
687.632	3432.37
687.683	3422.21
687.735	3473.55
687.786	3425.46
687.838	3427.07
687.889	3386.05
687.941	3423.9
687.992	3422.57
688.044	3415.89
688.095	3419.17
688.147	3383.19
688.198	3426.16
688.25	3359.18
688.302	3404.76
688.353	3411.25
688.405	3446.78
688.456	3420.51
688.508	3432.86
688.559	3444.99
688.611	3387.86
688.662	3427.77
688.714	3453.79
688.765	3434.65
688.817	3439.29
688.868	3430.32
688.92	3414.98
688.971	3440.26
689.023	3362.24
689.074	3402.92
689.126	3404
689.177	3417.12
689.229	3419.59
689.28	3407.01
689.332	3421.63
689.383	3376.74
689.435	3373.95
689.486	3417.69
689.538	3392.28
689.589	3396.8
689.641	3393.33
689.692	3364.85
689.744	3380.79
689.795	3404.29
689.847	3453.98
689.898	3398.57
689.95	3395.4
690.001	3417.32
690.053	3369.65
690.104	3404.6
690.156	3382.18
690.207	3396.44
690.259	3403.47
690.31	3403.25
690.362	3364.07
690.413	3385.61
690.465	3361.02
690.516	3394.82
690.568	3387.11
690.619	3372.7
690.671	3331.37
690.722	3350.53
690.774	3347.37
690.825	3402.12
690.877	3363.24
690.928	3375.26
690.98	3346.6
691.031	3364.82
691.083	3342.87
691.134	3347.69
691.186	3356.42
691.237	3361.09
691.289	3317.68
691.34	3365.68
691.392	3359.28
691.443	3386.23
691.495	3322.98
691.546	3369.08
691.598	3288.46
691.649	3335.1
691.701	3336.94
691.752	3304.01
691.804	3326.07
691.855	3370.55
691.907	3311.02
691.958	3303.01
692.01	3295.01
692.061	3289.22
692.113	3355.03
692.164	3329.99
692.216	3332.36
692.267	3298.7
692.319	3296.38
692.37	3277.49
692.421	3278.26
692.473	3323.75
692.524	3290.92
692.576	3273.75
692.627	3340.51
692.679	3291.89
692.73	3296.2
692.782	3292.26
692.833	3334.27
692.885	3289.11
692.936	3280.29
692.988	3266.12
693.039	3295.58
693.091	3310.11
693.142	3267.14
693.194	3286.92
693.245	3290.45
693.297	3290.59
693.348	3271.57
693.399	3298.13
693.451	3250.04
693.502	3287.52
693.554	3297.19
693.605	3289.16
693.657	3238.95
693.708	3253.91
693.76	3245.08
693.811	3271.9
693.863	3276.96
693.914	3238.15
693.966	3243.99
694.017	3258.7
694.068	3232.9
694.12	3274.56
694.171	3261.96
694.223	3265.42
694.274	3253.45
694.326	3225.2
694.377	3237.44
694.429	3253.09
694.48	3269.28
694.532	3214.8
694.583	3263.23
694.634	3205.05
694.686	3227.62
694.737	3258.73
694.789	3221.34
694.84	3285.8
694.892	3249.91
694.943	3231.2
694.995	3265.37
695.046	3222.9
695.097	3201.04
695.149	3210.56
695.2	3236.89
695.252	3218.97
695.303	3248.43
695.355	3238.27
695.406	3211.09
695.458	3208.11
695.509	3223.03
695.56	3239.87
695.612	3259.92
695.663	3203.93
695.715	3213.2
695.766	3221.52
695.818	3218.37
695.869	3197.94
695.921	3169.07
695.972	3194.79
696.023	3173.68
696.075	3197.35
696.126	3230.77
696.178	3218.64
696.229	3208.37
696.281	3198.61
696.332	3176.37
696.383	3202.58
696.435	3193.88
696.486	3205.46
696.538	3167.94
696.589	3152.95
696.641	3204.28
696.692	3179.13
696.744	3163.47
696.795	3177.35
696.846	3161.24
696.898	3195.84
696.949	3180.55
697.001	3118.43
697.052	3146.46
697.104	3173.45
697.155	3163.98
697.206	3158.99
697.258	3140.41
697.309	3140.64
697.361	3161.95
697.412	3151.37
697.463	3161.19
697.515	3117.87
697.566	3132.97
697.618	3173.83
697.669	3153.35
697.721	3146.73
697.772	3093.93
697.823	3091
697.875	3140.11
697.926	3095.99
697.978	3104.19
698.029	3139.31
698.08	3165.76
698.132	3127.69
698.183	3125.98
698.235	3114.95
698.286	3092.53
698.338	3068.32
698.389	3061.77
698.44	3075.81
698.492	3051.67
698.543	3087.63
698.595	3060.22
698.646	3044.91
698.697	3052.63
698.749	3080.27
698.8	3072.26
698.852	3097.37
698.903	3062.56
698.954	3101.69
699.006	3079.25
699.057	3066.41
699.109	3045.34
699.16	3078.18
699.211	3055.58
699.263	3049.23
699.314	3041.81
699.366	3054.16
699.417	3055.73
699.468	3078.2
699.52	3069.49
699.571	3098.41
699.623	3057.28
699.674	3033.25
699.725	3038.5
699.777	3043.86
699.828	3052.03
699.88	3013.61
699.931	3043.1
699.982	3050.95
700.034	3057.28
700.085	3060.58
700.137	3052.12
700.188	3036.47
700.239	3026.19
700.291	3023.23
700.342	3050.94
700.393	3065.72
700.445	3066.25
700.496	3008.93
700.548	3022.97
700.599	3034.19
700.65	3052.56
700.702	3060.14
700.753	3054.63
700.805	3056
700.856	3053.82
700.907	3047.83
700.959	3054.26
701.01	3013.8
701.061	3028.97
701.113	3052
701.164	3034.9
701.216	3061.21
701.267	3045.92
701.318	3025.81
701.37	3027.8
701.421	3051.9
701.472	3045.37
701.524	3042.87
701.575	3020.08
701.627	3022.74
701.678	3050.86
701.729	3035.52
701.781	3008.53
701.832	3023.77
701.883	3028.27
701.935	3017.85
701.986	3035.13
702.038	3086.75
702.089	3041.49
702.14	2986.21
702.192	2995.88
702.243	3020.66
702.294	3027.29
702.346	3019.91
702.397	3040.79
702.448	3038.54
702.5	3022.14
702.551	3032.64
702.603	3032.64
702.654	3009.81
702.705	2998.89
702.757	3035.58
702.808	3022.65
702.859	3027.37
702.911	3030.11
702.962	3016.68
703.013	3033.14
703.065	3052.55
703.116	3016.35
703.167	3006.7
703.219	3011
703.27	3009.22
703.322	3056.94
703.373	3040.58
703.424	3029.67
703.476	3041.61
703.527	3006.28
703.578	3005.65
703.63	3015.82
703.681	3014.8
703.732	3011.09
703.784	3013
703.835	3003.7
703.886	2982.93
703.938	3039.37
703.989	3043.75
704.04	3018.61
704.092	3012.22
704.143	3018.73
704.194	3021.65
704.246	3002.72
704.297	3005.23
704.348	3001.56
704.4	3035.06
704.451	3018.76
704.503	3031.59
704.554	3013.22
704.605	2953.84
704.656	2978.87
704.708	2993.89
704.759	2965.25
704.81	2943.35
704.862	2945.68
704.913	2962.65
704.964	2996.43
705.016	2963.26
705.067	2965.2
705.119	2945.93
705.17	2941.75
705.221	2962.62
705.273	2973.82
705.324	2934.77
705.375	2932.05
705.408	2932
705.459	2954
705.511	2904.05
705.562	2926.05
705.614	2896.2
705.665	2886.27
705.717	2916.22
705.768	2872.58
705.82	2880.71
705.871	2957.72
705.923	2949.39
705.974	2918.03
706.026	2973.54
706.077	2860.78
706.129	2898.07
706.18	2917.88
706.232	2929.25
706.283	2910.04
706.335	2896.35
706.386	2888.21
706.438	2850.34
706.489	2908.98
706.541	2901.77
706.592	2875.32
706.643	2892.48
706.695	2875.74
706.746	2905.24
706.798	2930.65
706.849	2884.49
706.901	2846.92
706.952	2910.47
707.004	2856.21
707.055	2892.72
707.107	2849.48
707.158	2887.54
707.21	2886.5
707.261	2854.15
707.313	2839.11
707.364	2864.62
707.416	2867.01
707.467	2807.41
707.518	2839.57
707.57	2839.02
707.621	2847.36
707.673	2863.04
707.724	2853.21
707.776	2832.89
707.827	2833.54
707.879	2823.37
707.93	2875.98
707.982	2784.06
708.033	2810.84
708.084	2843.68
708.136	2824.35
708.187	2829.05
708.239	2857.18
708.29	2825.44
708.342	2812.15
708.393	2820.4
708.445	2764.31
708.496	2795.48
708.548	2815.44
708.599	2776.38
708.651	2830
708.702	2814.19
708.753	2769.88
708.805	2821.57
708.856	2822.29
708.908	2814.4
708.959	2862.99
709.011	2793.91
709.062	2811.87
709.114	2768.99
709.165	2811.28
709.216	2774.44
709.268	2792.9
709.319	2756.31
709.371	2795.97
709.422	2812.87
709.474	2797.28
709.525	2747.71
709.577	2826.05
709.628	2736.28
709.679	2803.16
709.731	2790.09
709.782	2784.59
709.834	2793.87
709.885	2771.14
709.937	2753.06
709.988	2779.55
710.039	2783.66
710.091	2801.13
710.142	2779.76
710.194	2761.45
710.245	2781.81
710.297	2769.65
710.348	2791.19
710.4	2825.37
710.451	2716.95
710.502	2789.24
710.554	2770.13
710.605	2704.68
710.657	2745.01
710.708	2744.8
710.76	2759.39
710.811	2747.65
710.862	2763.65
710.914	2776.39
710.965	2715.21
711.017	2765.24
711.068	2745.76
711.12	2763.95
711.171	2705.15
711.222	2746.77
711.274	2700.75
711.325	2759.24
711.377	2737.27
711.428	2749.01
711.479	2703.2
711.531	2716.65
711.582	2683.83
711.634	2698.03
711.685	2711.57
711.737	2690.99
711.788	2729.23
711.839	2701.15
711.891	2659.07
711.942	2704.06
711.994	2686.17
712.045	2701.03
712.096	2680.61
712.148	2663.94
712.199	2653.31
712.251	2700.32
712.302	2705.42
712.354	2670.61
712.405	2653.79
712.456	2637.18
712.508	2732.36
712.559	2657.58
712.611	2651.72
712.662	2656.79
712.713	2645.74
712.765	2637.86
712.816	2620.22
712.868	2634.08
712.919	2645.51
712.97	2644.2
713.022	2591.37
713.073	2636.13
713.125	2640.9
713.176	2613.78
713.227	2603.99
713.279	2637.56
713.33	2578.6
713.382	2634.85
713.433	2620.42
713.484	2567.13
713.536	2616.96
713.587	2603.15
713.639	2625.08
713.69	2569.82
713.741	2595.27
713.793	2609.35
713.844	2583.39
713.896	2606.95
713.947	2603.55
713.998	2562.39
714.05	2577.17
714.101	2591.68
714.153	2573.55
714.204	2534.65
714.255	2563.91
714.307	2519.58
714.358	2534.38
714.41	2568.44
714.461	2574.47
714.512	2556.59
714.564	2533.78
714.615	2553.31
714.666	2561.57
714.718	2568.77
714.769	2546.56
714.821	2522.24
714.872	2525.56
714.923	2545.46
714.975	2524.01
715.026	2546
715.078	2509.43
715.129	2538.35
715.18	2520.47
715.232	2525.44
715.283	2503.39
715.334	2500.57
715.386	2510.74
715.437	2525.8
715.489	2545.21
715.54	2543.98
715.591	2483.18
715.643	2472.23
715.694	2510.43
715.745	2510.81
715.797	2531.24
715.848	2479.13
715.9	2513.65
715.951	2509.21
716.002	2490.75
716.054	2476.28
716.105	2500.31
716.156	2481.85
716.208	2508.69
716.259	2472.13
716.31	2461.01
716.362	2460.73
716.413	2456.57
716.465	2466.13
716.516	2471.36
716.567	2459.02
716.619	2474.91
716.67	2518.2
716.721	2440.97
716.773	2471.15
716.824	2451.63
716.875	2462.17
716.927	2468.53
716.978	2453.09
717.03	2449.25
717.081	2489.08
717.132	2450.16
717.184	2479.65
717.235	2471.26
717.286	2442.96
717.338	2461.45
717.389	2409.56
717.44	2437.88
717.492	2411.13
717.543	2447.68
717.594	2411.23
717.646	2429
717.697	2419.22
717.749	2423.17
717.8	2429.94
717.851	2435.03
717.903	2443.33
717.954	2421.74
718.005	2418.6
718.057	2437.18
718.108	2436.12
718.159	2411.15
718.211	2408.24
718.262	2403.52
718.313	2417.25
718.365	2393.3
718.416	2430.01
718.467	2429.04
718.519	2439.81
718.57	2403.7
718.621	2384.82
718.673	2398.09
718.724	2395.74
718.775	2392.83
718.827	2375.83
718.878	2404.59
718.93	2368.59
718.981	2351.75
719.032	2382.3
719.083	2356.62
719.135	2368.3
719.186	2409.45
719.237	2367.04
719.289	2364.86
719.34	2353.61
719.391	2371.48
719.443	2364.39
719.494	2371.98
719.545	2356.04
719.597	2373.83
719.648	2342.37
719.699	2335.48
719.751	2345.15
719.802	2330.23
719.853	2381.88
719.905	2344.84
719.956	2349.58
720.007	2327.33
720.059	2332.67
720.11	2320.42
720.161	2349.89
720.213	2347.51
720.264	2343.09
720.315	2345.58
720.367	2332.93
720.418	2311.12
720.469	2330.75
720.521	2292.72
720.572	2306.33
720.623	2301.53
720.675	2306.1
720.726	2326.5
720.777	2314.95
720.829	2311.24
720.88	2293.58
720.931	2276.18
720.982	2285.64
721.034	2290.53
721.085	2286.79
721.136	2284.96
721.188	2269.48
721.239	2272.08
721.29	2273
721.342	2271.19
721.393	2260.17
721.444	2277.16
721.496	2269.83
721.547	2259.22
721.598	2270.17
721.65	2255.8
721.701	2247.26
721.752	2259.41
721.803	2270.51
721.855	2258.73
721.906	2233.47
721.957	2214.15
722.009	2225.73
722.06	2222.44
722.111	2238.19
722.163	2248.02
722.214	2255.78
722.265	2212.99
722.316	2196.8
722.368	2220.89
722.419	2240.79
722.47	2244.96
722.522	2247.44
722.573	2218.78
722.624	2192.99
722.676	2197.38
722.727	2207.97
722.778	2192.68
722.829	2210.36
722.881	2215.81
722.932	2216.68
722.983	2190.09
723.035	2190.04
723.086	2184.19
723.137	2165.66
723.188	2187.57
723.24	2177.41
723.291	2183.81
723.342	2175.41
723.394	2158.42
723.445	2191.79
723.496	2175.17
723.547	2163.09
723.599	2157.91
723.65	2198.64
723.701	2171.53
723.753	2166.56
723.804	2176.75
723.855	2142.39
723.906	2136.95
723.958	2150.57
724.009	2155.66
724.06	2178.87
724.112	2169.55
724.163	2137.43
724.214	2148.62
724.265	2143.88
724.317	2152.73
724.368	2146.89
724.419	2120.01
724.47	2143.77
724.522	2137.26
724.573	2142.55
724.624	2142.82
724.676	2111.7
724.727	2123.51
724.778	2143.99
724.829	2108.89
724.881	2101.3
724.932	2131.45
724.983	2136.43
725.034	2142.83
725.086	2113.15
725.137	2111.4
725.188	2098.02
725.24	2121.81
725.291	2106.12
725.342	2113.52
725.393	2110.55
725.445	2108.49
725.496	2097.37
725.547	2102.57
725.598	2113.57
725.65	2100.72
725.701	2089.87
725.752	2119.83
725.803	2096.06
725.855	2103.21
725.906	2115.27
725.957	2093.04
726.008	2069.98
726.06	2088.16
726.111	2119.03
726.162	2086.99
726.213	2035.37
726.265	2078.3
726.316	2077.11
726.367	2066.8
726.418	2065.09
726.47	2081.83
726.521	2072.54
726.572	2079.23
726.623	2058.7
726.675	2067.58
726.726	2051.64
726.777	2046.92
726.828	2056.35
726.88	2046.37
726.931	2051.51
726.982	2043.74
727.033	2038.38
727.085	2049.82
727.136	2042.32
727.187	2042.27
727.238	2037.43
727.29	2021.45
727.341	2026.24
727.392	2021.71
727.443	1991.9
727.495	1996.56
727.546	2008.54
727.597	2015.96
727.648	2006.25
727.7	1982.06
727.751	2011.98
727.802	2003.87
727.853	1986.05
727.904	1973.42
727.956	1999.17
728.007	1988.75
728.058	1961.99
728.109	1975.71
728.161	1991.94
728.212	1973.88
728.263	1963.5
728.314	1984.34
728.366	1982.28
728.417	1987.49
728.468	1980.54
728.519	1918.66
728.57	1936.84
728.622	1944.6
728.673	1958.21
728.724	1973.21
728.775	1991.73
728.827	1943.42
728.878	1957.72
728.929	1949.1
728.98	1952.5
729.031	1970.06
729.083	1952.97
729.134	1928.85
729.185	1904.81
729.236	1960.25
729.288	1940.91
729.339	1885.33
729.39	1920.13
729.441	1915.23
729.492	1943.36
729.544	1949.88
729.595	1895.15
729.646	1891.38
729.697	1892.26
729.748	1926.03
729.8	1907.95
729.851	1883.71
729.902	1892.25
729.953	1887.42
730.004	1841.2
730.056	1868.85
730.107	1911.91
730.158	1854.12
730.209	1861.62
730.26	1875.46
730.312	1872.33
730.363	1878.88
730.414	1874.46
730.465	1884.47
730.517	1886.15
730.568	1846.36
730.619	1813.78
730.67	1841.37
730.721	1858.66
730.773	1876.9
730.824	1851.37
730.875	1821.74
730.926	1843.09
730.977	1825.57
731.029	1806.86
731.08	1869.75
731.131	1826.35
731.182	1793.63
731.233	1835.31
731.284	1827.62
731.336	1817.23
731.387	1821.32
731.438	1814.94
731.489	1840.35
731.54	1808.53
731.592	1738.71
731.643	1809.8
731.643	1810
731.694	1782
731.746	1756
731.797	1818.05
731.848	1780.22
731.9	1792.31
731.951	1784.6
732.002	1812.49
732.054	1768.77
732.105	1773.05
732.156	1796.65
732.208	1775.22
732.259	1783.43
732.311	1791.2
732.362	1798.76
732.413	1757.29
732.465	1738.56
732.516	1752.08
732.567	1795.61
732.619	1776.95
732.67	1758.86
732.721	1786.1
732.773	1761.8
732.824	1813.88
732.875	1733.76
732.927	1762.76
732.978	1785.38
733.029	1770.29
733.081	1756.58
733.132	1822.12
733.183	1736.05
733.235	1756.33
733.286	1764.1
733.337	1761.03
733.389	1794.62
733.44	1756.91
733.491	1783.66
733.543	1761.68
733.594	1732.26
733.645	1717.26
733.697	1760.26
733.748	1740.34
733.799	1737.28
733.851	1747
733.902	1752.34
733.953	1776.78
734.005	1760.22
734.056	1761.69
734.107	1737.75
734.158	1737.89
734.21	1763.9
734.261	1746.67
734.312	1725.29
734.364	1747.75
734.415	1691.42
734.466	1711.64
734.518	1747.47
734.569	1702.24
734.62	1741.37
734.672	1706.08
734.723	1750.26
734.774	1732.28
734.826	1721.68
734.877	1679.23
734.928	1732.9
734.98	1727.47
735.031	1708.64
735.082	1669.49
735.133	1717.19
735.185	1705.47
735.236	1712.03
735.287	1713.04
735.339	1717.68
735.39	1692.23
735.441	1705.97
735.493	1717.7
735.544	1729.59
735.595	1709.3
735.647	1752.91
735.698	1696.33
735.749	1702.02
735.8	1696.88
735.852	1685.5
735.903	1716.25
735.954	1683.24
736.006	1706.98
736.057	1724.96
736.108	1723.46
736.16	1676.63
736.211	1689.28
736.262	1685.7
736.313	1736.97
736.365	1694.25
736.416	1680.89
736.467	1689.64
736.519	1691.46
736.57	1681.62
736.621	1701.24
736.673	1629.76
736.724	1705.79
736.775	1707.97
736.826	1693.53
736.878	1687.57
736.929	1667.5
736.98	1684.38
737.032	1641.01
737.083	1681.05
737.134	1667.96
737.185	1687.08
737.237	1652.83
737.288	1670.19
737.339	1673.57
737.391	1650.48
737.442	1681.45
737.493	1676.93
737.544	1681.76
737.596	1689.08
737.647	1678.33
737.698	1677.19
737.75	1656.75
737.801	1683.77
737.852	1696.92
737.903	1698.11
737.955	1651.63
738.006	1703.37
738.057	1685.22
738.109	1691.89
738.16	1641.06
738.211	1700.56
738.262	1649.01
738.314	1695.92
738.365	1639.66
738.416	1685.91
738.468	1671.11
738.519	1664.83
738.57	1645.98
738.621	1668.44
738.673	1667.26
738.724	1627.91
738.775	1626.98
738.826	1670.62
738.878	1624.86
738.929	1658.55
738.98	1622.32
739.031	1669.14
739.083	1640.97
739.134	1648.91
739.185	1615.27
739.237	1644.85
739.288	1652.71
739.339	1654.15
739.39	1620.4
739.442	1659.16
739.493	1626.76
739.544	1650.41
739.595	1649.15
739.647	1640.93
739.698	1617.92
739.749	1642.53
739.8	1615.19
739.852	1632.25
739.903	1625.08
739.954	1620.92
740.005	1622.53
740.057	1617.6
740.108	1624.03
740.159	1638.43
740.211	1596.66
740.262	1656.76
740.313	1598.67
740.364	1652.14
740.416	1631.99
740.467	1588.33
740.518	1620.08
740.569	1604.15
740.621	1604.43
740.672	1606.54
740.723	1614.29
740.774	1639.5
740.826	1621.15
740.877	1611.69
740.928	1636.59
740.979	1616.4
741.031	1611.4
741.082	1608.23
741.133	1615.7
741.184	1608.19
741.235	1620.57
741.287	1569.2
741.338	1606.13
741.389	1610.91
741.44	1591.54
741.492	1592.87
741.543	1574.17
741.594	1591
741.645	1574.92
741.697	1573.7
741.748	1586.64
741.799	1575.98
741.85	1576.21
741.902	1584.46
741.953	1593.17
742.004	1554.87
742.055	1582.13
742.107	1577.91
742.158	1583.97
742.209	1587.32
742.26	1553.59
742.311	1601.86
742.363	1567.55
742.414	1570.43
742.465	1574.89
742.516	1526.62
742.568	1569.12
742.619	1554.56
742.67	1561.84
742.721	1554.46
742.773	1570.18
742.824	1557.27
742.875	1548.17
742.926	1544.6
742.977	1565.34
743.029	1565.22
743.08	1568.89
743.131	1549.9
743.182	1546.12
743.234	1565.69
743.285	1581.63
743.336	1564.99
743.387	1561.71
743.438	1546.55
743.49	1554.27
743.541	1537.79
743.592	1552.63
743.643	1496.43
743.694	1540.67
743.746	1506.04
743.797	1534.34
743.848	1508.92
743.899	1507.23
743.951	1547.38
744.002	1544.53
744.053	1547.29
744.104	1523.79
744.155	1515.09
744.207	1505.46
744.258	1526.93
744.309	1521.49
744.36	1495.22
744.411	1496.73
744.463	1531.03
744.514	1503.21
744.565	1481.89
744.616	1519.72
744.667	1500.97
744.719	1506.88
744.77	1491.96
744.821	1495.98
744.872	1518.86
744.923	1508.53
744.975	1486.02
745.026	1503.16
745.077	1503.59
745.128	1476.48
745.179	1477.59
745.231	1496.33
745.282	1489.47
745.333	1502.79
745.384	1495.39
745.435	1472.52
745.487	1514.22
745.538	1496.81
745.589	1485.34
745.64	1488.95
745.691	1473.03
745.743	1484.99
745.794	1486.46
745.845	1463.45
745.896	1475.98
745.947	1476.53
745.998	1478.63
746.05	1471.1
746.101	1460.46
746.152	1431.17
746.203	1469.75
746.254	1468.01
746.306	1450.25
746.357	1469.65
746.408	1456.64
746.459	1458.81
746.51	1465.1
746.562	1450.71
746.613	1455.48
746.664	1455.61
746.715	1482.4
746.766	1475.75
746.817	1481.8
746.869	1466.56
746.92	1465.78
746.971	1454
747.022	1471.16
747.073	1438.96
747.125	1458.51
747.176	1452.65
747.227	1435.36
747.278	1437.19
747.329	1444.55
747.38	1425.96
747.432	1435.32
747.483	1431.91
747.534	1438.11
747.585	1443.02
747.636	1438.63
747.687	1416.48
747.739	1435.07
747.79	1455.36
747.841	1449.91
747.892	1454.46
747.943	1431.66
747.994	1431.52
748.046	1428.37
748.097	1426.36
748.148	1440.7
748.199	1433.3
748.25	1409.74
748.301	1402.84
748.352	1417.11
748.404	1421.82
748.455	1417.06
748.506	1410.74
748.557	1407.23
748.608	1405.67
748.659	1429.22
748.711	1415.47
748.762	1418.37
748.813	1404.22
748.864	1423.92
748.915	1418.17
748.966	1444.61
749.018	1440.12
749.069	1433.69
749.12	1426.51
749.171	1406.8
749.222	1412.38
749.273	1418.38
749.324	1398.41
749.376	1388.15
749.427	1406.98
749.478	1394.94
749.529	1377.97
749.58	1396.69
749.631	1402.99
749.682	1415.7
749.734	1404.17
749.785	1391.64
749.836	1411.57
749.887	1399.25
749.938	1396.75
749.989	1393.78
750.04	1384.98
750.092	1404.63
750.143	1388.44
750.194	1395.11
750.245	1372.15
750.296	1388.87
750.347	1366.45
750.398	1365.72
750.45	1368
750.501	1371.03
750.552	1363.66
750.603	1374.35
750.654	1349.53
750.705	1345.86
750.756	1356.35
750.807	1382.53
750.859	1363.63
750.91	1358.24
750.961	1365.3
751.012	1373.55
751.063	1357.58
751.114	1358.69
751.165	1348.16
751.216	1355.72
751.268	1356.96
751.319	1350.28
751.37	1347.1
751.421	1335.19
751.472	1326.95
751.523	1318.52
751.574	1325.52
751.625	1348.22
751.677	1350.77
751.728	1343.33
751.779	1353.22
751.83	1324.65
751.881	1333.69
751.932	1338.15
751.983	1347.09
752.034	1328.4
752.086	1341.31
752.137	1323.03
752.188	1334.2
752.239	1349.07
752.29	1335.08
752.341	1334.85
752.392	1318.72
752.443	1324.35
752.494	1300
752.546	1310.77
752.597	1300.56
752.648	1287.77
752.699	1286.76
752.75	1303.85
752.801	1332.77
752.852	1305.17
752.903	1310.08
752.954	1324.34
753.005	1318.29
753.057	1272.88
753.108	1300
753.159	1280.56
753.21	1283.28
753.261	1284.72
753.312	1280.09
753.363	1255.81
753.414	1298.14
753.465	1295.54
753.516	1285.05
753.568	1308.3
753.619	1299.39
753.67	1269.3
753.721	1256.15
753.772	1283.08
753.823	1279.54
753.874	1251.59
753.925	1269.33
753.976	1277.4
754.027	1243.22
754.079	1264.42
754.13	1268.6
754.181	1260.35
754.232	1269.62
754.283	1239.67
754.334	1293.87
754.385	1256.93
754.436	1298.56
754.487	1279.02
754.538	1240.23
754.589	1243.69
754.641	1254.12
754.692	1262.39
754.743	1240.65
754.794	1235.47
754.845	1253.5
754.896	1229.28
754.947	1262.51
754.998	1249.15
755.049	1196.25
755.1	1243.97
755.151	1213.54
755.202	1221.29
755.253	1235.43
755.305	1241.97
755.356	1218.77
755.407	1236.02
755.458	1260.03
755.509	1232.19
755.56	1238.54
755.611	1206.2
755.662	1233.09
755.713	1198.44
755.764	1222.17
755.815	1220.72
755.866	1225.02
755.917	1227.03
755.968	1200.13
756.02	1207.31
756.071	1183.55
756.122	1172.11
756.173	1213.41
756.224	1217.54
756.275	1209.09
756.326	1257.45
756.377	1186.66
756.428	1215.65
756.479	1232.98
756.53	1217.94
756.581	1225.76
756.632	1203.15
756.683	1218.16
756.734	1195.22
756.785	1213.96
756.837	1201.45
756.888	1204.56
756.939	1181.34
756.99	1191.75
757.041	1197.08
757.092	1207.27
757.143	1183.9
757.194	1168.24
757.245	1214.86
757.296	1187.03
757.347	1153.25
757.398	1184.58
757.449	1205.63
757.5	1168.91
757.551	1163.89
757.602	1196.1
757.653	1163.03
757.704	1184.68
757.755	1191.45
757.807	1173.54
757.858	1183.4
757.909	1132.81
757.917	1122
757.968	1164.04
758.02	1188.03
758.071	1170
758.122	1124.44
758.173	1170.08
758.224	1136.34
758.276	1167.9
758.327	1156.34
758.378	1189.82
758.429	1134.66
758.48	1140.52
758.532	1140.92
758.583	1168.13
758.634	1127.31
758.685	1155.98
758.736	1177
758.788	1125.26
758.839	1153.97
758.89	1119.27
758.941	1145.08
758.992	1129.83
759.044	1148.2
759.095	1127.03
759.146	1146.82
759.197	1158.46
759.248	1109.8
759.3	1149.53
759.351	1122.43
759.402	1127.69
759.453	1166.95
759.504	1156.64
759.556	1160.15
759.607	1139.12
759.658	1144.05
759.709	1131.13
759.76	1142.52
759.811	1078.73
759.863	1126.86
759.914	1112.79
759.965	1119.43
760.016	1102.12
760.067	1121.66
760.119	1119.27
760.17	1118.38
760.221	1099.35
760.272	1108.24
760.323	1099.5
760.375	1099.36
760.426	1086.67
760.477	1125.47
760.528	1085.9
760.579	1048.51
760.63	1099.55
760.682	1089.69
760.733	1095.47
760.784	1101.22
760.835	1095.54
760.886	1093.55
760.937	1093.24
760.989	1130.39
761.04	1081.58
761.091	1077.88
761.142	1096.32
761.193	1065.14
761.245	1075.51
761.296	1082.77
761.347	1079.04
761.398	1086.13
761.449	1086.67
761.5	1090.8
761.552	1078.66
761.603	1078.51
761.654	1066.68
761.705	1078.03
761.756	1060.5
761.807	1089.15
761.859	1070.51
761.91	1085.95
761.961	1078.06
762.012	1074.02
762.063	1071.87
762.114	1072.37
762.165	1085.5
762.217	1062.96
762.268	1046.24
762.319	1075.1
762.37	1059.71
762.421	1036.34
762.472	1103.46
762.524	1037.79
762.575	1054.39
762.626	1031.17
762.677	1049.11
762.728	1042.66
762.779	1006.79
762.831	1058.37
762.882	1058.82
762.933	1048.67
762.984	1031.05
763.035	1040.39
763.086	1018.98
763.137	1040.56
763.189	1038.49
763.24	1050.73
763.291	1047.11
763.342	1047.06
763.393	1049.34
763.444	1009.67
763.495	1056.71
763.547	1034.15
763.598	1019.14
763.649	1035.94
763.7	1053.27
763.751	1016.49
763.802	1001.53
763.853	1025.53
763.905	1017.42
763.956	1010.18
764.007	1024.71
764.058	1033.41
764.109	1013.97
764.16	1005.54
764.211	1037.46
764.263	1018.51
764.314	1012.96
764.365	1018.74
764.416	1013.32
764.467	1016.02
764.518	1015.47
764.569	1007.49
764.621	1017.11
764.672	1022.86
764.723	1012.74
764.774	1007.23
764.825	980.769
764.876	1010.6
764.927	1012.77
764.978	1024.95
765.03	980.757
765.081	988.577
765.132	1004.07
765.183	1004.67
765.234	1020.91
765.285	974.951
765.336	987.583
765.387	992.818
765.439	994.528
765.49	989.23
765.541	985.619
765.592	972.034
765.643	1003.25
765.694	985.423
765.745	980.361
765.796	985.356
765.848	980.062
765.899	982.225
765.95	990.937
766.001	973.847
766.052	963.834
766.103	1009.92
766.154	973.679
766.205	991.971
766.256	1005.29
766.308	986.954
766.359	973.523
766.41	974.793
766.461	970.707
766.512	951.528
766.563	971.474
766.614	937.653
766.665	971.001
766.716	954.089
766.768	973.135
766.819	968.299
766.87	957.744
766.921	953.782
766.972	969.861
767.023	951.339
767.074	958.275
767.125	940.898
767.176	945.679
767.227	956.714
767.279	953.924
767.33	943.399
767.381	964.766
767.432	941.802
767.483	946.187
767.534	942.278
767.585	932.945
767.636	946.779
767.687	939.441
767.739	955.314
767.79	941.035
767.841	936.542
767.892	937.275
767.943	941.637
767.994	932.434
768.045	936.678
768.096	940.912
768.147	945.63
768.198	937.462
768.249	930.868
768.301	931.132
768.352	914.953
768.403	913.79
768.454	929.766
768.505	927.875
768.556	948.996
768.607	923.912
768.658	905.31
768.709	917.183
768.76	911.601
768.811	913.275
768.862	895.303
768.914	898.007
768.965	913.947
769.016	916.546
769.067	928.019
769.118	913.533
769.169	889.552
769.22	914.975
769.271	904.011
769.322	890.689
769.373	898.619
769.424	900.6
769.475	888.92
769.526	891.399
769.578	895.562
769.629	896.511
769.68	923.026
769.731	887.006
769.782	898.274
769.833	895.224
769.884	908.521
769.935	873.772
769.986	874.659
770.037	880.808
770.088	877.301
770.139	889.678
770.19	882.539
770.242	891.343
770.293	868.803
770.344	857.646
770.395	883.943
770.446	886.224
770.497	872.643
770.548	887.823
770.599	868.534
770.65	893.81
770.701	883.007
770.752	883.054
770.803	859.778
770.854	870.981
770.905	869.128
770.956	868.696
771.007	856.193
771.058	855.087
771.11	871.775
771.161	856.493
771.212	850.027
771.263	850.945
771.314	866.963
771.365	859.886
771.416	855.237
771.467	837.314
771.518	856.314
771.569	862.033
771.62	850.42
771.671	837.966
771.722	851.359
771.773	852.699
771.824	848.765
771.875	857.528
771.926	818.239
771.977	826.028
772.028	861.206
772.079	835.742
772.131	846.238
772.182	858.764
772.233	825.482
772.284	841.004
772.335	836.357
772.386	849.638
772.437	845.928
772.488	818.817
772.539	837.005
772.59	826.549
772.641	814.366
772.692	824.728
772.743	835.449
772.794	839.288
772.845	823.417
772.896	821.393
772.947	819.388
772.998	820.479
773.049	815.105
773.1	825.009
773.151	811.621
773.202	821.668
773.253	821.961
773.304	803.406
773.355	824.11
773.406	816.755
773.457	797.277
773.508	798.623
773.56	800.547
773.611	798.789
773.662	800.855
773.713	780.635
773.764	805.26
773.815	802.56
773.866	795.717
773.917	811.557
773.968	794.402
774.019	806.628
774.07	796.386
774.121	801.027
774.172	818.687
774.223	802.003
774.274	793.744
774.325	784.912
774.376	774.376
774.427	787.316
774.478	782.231
774.529	801.926
774.58	782.203
774.631	791.856
774.682	783.959
774.733	777.249
774.784	766.69
774.835	774.713
774.886	775.745
774.937	775.609
774.988	764.917
775.039	778.953
775.09	775.033
775.141	770.355
775.192	756.859
775.243	791.281
775.294	745.422
775.345	764.726
775.396	776.227
775.447	775.327
775.498	768.118
775.549	752.625
775.6	750.698
775.651	769.532
775.702	770.652
775.753	776.35
775.804	773.363
775.855	756.594
775.906	753.464
775.957	773.002
776.008	765.857
776.059	759.097
776.11	754.895
776.161	754.638
776.212	762.699
776.263	752.753
776.314	755.093
776.365	762.857
776.416	764.783
776.467	756.675
776.518	743.485
776.569	747.904
776.62	755.977
776.671	753.147
776.722	727.068
776.773	735.789
776.824	735.468
776.875	739.533
776.926	745.716
776.977	727.842
777.028	738.327
777.079	734.121
777.13	727.825
777.181	733.914
777.232	745.051
777.283	750.736
777.334	749.047
777.385	739.231
777.436	748.614
777.487	736.874
777.538	716.412
777.589	709.74
777.64	728.947
777.691	729.196
777.742	732.242
777.793	721.138
777.844	720.978
777.895	715.976
777.946	708.435
777.997	712.091
778.047	702.304
778.098	697.445
778.149	706.059
778.2	698.908
778.251	703.188
778.302	701.578
778.353	708.922
778.404	715.988
778.455	720.862
778.506	711.751
778.557	719.431
778.608	708.322
778.659	703.253
778.71	700.801
778.761	703.883
778.812	706.393
778.863	710.011
778.914	701.971
778.965	699.613
779.016	689.358
779.067	684.279
779.118	679.981
779.169	696.295
779.22	694.497
779.271	684.111
779.322	684
779.373	687.92
779.424	697.545
779.474	688.492
779.525	675.595
779.576	676.889
779.627	681.209
779.678	678.828
779.729	686.966
779.78	694.815
779.831	687.793
779.882	674.777
779.933	686.04
779.984	677.372
780.035	666.971
780.086	685.89
780.137	683.391
780.188	684.968
780.239	685.869
780.29	689.778
780.341	681.303
780.392	676.348
780.442	677.917
780.493	671.114
780.544	659.574
780.595	667.247
780.646	665.209
780.697	668.254
780.748	667.58
780.799	669.824
780.85	665.214
780.901	673.101
780.952	671.013
781.003	674.67
781.054	660.548
781.105	667.268
781.156	670.22
781.207	653.804
781.257	655.42
781.308	671.112
781.359	650.145
781.41	654.065
781.461	667.331
781.512	650.428
781.563	644.174
781.614	651.944
781.665	662.457
781.716	664.907
781.767	661.861
781.818	660.281
781.869	637.078
781.919	640.187
781.97	647.684
782.021	654.336
782.072	647.273
782.123	643.156
782.174	639.445
782.225	639.166
782.276	648.24
782.327	645.363
782.378	652.328
782.429	623.777
782.48	623.74
782.531	620.027
782.581	620.266
782.632	644.274
782.683	650.838
782.734	624.724
782.785	620.093
782.836	624.292
782.887	643.7
782.938	609.58
782.989	607.583
783.04	644.187
783.091	637.43
783.141	624.693
783.192	637.708
783.243	637.139
783.294	644.792
783.345	621.636
783.396	627.507
783.447	621.739
783.498	621.742
783.549	627.332
783.6	623.072
783.651	621.309
783.701	623.479
783.752	605.312
783.803	599.434
783.854	599.677
783.905	614.574
783.956	605.791
784.007	598.863
784.058	611.664
784.1	610
784.151	603.996
784.202	591.982
784.253	615.926
784.304	615.851
784.355	597.907
784.406	591.995
784.458	574.063
784.509	615.388
784.56	613.34
784.611	568.065
784.662	590.212
784.713	611.74
784.764	603.706
784.815	591.928
784.866	620.807
784.917	578.914
784.968	595.429
785.019	588.596
785.07	604.312
785.121	598.104
785.172	591.54
785.223	597.291
785.274	581.289
785.326	597.574
785.377	556.62
785.428	574.822
785.479	573.092
785.53	597.231
785.581	609.422
785.632	571.676
785.683	570.803
785.734	593.866
785.785	572.881
785.836	580.584
785.887	584.489
785.938	578.777
785.989	589.637
786.04	586.806
786.091	546.202
786.142	591.125
786.193	590.104
786.244	571.625
786.295	593.591
786.346	587.151
786.397	566.642
786.448	563.384
786.5	567.703
786.551	579.683
786.602	572.168
786.653	568.225
786.704	538.12
786.755	568.221
786.806	554.212
786.857	564.037
786.908	552.294
786.959	567.106
787.01	557.619
787.061	562.886
787.112	562.499
787.163	574.325
787.214	553.218
787.265	573.117
787.316	550.489
787.367	564.505
787.418	562.482
787.469	551.744
787.52	570.898
787.571	549.148
787.622	564.518
787.673	545.36
787.724	536.832
787.775	560.922
787.826	521.997
787.877	542.839
787.928	557.372
787.979	548.459
788.03	531.988
788.081	553.035
788.132	523.298
788.183	534.764
788.234	534.74
788.285	542.064
788.336	537.653
788.387	511.947
788.438	523.337
788.49	531.092
788.541	551.764
788.591	528.448
788.643	537.955
788.694	536.801
788.745	553.353
788.796	535.905
788.847	526.584
788.898	528.171
788.949	529.795
789	542.633
789.051	534.009
789.102	545.075
789.153	514.906
789.204	531.633
789.255	530.506
789.306	520.759
789.357	537.013
789.408	525.801
789.459	523.595
789.51	531.871
789.561	540.122
789.612	536.274
789.663	502.41
789.714	506.475
789.765	516.072
789.816	520.712
789.867	509.411
789.918	499.613
789.969	515.689
790.02	515.534
790.071	506.736
790.122	516.398
790.173	517.471
790.224	526.931
790.275	503.866
790.326	530.253
790.377	502.662
790.428	500.564
790.479	509.1
790.53	503.371
790.581	514.654
790.632	500.158
790.682	517.87
790.734	487.957
790.784	513.946
790.836	482.511
790.886	499.866
790.937	511.636
790.988	489.579
791.039	490.975
791.09	491.127
791.141	490.563
791.192	491.373
791.243	494.27
791.294	504.829
791.345	490.59
791.396	518.587
791.447	497.884
791.498	489.388
791.549	504.797
791.6	488.369
791.651	488.438
791.702	493.089
791.753	475.454
791.804	490.151
791.855	488.078
791.906	496.197
791.957	485.632
792.008	493.267
792.059	469.303
792.11	491.092
792.161	482.624
792.212	492.577
792.263	483.852
792.314	479.215
792.365	481.748
792.416	468.285
792.467	475.505
792.518	485.485
792.569	467.523
792.62	478.03
792.671	485.625
792.722	475.446
792.773	493.446
792.823	480.099
792.874	487.315
792.925	471.879
792.976	484.709
793.027	483.023
793.078	469.549
793.129	477.202
793.18	473.454
793.231	476.387
793.282	484.047
793.333	481.409
793.384	463.385
793.435	464.429
793.486	466.797
793.537	472.805
793.588	469.214
793.639	449.81
793.69	457.105
793.741	467.294
793.792	450.704
793.843	466.361
793.894	465.35
793.945	453.432
793.995	459.14
794.046	449.856
794.097	461.597
794.148	462.08
794.199	448.124
794.25	456.367
794.301	451.291
794.352	464.501
794.403	440.1
794.454	439.019
794.505	450.257
794.556	448.181
794.607	441.254
794.658	454.284
794.709	435.254
794.76	448.894
794.811	455.079
794.862	448.752
794.912	441.632
794.963	440.276
795.014	447.727
795.065	452.293
795.116	450.313
795.167	455.751
795.218	442.66
795.269	437.544
795.32	433.732
795.371	432.127
795.422	440.487
795.473	434.06
795.524	439.93
795.575	431.518
795.625	441.169
795.676	435.113
795.727	433.239
795.778	438.409
795.829	434.826
795.88	443.751
795.931	432.072
795.982	443.904
796.033	429.419
796.084	435.146
796.135	439.164
796.186	435.886
796.237	435.406
796.287	437.559
796.338	433.378
796.389	430.093
796.44	429.415
796.491	412.319
796.542	419.612
796.593	429.195
796.644	421.67
796.695	411.599
796.746	413.831
796.797	418.686
796.848	428.93
796.898	427.922
796.949	416.889
797	428.739
797.051	422.402
797.102	438.029
797.153	409.462
797.204	410.763
797.255	413.128
797.306	424.75
797.357	419.294
797.408	417.216
797.458	413.35
797.509	409.93
797.56	405.353
797.611	408.033
797.662	402.25
797.713	420.209
797.764	410.883
797.815	407.507
797.866	400.512
797.917	403.007
797.968	398.19
798.018	406.031
798.069	404.94
798.12	412.186
798.171	405.354
798.222	421.115
798.273	409.568
798.324	388.968
798.375	408.515
798.426	402.531
798.477	407.509
798.527	402.805
798.578	405.797
798.629	402.167
798.68	402.048
798.731	397.202
798.782	398.364
798.833	390.748
798.884	396.99
798.935	394.17
798.985	396.02
799.036	394.124
799.087	396.54
799.138	399.268
799.189	393.657
799.24	398.115
799.291	385.618
799.342	394.382
799.393	397.529
799.443	381.477
799.494	386.209
799.545	386.77
799.596	376.606
799.647	389.488
799.698	391.309
799.749	386.262
799.8	398.662
799.85	384.033
799.901	379.883
799.952	389.161
800.003	400.048
800.054	391.96
800.105	391.846
800.156	394.315
800.207	385.249
800.257	396.138
800.308	389.087
800.359	386.168
800.41	397.503
800.461	389.413
800.512	395.299
800.563	382.586
800.613	377.22
800.664	364
800.715	377.476
800.766	378.888
800.817	377.643
800.868	377.421
800.919	374.207
800.97	373.681
801.02	374.097
801.071	371.922
801.122	374.545
801.173	378.256
801.224	389.899
801.275	371.949
801.326	362.699
801.376	368.685
801.427	370.649
801.478	362.799
801.529	370.376
801.58	368.774
801.631	372.012
801.682	365.779
801.732	362.804
801.783	370.336
801.834	366.152
801.885	360.581
801.936	367.995
801.987	358.066
802.038	366.881
802.088	365.604
802.139	352.713
802.19	353.67
802.241	365.366
802.292	364.009
802.343	354.607
802.393	353.786
802.444	335.112
802.495	359.155
802.546	357.401
802.597	352.237
802.648	370.43
802.698	353.806
802.749	348.125
802.8	361.901
802.851	361.709
802.902	358.903
802.953	354.356
803.004	345.958
803.054	360.775
803.105	362.658
803.156	349.165
803.207	352.38
803.258	346.418
803.309	353.48
803.359	339.707
803.41	353.056
803.461	351.299
803.512	358.599
803.563	360.569
803.614	345.303
803.664	354.165
803.715	342.52
803.766	348.458
803.817	344.237
803.868	353.388
803.919	334.595
803.969	351.255
804.02	346.89
804.071	346.253
804.122	331.238
804.173	342.002
804.223	352.328
804.274	345.495
804.325	324.602
804.376	354.639
804.427	349.77
804.478	333.377
804.528	343.407
804.579	333.722
804.63	334.444
804.681	353.14
804.732	334.351
804.782	328.826
804.833	346.583
804.884	325.799
804.935	349.684
804.986	320.13
805.036	340.295
805.087	325.576
805.138	338.536
805.189	323.704
805.24	332.016
805.291	337.874
805.341	328.063
805.392	346.965
805.443	330.247
805.494	330.181
805.545	335.641
805.595	326.542
805.646	320.041
805.697	338.799
805.748	332.608
805.799	331.544
805.849	319.663
805.9	317.942
805.951	326.585
806.002	337.361
806.053	322.774
806.103	330.406
806.154	322.973
806.205	328.707
806.256	330.751
806.307	329.977
806.357	314.34
806.408	322.475
806.459	324.848
806.51	315.033
806.561	323.004
806.611	313.144
806.662	323.128
806.713	318.457
806.764	306.747
806.815	333.823
806.865	329.002
806.916	330.243
806.967	330.304
807.018	329.062
807.068	310.216
807.119	327.76
807.17	306.928
807.221	312.847
807.272	328.207
807.322	307.449
807.373	303.706
807.424	313.339
807.475	308.943
807.526	303.873
807.576	308.644
807.627	318.076
807.678	316.004
807.729	306.35
807.779	298.377
807.83	312.093
807.881	311.87
807.932	302.2
807.982	316.945
808.033	303.481
808.084	317.496
808.135	306.82
808.186	283.186
808.236	308.554
808.287	303.931
808.338	303.503
808.389	310.067
808.439	311.738
808.49	305.215
808.541	305.179
808.592	311.73
808.643	316.337
808.693	306.618
808.744	313.563
808.795	310.846
808.846	305.319
808.896	314.863
808.947	303.853
808.998	305.218
809.049	299.781
809.099	304.525
809.15	299.068
809.201	308.231
809.252	300.308
809.302	291.751
809.353	287.485
809.404	299.882
809.455	306.917
809.505	302.608
809.556	309.19
809.607	300.624
809.658	299.523
809.708	309.895
809.759	298.118
809.81	296.545
809.861	306.647
809.911	300.882
809.962	297.246
810.013	296.725
810.064	289.579
810.114	297.579
810.133	304
810.183	294
810.234	288.016
810.285	284.022
810.336	285.995
810.387	315.887
810.438	282.098
810.489	290.05
810.54	295.765
810.591	299.634
810.642	282.078
810.693	278.053
810.743	291.65
810.794	292.173
810.845	284.145
810.896	294.053
810.947	285.973
810.998	291.546
811.049	287.804
811.1	270.378
811.151	287.284
811.202	289.848
811.253	276.429
811.303	286.344
811.354	295.131
811.405	280.957
811.456	291.379
811.507	287.714
811.558	279.289
811.609	280.573
811.66	287.033
811.711	277.959
811.762	283.377
811.813	281.087
811.863	289.184
811.914	293.031
811.965	276.228
812.016	281.957
812.067	279.653
812.118	287.227
812.169	281.029
812.22	277.128
812.271	272.111
812.321	284.642
812.372	265.057
812.423	273.547
812.474	260.637
812.525	270.707
812.576	285.636
812.627	279.942
812.678	285.985
812.729	281.262
812.779	281.441
812.83	259.9
812.881	280.174
812.932	276.646
812.983	281.109
813.034	274.253
813.085	284.115
813.136	288.223
813.187	274.855
813.237	282.659
813.288	269.04
813.339	279.87
813.39	267.266
813.441	259.255
813.492	278.07
813.543	270.926
813.594	262.677
813.644	255.375
813.695	260.747
813.746	260.165
813.797	280.376
813.848	266.826
813.899	266.262
813.95	277.679
814.001	257.494
814.051	257.449
814.102	272.927
814.153	272.364
814.204	268.232
814.255	257.34
814.306	259.87
814.357	261.483
814.408	255.794
814.458	261.523
814.509	251.454
814.56	262.606
814.611	263.29
814.662	253.524
814.713	268.214
814.764	264.235
814.814	266.175
814.865	252.738
814.916	269.165
814.967	256.622
815.018	248.386
815.069	245.419
815.12	259.11
815.17	261.031
815.221	252.386
815.272	259.029
815.323	268.061
815.374	267.432
815.425	246.204
815.476	249.426
815.526	260.352
815.577	251.854
815.628	256.021
815.679	250.625
815.73	272.351
815.781	254.913
815.832	252.541
815.882	256.362
815.933	259.495
815.984	250.995
816.035	250.512
816.086	260.056
816.137	250.826
816.188	245.212
816.238	256.753
816.289	246.42
816.34	258.273
816.391	245.378
816.442	241.578
816.493	246.64
816.543	239.165
816.594	246.35
816.645	239.133
816.696	254.013
816.747	244.066
816.798	249.65
816.848	253.916
816.899	248.992
816.95	258.891
817.001	234.337
817.052	248.831
817.103	236.419
817.153	237.097
817.204	240.659
817.255	236.702
817.306	247.821
817.357	239.01
817.408	252.08
817.458	236.627
817.509	247.719
817.56	246.819
817.611	233.273
817.662	245.158
817.713	241.439
817.763	242.09
817.814	240.962
817.865	246.633
817.916	252.32
817.967	244.705
818.018	237.925
818.068	236.954
818.119	254.053
818.17	234.162
818.221	238.581
818.272	234.963
818.323	251.429
818.373	234.744
818.424	231.044
818.475	225.088
818.526	233.28
818.577	238.099
818.627	242.983
818.678	227.953
818.729	232.202
818.78	244.252
818.831	239.923
818.881	233.531
818.932	232.856
818.983	230.873
819.034	239.34
819.085	227.542
819.135	232.487
819.186	230.749
819.237	235.884
819.288	235.326
819.339	234.252
819.39	233.516
819.44	232.303
819.491	227.768
819.542	241.565
819.593	238.371
819.644	226.54
819.694	236.355
819.745	233.597
819.796	225.638
819.847	225.773
819.898	234.035
819.948	232.648
819.999	220.085
820.05	227.121
820.101	220.311
820.152	231.394
820.202	232.557
820.253	230.891
820.304	222.884
820.355	228.25
820.406	224.071
820.456	215.251
820.507	230.962
820.558	235.027
820.609	226.343
820.66	217.323
820.71	229.268
820.761	228.395
820.812	220.883
820.863	214.659
820.914	217.764
820.964	216.785
821.015	226.064
821.066	229.211
821.117	221.161
821.167	220.409
821.218	212.639
821.269	226.203
821.32	217.566
821.371	209.544
821.421	218.335
821.472	213.852
821.523	212.261
821.574	214.03
821.624	216.645
821.675	212.595
821.726	214.917
821.777	224.205
821.828	209.989
821.878	215.701
821.929	214.739
821.98	222.817
822.031	209.863
822.081	211.653
822.132	216.096
822.183	214.859
822.234	214.974
822.285	208.996
822.335	207.269
822.386	212.378
822.437	211.765
822.488	211.781
822.538	220.585
822.589	226.453
822.64	216.472
822.691	210.804
822.741	213.666
822.792	210.376
822.843	211.717
822.894	207.859
822.945	210.138
822.995	211.324
823.046	200.122
823.097	211.295
823.148	211.926
823.198	216.802
823.249	209.295
823.3	209.865
823.351	213.086
823.401	209.001
823.452	216.751
823.503	201.156
823.554	209.932
823.604	199.099
823.655	214.207
823.706	209.013
823.757	207.865
823.807	208.348
823.858	197.796
823.909	207.656
823.96	202.722
824.01	211.806
824.061	208.71
824.112	194.774
824.163	209.922
824.213	207.787
824.264	194.095
824.315	198.517
824.366	205.675
824.416	198.682
824.467	209.817
824.518	202.066
824.569	208.291
824.619	189.416
824.67	198.037
824.721	203.638
824.772	198.194
824.822	195.416
824.873	208.809
824.924	196.456
824.974	200.863
825.025	196.828
825.076	198.233
825.127	196.892
825.177	206.447
825.228	197.237
825.279	200.448
825.33	202.043
825.38	206.719
825.431	189.142
825.482	205.409
825.533	191.796
825.583	194.208
825.634	196.984
825.685	196.046
825.735	202.495
825.786	199.169
825.837	193.522
825.888	201.46
825.938	198.876
825.989	188.763
826.04	193.781
826.091	201.043
826.141	193.537
826.192	194.566
826.243	186.561
826.293	194.968
826.344	198.466
826.395	198.231
826.446	194.014
826.496	191.971
826.547	192.343
826.598	193.967
826.648	197.068
826.699	188.766
826.75	193.539
826.801	199.056
826.851	201.368
826.902	195.553
826.953	198.46
827.003	194.512
827.054	188.446
827.105	192.963
827.156	191.415
827.206	193.043
827.257	184.716
827.308	184.696
827.358	185.963
827.409	185.264
827.46	191.865
827.511	189.835
827.561	194.384
827.612	188.925
827.663	183.011
827.713	185.761
827.764	182.852
827.815	181.795
827.865	183.646
827.916	186.133
827.967	186.454
828.018	186.513
828.068	184.088
828.119	194.446
828.17	191.469
828.22	187.794
828.271	193.186
828.322	187.348
828.372	192.01
828.423	189.225
828.474	189.256
828.525	186.482
828.575	183.014
828.626	178.427
828.677	186.745
828.727	178.071
828.778	180.088
828.829	176.156
828.879	193.616
828.93	195.562
828.981	183.321
829.031	187.86
829.082	183.434
829.133	184.317
829.183	186.645
829.234	184.565
829.285	180.732
829.336	179.263
829.386	176.136
829.437	176.431
829.488	173.883
829.538	176.912
829.589	184.314
829.64	188.778
829.69	186.619
829.741	181.516
829.792	183.991
829.842	181.372
829.893	182.396
829.944	177.216
829.994	180.168
830.045	187.514
830.096	183.945
830.146	175.206
830.197	173.079
830.248	176.132
830.298	183.818
830.349	182.656
830.4	174.566
830.45	178.014
830.501	178.09
830.552	177.192
830.602	168.265
830.653	176.003
830.704	180.841
830.754	167.79
830.805	168.608
830.856	166.647
830.906	170.166
830.957	180.25
831.008	178.397
831.058	169.09
831.109	166.975
831.16	169.173
831.21	165.244
831.261	172.163
831.312	176
831.362	169.795
831.413	172.114
831.464	175.229
831.514	170.518
831.565	167.216
831.616	173.417
831.666	174.137
831.717	175.113
831.767	177.374
831.818	165.637
831.869	163.501
831.919	178.327
831.97	175.828
832.021	174.069
832.071	165.083
832.122	167.321
832.173	171.1
832.223	172.728
832.274	167.237
832.325	167.075
832.375	172.37
832.426	170.824
832.477	169.535
832.527	170.881
832.578	172.276
832.628	168.919
832.679	161.706
832.73	163.078
832.78	166.468
832.831	169.237
832.882	175.744
832.932	170.359
832.983	165.273
833.034	162.798
833.084	170.123
833.135	177.862
833.185	166.727
833.236	163.799
833.287	170.516
833.337	169.575
833.388	164.362
833.439	165.352
833.489	158.685
833.54	172.736
833.59	173.807
833.641	164.193
833.692	167.829
833.742	163.85
833.793	170.364
833.844	167.051
833.894	161.531
833.945	163.071
833.995	165.264
834.046	161.35
834.097	164.031
834.147	160.884
834.198	154.869
834.249	168.316
834.299	163.571
834.35	165.657
834.4	166.625
834.451	158.433
834.502	154.841
834.552	162.764
834.603	171.796
834.653	172.147
834.704	157.935
834.755	164.436
834.805	158.345
834.856	151.259
834.906	147.989
834.957	159.978
835.008	165.686
835.058	167.636
835.109	155.998
835.16	161.632
835.21	157.312
835.261	160.283
835.311	157.623
835.362	158.928
835.413	157.085
835.463	170.117
835.514	153.031
835.564	162.811
835.615	148.472
835.666	156.455
835.716	156.102
835.767	150.117
835.817	154.569
835.868	166.734
835.919	157.724
835.969	160.652
836.02	150.969
836.07	161.163
836.121	159.22
836.161	164
836.212	170
836.263	156.01
836.314	156.005
836.365	173.864
836.415	155.929
836.466	161.988
836.517	169.866
836.568	153.922
836.618	163.925
836.669	169.68
836.72	159.926
836.771	152.025
836.821	152
836.872	156.057
836.923	152.253
836.974	150.073
837.024	155.723
837.075	146.05
837.126	161.734
837.177	154.241
837.227	173.247
837.278	165.438
837.329	159.792
837.38	149.861
837.43	159.754
837.481	155.368
837.532	157.831
837.583	154.155
837.633	152.054
837.684	159.387
837.735	163.334
837.786	157.054
837.836	136.396
837.887	156.454
837.938	158.114
837.989	148.146
838.039	150.366
838.09	146.341
838.141	163.249
838.192	150.236
838.242	146.353
838.293	147.707
838.344	153.371
838.395	156.345
838.445	155.445
838.496	153.686
838.547	158.558
838.598	148.087
838.648	133.216
838.699	155.325
838.75	161.431
838.801	142.095
838.851	150.233
838.902	157.371
838.953	151.723
839.003	146.14
839.054	135.013
839.105	154.599
839.156	160.124
839.206	144.229
839.257	161.209
839.308	150.777
839.359	149.436
839.409	152.016
839.46	151.719
839.511	142.702
839.562	159.693
839.612	138.615
839.663	149.051
839.714	155.887
839.764	145.689
839.815	149.311
839.866	151.614
839.917	150.31
839.967	149.943
840.018	152.594
840.069	129.984
840.119	139.433
840.17	147.33
840.221	146.893
840.272	144.31
840.322	145.879
840.373	143.303
840.424	145.089
840.474	146.306
840.525	145.832
840.576	147.548
840.627	145.589
840.677	149.948
840.728	152.565
840.779	151.651
840.829	141.251
840.88	146.625
840.931	151.131
840.982	148.953
841.032	154.72
841.083	143.343
841.134	137.962
841.184	135.802
841.235	138.209
841.286	129.776
841.337	150.973
841.387	144.424
841.438	145.761
841.489	139.238
841.539	143.336
841.59	153.027
841.641	138.695
841.691	142.656
841.742	134.265
841.793	142.908
841.844	144.72
841.894	140.209
841.945	146.901
841.996	133.121
842.046	140.185
842.097	137.74
842.148	141.478
842.198	148.122
842.249	135.037
842.3	145.065
842.351	144.381
842.401	134.476
842.452	139.267
842.503	152.17
842.553	133.844
842.604	124.8
842.655	149.237
842.705	139.583
842.756	148.17
842.807	133.826
842.857	145.489
842.908	145.943
842.959	154.139
843.009	128.329
843.06	134.888
843.111	136.939
843.161	136.229
843.212	133.614
843.263	132.481
843.314	143.689
843.364	138.991
843.415	132.783
843.466	136.984
843.516	137.066
843.567	130.471
843.618	133.651
843.668	138.1
843.719	133.732
843.77	140.381
843.82	139.659
843.871	128.085
843.922	140.543
843.972	129.982
844.023	133.568
844.074	133.808
844.124	139.774
844.175	141.937
844.226	137.384
844.276	136.675
844.327	130.577
844.378	135.603
844.428	134.183
844.479	136.413
844.53	132.116
844.58	134.22
844.631	133.615
844.682	130.265
844.732	136.259
844.783	131.523
844.834	132.873
844.884	139.783
844.935	131.388
844.986	135.952
845.036	128.966
845.087	129.538
845.138	127.691
845.188	126.605
845.239	130.127
845.29	130.775
845.34	135.554
845.391	135.8
845.442	134.503
845.492	132.094
845.543	130.564
845.594	133.061
845.644	138.988
845.695	133.407
845.745	133.732
845.796	126.445
845.847	129.921
845.897	129.412
845.948	129.25
845.999	131.158
846.049	130.807
846.1	127.8
846.151	128.761
846.201	130.511
846.252	123.678
846.303	128.186
846.353	128.596
846.404	126.967
846.455	130.724
846.505	135.045
846.556	130.262
846.606	129.776
846.657	129.196
846.708	115.736
846.758	128.751
846.809	133.31
846.86	134.15
846.91	126.824
846.961	127.508
847.012	129.336
847.062	132.952
847.113	134.249
847.163	127.471
847.214	126.232
847.265	124.47
847.315	126.539
847.366	122.124
847.417	123.726
847.467	131.829
847.518	123.298
847.568	134.501
847.619	126.789
847.67	117.117
847.72	118.764
847.771	123.819
847.822	132.212
847.872	125.905
847.923	127.623
847.973	129.904
848.024	124.546
848.075	117.572
848.125	134.503
848.176	128.884
848.227	129.664
848.277	123.539
848.328	134.24
848.378	131.149
848.429	122.017
848.48	111.869
848.53	122
848.581	122.094
848.631	124.316
848.682	119.37
848.733	129.914
848.783	131.381
848.834	111.345
848.885	123.423
848.935	120.828
848.986	120.082
849.036	123.561
849.087	129.022
849.138	118.117
849.188	124.236
849.239	124.796
849.289	119.094
849.34	126.733
849.391	114.317
849.441	122.871
849.492	113.076
849.542	121.131
849.593	127.883
849.644	119.068
849.694	119.089
849.745	119.093
849.795	116.308
849.846	118.892
849.897	113.967
849.947	123.844
849.998	116.955
850.048	120.032
850.099	122.558
850.15	124.151
850.2	122.777
850.251	109.256
850.301	121.295
850.352	118.636
850.403	118.297
850.453	114.09
850.504	120.098
850.554	125.229
850.605	114.605
850.656	112.49
850.706	116.883
850.757	124.304
850.807	115.896
850.858	112.052
850.908	116.309
850.959	123.452
851.01	110.097
851.06	119.595
851.111	113.077
851.161	116.779
851.212	110.923
851.263	117.665
851.313	118.481
851.364	119.014
851.414	110.88
851.465	110.384
851.515	113.387
851.566	112.368
851.617	107.527
851.667	112.843
851.718	113.196
851.768	110.251
851.819	111.315
851.869	112.806
851.92	115.862
851.971	111.004
852.021	113.219
852.072	110.973
852.122	110.602
852.173	120.892
852.223	122.14
852.274	111.805
852.325	117.825
852.375	107.806
852.426	114.566
852.476	111.232
852.527	114.484
852.577	113.003
852.628	109.341
852.678	110.315
852.729	109.609
852.78	120.916
852.83	108.495
852.881	120.498
852.931	116.329
852.982	112.237
853.032	115.862
853.083	114.921
853.133	119.054
853.184	108.85
853.235	112.485
853.285	112.364
853.336	112.567
853.386	113.577
853.437	114.205
853.487	107.998
853.538	110.38
853.588	108.491
853.639	113.135
853.69	117.624
853.74	123.019
853.791	113.668
853.841	111.291
853.892	109.604
853.942	109.896
853.993	103.829
854.043	103.503
854.094	111.154
854.144	114.719
854.195	111.456
854.246	110.804
854.296	108.794
854.347	106.967
854.397	103.791
854.448	113.921
854.498	119.479
854.549	115.909
854.599	116.532
854.65	109.369
854.7	103.296
854.751	108.299
854.801	102.34
854.852	101.753
854.902	109.974
854.953	113.459
855.004	111.783
855.054	108.423
855.105	105.433
855.155	112.479
855.206	106.528
855.256	103.838
855.307	106.841
855.357	104.459
855.408	107.439
855.458	109.543
855.509	113.296
855.559	115.534
855.61	112.103
855.66	110.388
855.711	112.132
855.761	108.581
855.812	110.787
855.862	106.829
855.913	101.638
855.964	107.942
856.014	105.4
856.065	103.748
856.115	107.264
856.166	108.506
856.216	113.506
856.267	106.836
856.317	105.369
856.368	102.767
856.418	104.639
856.469	108.102
856.519	110.85
856.57	106.866
856.62	106.787
856.671	100.343
856.721	101.802
856.772	104.284
856.822	102.385
856.873	108.066
856.923	112.796
856.974	110.245
857.024	101.269
857.075	97.1687
857.125	100.739
857.176	100.598
857.226	109.104
857.277	110.401
857.327	110.731
857.378	110.863
857.428	108.653
857.479	108.457
857.529	109.996
857.58	105.015
857.63	104.662
857.681	107.793
857.731	104.486
857.782	107.641
857.832	106.567
857.883	101.474
857.933	105.911
857.984	109.188
858.034	108.495
858.085	104.91
858.135	102.614
858.186	101.203
858.236	97.5159
858.287	100.736
858.337	103.166
858.388	97.1021
858.438	96.9836
858.489	104.947
858.539	102.187
858.589	101.424
858.64	103.934
858.69	102.578
858.741	101.98
858.791	99.9915
858.842	106.026
858.892	98.7784
858.943	100.36
858.993	102.662
859.044	99.1528
859.094	105.092
859.145	106.566
859.195	101.152
859.246	95.2489
859.296	98.9223
859.347	104.78
859.397	99.5812
859.448	98.1364
859.498	96.6523
859.549	99.6893
859.599	98.9195
859.649	94.8594
859.7	100.145
859.75	105.614
859.801	105.714
859.851	99.1237
859.902	101.356
859.952	99.9731
860.003	101.366
860.053	97.0001
860.104	99.135
860.154	106.474
860.205	100.158
860.255	95.8571
860.305	98.0432
860.356	102.606
860.406	98.6965
860.457	103.178
860.507	101.809
860.558	93.2718
860.608	96
860.659	97.353
860.709	100.561
860.76	102.035
860.81	99.3554
860.861	96.5633
860.911	104.887
860.961	94.7948
861.012	102.316
861.062	93.05
861.113	103.772
861.163	95.7449
861.214	97.9801
861.264	95.9137
861.315	103.692
861.365	94.0544
861.415	100.963
861.466	102.855
861.516	99.4407
861.567	97.8767
861.617	98.0372
861.668	99.2525
861.718	102.521
861.769	99.8548
861.819	101.94
861.869	90.1961
861.92	97.5944
861.97	97.6028
862.021	103.165
862.071	99.5882
862.112	97.998
862.162	91.9969
862.213	94.0076
862.263	101.952
862.314	97.9145
862.365	103.86
862.415	96.0217
862.466	92.0989
862.516	107.794
862.567	105.665
862.618	91.9606
862.668	95.8738
862.719	88.088
862.77	107.569
862.82	88.1574
862.871	92.1924
862.921	105.693
862.972	86.2729
863.023	88.3428
863.073	95.9753
863.124	101.647
863.174	103.533
863.225	88.1754
863.276	97.8816
863.326	97.621
863.377	103.174
863.427	90
863.478	82.3093
863.529	91.9132
863.579	93.7462
863.63	97.4823
863.68	101.185
863.731	102.997
863.782	99.6292
863.832	89.8876
863.883	96.9762
863.933	89.9425
863.984	93.7765
864.034	88.3864
864.085	101.86
864.136	110.385
864.186	94.9562
864.237	86.5108
864.287	96.1696
864.338	101.037
864.389	106.319
864.439	93.909
864.49	99.5367
864.54	99.5293
864.591	91.81
864.642	88.3857
864.692	101.398
864.743	95.2059
864.793	96.5239
864.844	93.2611
864.894	98.6911
864.945	94.61
864.996	87.3914
865.046	90.213
865.097	95.5528
865.147	89.8916
865.198	95.1506
865.248	90
865.299	98.6505
865.35	93.5842
865.4	93.7726
865.451	90.3444
865.501	96.6966
865.552	90.3639
865.603	83.8468
865.653	95.1797
865.704	95.3246
865.754	90.9459
865.805	84.4524
865.855	96.6212
865.906	99.6729
865.956	94.8947
866.007	93.3505
866.058	88.7758
866.108	95.2698
866.159	81.7496
866.209	96.1555
866.26	86.5163
866.31	96.1177
866.361	90.5542
866.412	93.0269
866.462	83.7945
866.513	88.9766
866.563	103.989
866.614	90.8226
866.664	88.5492
866.715	88.6452
866.766	92.8843
866.816	87.5341
866.867	96.1579
866.917	93.4498
866.968	93.7724
867.018	89.2754
867.069	85.5222
867.119	92.3035
867.17	89.6491
867.22	88.9548
867.271	87.8648
867.322	87.6189
867.372	92.6381
867.423	83.378
867.473	87.4512
867.524	84.9127
867.574	77.4207
867.625	81.6811
867.675	91.8756
867.726	88.0933
867.776	85.1619
867.827	86.5863
867.878	100.61
867.928	90.7815
867.979	85.1729
868.029	82.3533
868.08	92.5461
868.13	86.4793
868.181	92.2949
868.231	86
868.282	82.6951
868.332	88.2039
868.383	90.0585
868.433	86.4133
868.484	87.804
868.535	89.7856
868.585	86.9935
868.636	82.8858
868.686	91.846
868.737	83.2923
868.787	78.4577
868.838	79.686
868.888	91.7787
868.939	85.3484
868.989	82.2436
869.04	83.1935
869.09	90.6784
869.141	86.4326
869.191	85.1907
869.242	78.4432
869.292	87.7657
869.343	89.6457
869.394	86.3099
869.444	84.9803
869.495	84.1141
869.545	92.6758
869.596	85.5517
869.646	85.4459
869.697	84.8061
869.747	84.8187
869.798	79.2965
869.848	88.4164
869.899	89.6067
869.949	91.274
870	82.2718
870.05	77.9367
870.101	90.6373
870.151	84.7563
870.202	88.9686
870.252	75.7778
870.303	86.0712
870.353	84.2762
870.404	82.8237
870.454	85.4708
870.505	82.0136
870.555	82.432
870.606	74.6838
870.656	81.6273
870.707	79.3294
870.757	80.4269
870.808	73.8952
870.858	80.3478
870.909	80.9426
870.959	82.2873
871.01	85.0565
871.06	87.9885
871.111	86.4138
871.161	86.1014
871.212	84.0509
871.262	72.9667
871.313	78.0111
871.363	84.6609
871.414	87.1091
871.464	84.9957
871.515	79.9256
871.565	83.807
871.616	82.5302
871.666	85.1865
871.717	81.9999
871.767	82.3966
871.818	79.5426
871.868	86.4521
871.919	81.7807
871.969	76.3929
872.02	78.2982
872.07	81.9703
872.121	84.8765
872.171	77.9494
872.222	74.0226
872.272	79.6641
872.323	76.7714
872.373	83.3373
872.424	77.1485
872.474	77.9528
872.525	81.1774
872.575	78.3869
872.626	78.0235
872.676	87.6286
872.727	83.5479
872.777	85.5223
872.828	76.021
872.878	85.4728
872.929	85.4912
872.979	77.5403
873.03	80.2753
873.08	82.462
873.13	78.0944
873.181	80.8021
873.231	76.2982
873.282	81.779
873.332	79.097
873.383	70.4465
873.433	78.6663
873.484	78.42
873.534	80.6115
873.585	75.4398
873.635	75.8927
873.686	80.1534
873.736	77.7376
873.787	72.8337
873.837	76.3354
873.888	80.4113
873.938	83.4757
873.988	82.6439
874.039	80.3119
874.089	81.7523
874.14	81.61
874.19	73.4244
874.241	78.1172
874.291	80.0613
874.342	72.6014
874.392	72.6418
874.443	77.4955
874.493	72.75
874.544	76.8897
874.594	72.4926
874.644	78.4235
874.695	83.1365
874.745	73.9333
874.796	73.813
874.846	80.6881
874.897	81.2435
874.947	84
874.998	75.7369
875.048	85.2461
875.099	81.0117
875.149	74.0829
875.199	71.6988
875.25	83.8891
875.3	79.9659
875.351	77.1039
875.401	71.2057
875.452	78.424
875.502	78.1159
875.553	75.3759
875.603	68.0858
875.653	77.096
875.704	76.3042
875.754	71.5785
875.805	75.883
875.855	75.7847
875.906	75.9129
875.956	73.5194
876.006	74.9259
876.057	84.6803
876.107	73.3513
876.158	81.945
876.208	78.4251
876.259	78.3776
876.309	76.647
876.36	77.8536
876.41	72.264
876.46	79.8151
876.511	75.852
876.561	70.5182
876.612	74.0409
876.662	76.3762
876.713	73.7073
876.763	68.1242
876.813	74.6377
876.864	81.4732
876.914	78.2885
876.965	77.5488
877.015	74.1186
877.065	73.9433
877.116	74.8297
877.166	71.8588
877.217	74.2957
877.267	79.3107
877.318	74.7033
877.368	68.2476
877.418	75.3831
877.469	75.1151
877.519	75.5731
877.57	69.9249
877.62	74.8166
877.671	75.9819
877.721	71.7212
877.771	74.4367
877.822	76.8621
877.872	74.0709
877.923	79.5048
877.973	68.4559
878.023	69.0354
878.074	73.2872
878.124	71.0182
878.175	72
878.225	75.0625
878.276	73.7658
878.326	71.5622
878.376	65.1808
878.427	70.885
878.477	77.208
878.528	74.1166
878.578	70.5382
878.628	75.3571
878.679	73.0039
878.729	76.2118
878.78	71.0195
878.83	72.9651
878.88	73.9404
878.931	70.4392
878.981	72.6959
879.031	72
879.082	74.22
879.132	75.5992
879.183	64.6394
879.233	71.7429
879.284	72.2259
879.334	69.8662
879.384	74.0059
879.435	76.3614
879.485	77.1582
879.535	73.1505
879.586	71.9068
879.636	72.1276
879.687	76.761
879.737	75.3521
879.787	70.1974
879.838	74.9562
879.888	69.4573
879.939	73.8655
879.989	73.7639
880.039	78.2101
880.09	73.1406
880.14	67.8187
880.19	67.4247
880.241	70.5984
880.291	73.419
880.342	74.1166
880.392	71.6394
880.442	71.1118
880.493	68.4863
880.543	71.4663
880.594	65.8837
880.644	73.6951
880.694	76.1897
880.745	71.8422
880.795	72.5556
880.845	68.3247
880.896	68.9868
880.946	68.9123
880.996	71.5721
881.047	74.6938
881.097	70.9119
881.148	67.3888
881.198	71.8858
881.248	76
881.299	75.7667
881.349	71.886
881.399	70.2228
881.45	72.4429
881.5	69.3235
881.551	68.0274
881.601	71.8977
881.651	73.0645
881.702	70.2841
881.752	71.4388
881.802	69.2876
881.853	74.593
881.903	72.4698
881.953	61.0063
882.004	66.4918
882.054	71.879
882.104	67.9139
882.155	62.434
882.205	69.4358
882.256	73.3013
882.306	72.0325
882.356	63.7824
882.407	71.0412
882.457	68.7627
882.507	66.4788
882.558	65.4534
882.608	61.5797
882.658	71.0023
882.709	70.1346
882.759	61.4858
882.809	65.8691
882.86	70.195
882.91	69.8231
882.96	66.9265
883.011	63.3526
883.061	69.9623
883.111	66.4426
883.162	62.6323
883.212	68.8811
883.262	69.3138
883.313	68.8429
883.363	65.5153
883.413	64.7192
883.464	71.4368
883.514	68.7316
883.565	59.8697
883.615	66.5889
883.665	70.198
883.716	63.4698
883.766	60.1023
883.816	68.008
883.867	68.7737
883.917	67.2123
883.967	67.1987
884.017	63.5588
884.068	65.6059
884.118	66.8387
884.168	64.3001
884.219	66.0848
884.269	65.7532
884.319	61.8736
884.37	60.8561
884.42	65.96
884.47	69.1285
884.521	64.6926
884.571	66.56
884.621	69.3688
884.672	69.9655
884.722	56.3042
884.772	60.64
884.823	63.9444
884.873	64.751
884.923	59.0055
884.974	61.7308
885.024	72.0986
885.074	71.5163
885.125	70.8439
885.175	61.599
885.225	72.1341
885.276	64.5356
885.326	61.4751
885.376	61.6435
885.426	67.5482
885.477	60.9206
885.527	58.8158
885.577	62.727
885.628	72.8043
885.678	60.0505
885.728	63.0866
885.779	67.4154
885.829	69.1204
885.879	64
885.93	62.9057
885.98	59.372
886.03	63.3413
886.08	65.3449
886.131	62.6608
886.181	63.125
886.231	68.5137
886.282	61.2485
886.332	61.725
886.382	63.8548
886.432	64.3048
886.483	65.5367
886.533	61.6779
886.583	64.706
886.634	61.0002
886.684	67.6347
886.734	59.2209
886.785	62.3275
886.835	63.0568
886.885	67.9866
886.935	63.4664
886.986	51.7465
887.036	60.3232
887.086	66.0566
887.137	67.494
887.187	62.4021
887.237	69.7803
887.287	58.2619
887.338	61.9057
887.388	62.0324
887.438	65.74
887.489	61.7019
887.539	58.1417
887.589	69.7531
887.639	70
887.69	62.1824
887.74	58.0303
887.79	75.5219
887.841	70.164
887.891	56.4121
887.941	67.6005
887.943	67.9763
887.993	62.0214
888.044	58.1561
888.094	63.9809
888.144	70.0049
888.195	73.8028
888.245	75.3831
888.296	63.9098
888.346	62.0225
888.397	73.4209
888.447	67.7473
888.498	63.8915
888.548	54.3016
888.599	63.9209
888.649	63.9563
888.699	61.9541
888.75	58.0969
888.8	65.5889
888.851	62.0062
888.901	55.6091
888.952	57.2157
889.002	61.7371
889.053	62.39
889.103	65.8094
889.153	63.4456
889.204	63.1877
889.254	59.3555
889.305	60.7472
889.355	65.4634
889.406	63.1366
889.456	63.6292
889.507	63.7667
889.557	52.6757
889.607	64.444
889.658	59.5405
889.708	60.7884
889.759	52.6521
889.809	58.38
889.86	65.5963
889.91	59.6652
889.96	61.0732
890.011	67.2946
890.061	65.2715
890.112	63.9671
890.162	56.9615
890.213	63.7796
890.263	57.7014
890.313	58.2887
890.364	55.6635
890.414	65.8778
890.465	57.4141
890.515	56.7325
890.566	55.3234
890.616	57.2334
890.666	60.6611
890.717	57.2681
890.767	63.065
890.818	61.3117
890.868	56.2037
890.919	52.2048
890.969	60.2651
891.019	55.454
891.07	62.3173
891.12	57.1587
891.171	57.3839
891.221	61.9332
891.271	57.0449
891.322	55.6955
891.372	63.7171
891.423	61.5376
891.473	59.5342
891.523	55.9089
891.574	60.2409
891.624	53.4534
891.675	55.7593
891.725	60.7796
891.776	62.5295
891.826	64.6971
891.876	58.2661
891.927	59.3427
891.977	60.7122
892.028	59.7611
892.078	48.3525
892.128	55.1306
892.179	57.701
892.229	57.2355
892.28	58.3741
892.33	61.1167
892.38	64.0333
892.431	55.9138
892.481	57.2407
892.532	54.6879
892.582	54.3936
892.632	58.5164
892.683	53.3525
892.733	57.9615
892.784	61.0071
892.834	62.8723
892.884	63.2421
892.935	59.4026
892.985	63.4893
893.036	59.9374
893.086	56.7988
893.136	53.792
893.187	63.5664
893.237	59.0764
893.288	47.3145
893.338	52.9983
893.388	56.8165
893.439	54.9501
893.489	55.6469
893.539	57.1992
893.59	56.2663
893.64	54.5137
893.691	55.0415
893.741	55.0612
893.791	62.1988
893.842	57.9442
893.892	57.9425
893.943	56.0845
893.993	57.9336
894.043	54.0109
894.094	53.9783
894.144	54.0048
894.194	60.0036
894.245	57.9928
894.295	54.0145
894.346	52.0169
894.396	59.9034
894.446	60.0435
894.497	53.0362
894.547	54.0435
894.597	60.8792
894.648	58.9468
894.698	54.2114
894.749	57.8696
894.799	58.9638
894.849	49.1196
894.9	60.8696
894.95	52.0918
895	56.1486
895.051	53.104
895.101	52.6667
895.151	55.1184
895.202	59.7536
895.252	50.3913
895.303	57.4493
895.353	55.4994
895.403	58.6256
895.454	57.314
895.504	57.5894
895.554	54.4232
895.605	61.6522
895.655	54.1812
895.706	54.1884
895.756	56.0967
895.806	54.7995
895.857	51.3116
895.907	54.2551
895.957	57.1099
896.008	57.3406
896.058	50.3482
896.108	50.6413
896.159	57
896.209	61.4976
896.259	51.0338
896.31	56.2092
896.36	57.2705
896.41	59.7243
896.461	53.4275
896.511	56.4155
896.561	49.4873
896.612	57.6304
896.662	51.7739
896.713	57.3671
896.763	56.8392
896.813	53.1643
896.864	55.1681
896.914	56
896.964	56.3482
897.015	55.4674
897.065	54.3603
897.115	56.2609
897.166	54.7497
897.216	56.8609
897.266	52.7391
897.317	49.6058
897.367	58.5966
897.417	56.6094
897.468	46.8609
897.518	55.1087
897.568	57.2128
897.619	53.6493
897.669	53
897.719	53.555
897.77	48.1306
897.82	51.8527
897.87	54.2999
897.921	57
897.971	57.4783
898.021	56.4861
898.072	50.2455
898.122	55.4982
898.172	60.2331
898.223	52.7944
898.273	55.4474
898.323	49.6239
898.374	54.4111
898.424	53.5386
898.474	49.1838
898.524	49.7243
898.575	56
898.625	54.7183
898.675	54.4317
898.726	49.0145
898.776	51.7077
898.826	53.295
898.877	47.7013
898.927	55.0967
898.977	53.6953
899.028	51.8501
899.078	45.3785
899.128	51
899.179	56.7279
899.229	53
899.279	53.3241
899.33	54.9831
899.38	56.3434
899.43	52.0024
899.48	49.6505
899.531	55
899.581	49.6892
899.631	48.347
899.682	56.5973
899.732	54.7086
899.782	53.5683
899.833	54.5308
899.883	48.364
899.933	52.162
899.984	53.7409
