#Acq. time (s)=	5
#Accumulations=	2
#Range (nm)=	520...900
#Windows=	8
#Auto scanning=	Off
#Autofocus=	Off
#AutoExposure=	Off
#Spike filter=	Multiple accum.
#Delay time (s)=	0
#Binning=	1
#Readout mode=	Signal
#DeNoise=	Off
#ICS correction=	On
#Dark correction=	Off
#Inst. Process=	Off
#Detector temperature (°C)=	-59.98
#Instrument=	LabRAM HR Evol
#Detector=	Syncerity OE
#Objective=	x50_VIS
#Grating=	600 (500nm)
#ND Filter=	10%
#Laser=	514nm_Edge
#Hole=	199.981
#Range=	Auto
#StageXY=	Marzhauser
#StageZ=	Marzhauser
#X (µm)=	15179.1
#Y (µm)=	-995.7
#Z (µm)=	-19.1
#Full time(mm:ss)=	2:04
#Project=	
#Sample=	
#Site=	
#Title=	PL_M4_011123
#Remark=	
#Date=	11.11.2023 11:46
#Acquired=	11.11.2023 11:46:49
520.044	41.4395
520.097	32.3593
520.149	35.8769
520.201	35.8025
520.254	28.5865
520.306	42.8047
520.359	37.3982
520.411	40.9122
520.464	28.4386
520.516	30.2054
520.569	40.8685
520.621	37.3308
520.674	44.474
520.726	35.613
520.778	40.9989
520.831	41.0437
520.883	30.367
520.936	39.3288
520.988	28.6181
521.041	33.9937
521.093	28.6289
521.146	32.206
521.198	33.9909
521.25	42.9278
521.303	37.5515
521.355	41.1104
521.408	39.298
521.46	35.6942
521.513	28.5243
521.565	33.8318
521.617	39.127
521.67	35.5323
521.722	31.9516
521.775	31.931
521.827	35.4621
521.88	37.2218
521.932	38.9837
521.984	33.6624
522.037	37.2065
522.089	35.4446
522.142	33.6921
522.194	31.947
522.247	33.7587
522.299	35.5773
522.352	32.0559
522.404	39.2189
522.456	33.8999
522.509	37.4958
522.561	32.1607
522.614	33.9689
522.666	32.2006
522.719	32.2179
522.771	34.0217
522.823	41.1929
522.876	41.1908
522.928	39.3855
522.981	35.779
523.033	33.952
523.086	42.8222
523.138	39.1822
523.19	37.3265
523.243	40.8004
523.295	35.416
523.348	40.6711
523.4	38.8634
523.453	37.0706
523.505	44.1066
523.557	31.7376
523.61	31.714
523.662	38.7279
523.715	38.6947
523.767	43.9427
523.82	31.6305
523.872	33.3955
523.924	35.1782
523.977	38.7377
524.029	38.7874
524.082	30.0122
524.134	35.3542
524.186	47.7866
524.239	33.6668
524.291	35.4794
524.344	33.7443
524.396	33.7834
524.449	37.382
524.501	42.7681
524.553	30.323
524.606	35.7026
524.658	39.2964
524.711	35.737
524.763	35.7401
524.815	48.2393
524.868	28.5721
524.92	32.1197
524.973	32.0903
525.025	40.9638
525.078	32.0284
525.13	33.7805
525.182	37.3136
525.235	39.0753
525.287	31.9648
525.34	33.7395
525.392	42.6203
525.444	42.6225
525.497	42.6225
525.549	37.2918
525.602	42.6133
525.654	40.8321
525.706	40.8307
525.759	40.838
525.811	40.8579
525.864	40.8924
525.916	39.1611
525.969	39.2184
526.021	37.4962
526.073	42.9235
526.126	46.5742
526.178	37.6726
526.231	44.9084
526.283	41.3667
526.335	41.4155
526.388	46.8697
526.44	46.9174
526.493	36.1222
526.545	34.3405
526.597	39.7832
526.65	47.031
526.702	45.2267
526.755	37.9868
526.807	43.4011
526.859	37.9586
526.912	36.1294
526.964	39.7154
527.017	37.8842
527.069	46.8753
527.121	46.8524
527.174	36.028
527.226	39.6221
527.279	41.4165
527.331	41.4095
527.383	35.9997
527.436	37.7873
527.488	37.7716
527.54	46.7432
527.593	37.7364
527.645	41.3125
527.698	41.2975
527.75	35.9016
527.802	28.7176
527.855	44.8731
527.907	39.4977
527.96	37.7193
528.012	39.5407
528.064	43.1695
528.117	39.6074
528.169	39.6453
528.222	37.8817
528.274	43.3408
528.326	45.2016
528.379	47.0736
528.431	39.891
528.484	43.5852
528.536	38.195
528.588	47.3542
528.641	47.4098
528.693	41.9798
528.745	40.1867
528.798	42.0437
528.85	38.4144
528.903	36.6097
528.955	49.4518
529.007	45.8062
529.06	42.1451
529.112	43.9655
529.164	45.7706
529.217	51.2223
529.269	49.3499
529.322	34.6984
529.374	38.3209
529.426	45.5852
529.479	38.2593
529.531	50.962
529.584	43.6316
529.636	43.5778
529.688	30.8309
529.741	45.2936
529.793	43.4491
529.845	36.1899
529.898	41.6063
529.95	37.9806
530.003	45.2052
530.055	47.0002
530.107	37.9488
530.16	37.9359
530.212	37.9261
530.264	45.1457
530.317	36.1207
530.369	43.3603
530.422	39.7706
530.474	43.4212
530.526	41.6531
530.579	39.8874
530.631	27.2303
530.683	39.993
530.736	47.3359
530.788	38.2953
530.841	47.4948
530.893	43.9173
530.945	40.3233
530.998	36.7095
531.05	33.0755
531.102	45.9756
531.155	44.1621
531.207	42.342
531.259	40.5217
531.312	49.7639
531.364	38.7379
531.417	36.9298
531.469	42.5133
531.521	38.854
531.574	40.7368
531.626	46.3189
531.678	42.6308
531.731	38.9359
531.783	44.5122
531.835	42.6748
531.888	35.2718
531.94	50.1552
531.992	44.6132
532.045	35.3421
532.097	40.945
532.15	48.4097
532.202	40.9745
532.254	48.4371
532.307	46.5889
532.359	42.8814
532.411	41.0437
532.464	33.6095
532.516	39.2495
532.568	44.9025
532.621	41.1998
532.673	44.9802
532.726	37.5036
532.778	50.6437
532.83	41.2673
532.883	45.0144
532.935	45.0073
532.987	45.0008
533.04	44.9966
533.092	37.4951
533.144	48.7409
533.197	46.8617
533.249	48.7284
533.301	52.4665
533.354	37.4695
533.406	46.8323
533.458	43.0861
533.511	39.3428
533.563	48.7139
533.615	46.8385
533.668	48.7003
533.72	37.444
533.773	52.3873
533.825	50.4797
533.877	46.7083
533.93	42.9464
533.982	48.5237
534.034	46.6334
534.087	44.7389
534.139	46.5615
534.191	42.7877
534.244	52.021
534.296	38.9643
534.348	51.8932
534.401	42.5915
534.453	48.1254
534.505	44.4187
534.558	38.8714
534.61	44.4351
534.662	50.0024
534.715	46.3093
534.767	48.173
534.819	42.6274
534.872	46.3544
534.924	48.2386
534.976	53.8473
535.029	44.6035
535.081	55.8044
535.133	50.2629
535.186	52.1536
535.238	57.7597
535.29	52.176
535.343	50.3133
535.395	52.1791
535.447	52.1888
535.5	52.2088
535.552	50.3729
535.604	50.4075
535.657	42.9707
535.709	50.4788
535.761	43.0286
535.814	52.4171
535.866	46.8351
535.918	48.7496
535.971	48.7956
536.023	58.2342
536.075	48.8798
536.128	54.544
536.18	41.3772
536.232	43.2357
536.285	54.4647
536.337	48.776
536.389	54.3456
536.442	50.556
536.494	50.5329
536.546	43.0421
536.599	54.2771
536.651	44.9253
536.703	50.5383
536.755	54.2605
536.808	48.6089
536.86	56.0242
536.912	55.9513
536.965	57.7433
537.017	53.9611
537.069	52.0541
537.122	53.8676
537.174	57.5294
537.226	51.907
537.279	53.6962
537.331	53.6278
537.383	55.4088
537.436	53.5049
537.488	44.2439
537.54	55.2748
537.593	58.9398
537.645	55.2422
537.697	55.2263
537.75	55.2026
537.802	69.8806
537.854	60.6394
537.906	66.097
537.959	62.3758
538.011	73.3372
538.063	64.1454
538.116	60.4738
538.168	69.648
538.22	71.5075
538.273	67.874
538.325	60.5678
538.377	73.4498
538.43	71.6394
538.482	66.1447
538.534	66.1541
538.586	66.1602
538.639	69.8425
538.691	60.6619
538.743	58.8374
538.796	57.0169
538.848	60.7179
538.9	62.5812
538.953	57.0768
539.005	60.7701
539.057	57.0874
539.109	47.8712
539.162	58.8983
539.214	55.1923
539.266	57.0043
539.319	55.1402
539.371	62.4688
539.423	55.1043
539.476	62.4399
539.528	56.9235
539.58	45.9017
539.633	53.2404
539.685	53.2333
539.737	58.7295
539.789	51.3764
539.842	45.8587
539.894	58.6798
539.946	58.6585
539.999	51.3067
540.051	45.7922
540.103	60.4238
540.155	62.2347
540.208	49.4086
540.26	51.2298
540.312	65.8647
540.365	51.2359
540.417	47.5937
540.469	45.7895
540.521	58.653
540.574	56.8634
540.626	51.3949
540.678	53.2556
540.731	62.4519
540.783	55.1062
540.835	40.4088
540.888	55.1024
540.94	58.7851
540.992	56.9691
541.044	55.1616
541.097	55.1967
541.149	55.2314
541.201	58.946
541.254	51.6015
541.306	49.7781
541.358	47.9515
541.41	57.1914
541.463	55.3615
541.515	49.834
541.567	47.9912
541.62	59.0641
541.672	51.6787
541.724	49.8352
541.776	55.3846
541.829	60.949
541.881	59.1362
541.933	55.474
541.985	57.3515
542.038	53.6646
542.09	62.9126
542.142	55.4889
542.195	64.6931
542.247	60.9429
542.299	62.7286
542.351	46.0787
542.404	60.7675
542.456	57.0361
542.508	49.6394
542.56	53.2823
542.613	58.7631
542.665	60.5732
542.717	49.5422
542.77	47.692
542.822	58.6789
542.874	58.6577
542.926	54.9686
542.979	54.9421
543.031	65.8958
543.083	54.8838
543.135	51.1999
543.188	58.4923
543.24	65.791
543.292	62.1384
543.344	56.6725
543.397	51.2154
543.449	62.2335
543.501	54.9524
543.554	62.3192
543.606	49.5093
543.658	67.8543
543.71	55.0078
543.763	56.8204
543.815	62.292
543.867	60.4378
543.919	60.4264
543.972	54.9344
544.024	60.4406
544.076	54.9642
544.128	58.6505
544.181	60.506
544.233	51.3567
544.285	55.0441
544.337	67.9119
544.39	67.9366
544.442	58.7767
544.494	60.6322
544.547	53.2958
544.599	53.3049
544.651	58.8258
544.703	66.1841
544.755	58.8337
544.808	62.5128
544.86	58.8344
544.912	62.5056
544.965	58.8185
545.017	62.4804
545.069	64.3035
545.121	64.2925
545.174	62.4492
545.226	62.4443
545.278	67.9434
545.33	66.0836
545.383	60.5379
545.435	65.9805
545.487	67.7386
545.539	67.6637
545.591	65.7741
545.644	51.126
545.696	63.8881
545.748	65.7072
545.8	69.3531
545.853	65.6887
545.905	58.3619
545.957	80.1875
546.009	63.7264
546.062	70.9407
546.114	56.3391
546.166	67.1945
546.218	76.2301
546.271	67.1212
546.323	65.275
546.375	70.6776
546.427	70.6394
546.48	74.2244
546.532	65.1468
546.584	77.796
546.636	77.7921
546.689	68.7546
546.741	77.8201
546.793	86.8968
546.845	81.4953
546.898	77.9028
546.95	79.7439
547.002	74.3311
547.054	83.4165
547.106	67.1043
547.159	68.917
547.211	83.4136
547.263	74.3294
547.315	77.9352
547.368	68.8589
547.42	81.5361
547.472	77.9168
547.524	72.4958
547.577	65.2672
547.629	77.987
547.681	76.1994
547.733	74.4032
547.785	68.9683
547.838	85.3069
547.89	78.0471
547.942	67.1579
547.994	81.6846
548.047	87.1434
548.099	85.3461
548.151	78.1003
548.203	76.2974
548.255	70.8521
548.308	76.2958
548.36	74.4616
548.412	85.3277
548.464	83.4761
548.517	76.1832
548.569	81.5916
548.621	76.1275
548.673	83.3601
548.725	77.9166
548.778	68.8582
548.83	81.5508
548.882	83.3723
548.934	72.5
548.987	68.8652
549.039	72.4611
549.091	85.0844
549.143	77.7719
549.195	79.4973
549.248	81.2205
549.3	86.5602
549.352	70.2869
549.404	79.2688
549.456	68.4446
549.509	91.8403
549.561	88.2075
549.613	80.9602
549.665	88.0877
549.718	80.8256
549.77	84.3475
549.822	80.7056
549.874	77.0873
549.926	82.4501
549.979	80.6524
550.031	84.2301
550.083	84.2114
550.135	85.9651
550.187	84.1171
550.24	82.2559
550.292	82.1764
550.344	92.8074
550.396	85.6002
550.448	80.2067
550.501	90.8799
550.553	101.578
550.605	89.1282
550.657	96.2908
550.709	94.5296
550.762	80.2612
550.814	94.504
550.866	89.1102
550.918	89.056
550.97	94.3448
551.023	83.6261
551.075	96.0503
551.127	88.9133
551.179	101.333
551.231	103.07
551.284	104.793
551.336	108.282
551.388	101.129
551.44	104.643
551.492	118.821
551.545	117.064
551.597	124.19
551.649	124.22
551.701	118.909
551.753	131.323
551.806	140.165
551.858	154.315
551.91	161.373
551.962	171.994
552.014	177.319
552.067	198.623
552.119	228.81
552.171	244.812
552.223	294.524
552.275	370.874
552.327	520.056
552.38	955.267
552.432	1977.22
552.484	3755.82
552.536	6679.69
552.588	10853.7
552.641	16366.2
552.693	16061.8
552.745	9070.59
552.797	4106.01
552.849	1676.14
552.901	740.001
552.954	454.119
553.006	344.07
553.058	280.214
553.11	234.123
553.162	202.233
553.215	180.999
553.267	165.098
553.319	161.633
553.371	151.066
553.423	138.705
553.475	140.547
553.528	121.006
553.58	115.662
553.632	126.296
553.684	120.893
553.736	122.592
553.788	108.316
553.841	115.375
553.893	117.138
553.945	113.608
553.997	118.974
554.049	115.47
554.102	99.5169
554.154	119.091
554.206	90.6575
554.258	106.651
554.31	111.972
554.362	106.626
554.414	103.055
554.467	111.915
554.519	101.227
554.571	111.841
554.623	108.246
554.675	102.884
554.727	122.36
554.78	101.059
554.832	113.453
554.884	88.6186
554.936	102.768
554.988	99.1808
555.04	99.1247
555.093	109.676
555.145	116.68
555.197	107.781
555.249	102.43
555.301	111.206
555.353	102.324
555.406	114.594
555.458	102.165
555.51	100.303
555.562	107.226
555.614	96.5775
555.666	99.9948
555.719	96.4128
555.771	105.121
555.823	115.596
555.875	105.073
555.927	84.0545
555.979	113.819
556.031	103.297
556.084	103.264
556.136	110.209
556.188	106.642
556.24	101.33
556.292	106.513
556.344	108.224
556.396	104.726
556.449	116.963
556.501	99.5345
556.553	101.308
556.605	110.059
556.657	115.297
556.709	108.29
556.762	113.498
556.814	120.447
556.866	108.202
556.918	102.951
556.97	108.184
557.022	109.941
557.074	111.714
557.127	92.5489
557.179	97.8371
557.231	122.369
557.283	127.695
557.335	108.521
557.387	110.335
557.439	119.154
557.492	119.21
557.544	115.757
557.596	121.077
557.648	114.117
557.7	101.886
557.752	110.738
557.804	114.328
557.856	121.443
557.909	116.237
557.961	109.258
558.013	100.506
558.065	112.916
558.117	123.579
558.169	121.894
558.221	120.206
558.273	118.504
558.326	116.776
558.378	109.703
558.43	122.052
558.482	125.521
558.534	118.372
558.586	109.481
558.638	112.987
558.691	111.234
558.743	130.704
558.795	127.229
558.847	121.972
558.899	121.986
558.951	113.126
559.003	116.608
559.055	111.237
559.108	130.562
559.16	121.641
559.212	116.248
559.264	109.093
559.316	133.576
559.368	117.615
559.42	120.98
559.472	117.347
559.525	118.998
559.577	124.174
559.629	115.383
559.681	110.098
559.733	125.767
559.785	109.967
559.837	122.061
559.889	120.166
559.941	126.958
559.994	121.575
560.046	124.896
560.098	124.765
560.15	133.304
560.202	124.532
560.254	120.945
560.306	132.872
560.358	118.892
560.41	139.342
560.463	123.657
560.515	108.035
560.567	119.88
560.619	135.14
560.671	124.75
560.723	131.455
560.775	122.788
560.827	141.384
560.879	129.307
560.932	132.563
560.984	129.046
561.036	139.139
561.088	130.595
561.14	118.681
561.192	132.194
561.244	132.128
561.296	118.5
561.348	128.564
561.4	126.788
561.453	119.971
561.505	126.707
561.557	125.032
561.609	126.761
561.661	130.189
561.713	125.153
561.765	121.787
561.817	137.011
561.869	130.238
561.921	140.384
561.974	128.554
562.026	133.653
562.078	135.375
562.13	138.785
562.182	137.104
562.234	140.487
562.286	138.787
562.338	143.866
562.39	143.889
562.442	145.634
562.494	140.627
562.547	135.627
562.599	142.496
562.651	149.362
562.703	139.24
562.755	137.591
562.807	139.334
562.859	135.98
562.911	146.232
562.963	139.487
563.015	142.951
563.067	156.633
563.12	139.665
563.172	149.938
563.224	146.572
563.276	151.716
563.328	153.436
563.38	143.207
563.432	151.719
563.484	148.289
563.536	153.379
563.588	134.611
563.64	158.439
563.692	160.109
563.744	151.546
563.797	168.497
563.849	158.195
563.901	161.499
563.953	161.41
564.005	161.345
564.057	163.009
564.109	168.097
564.161	173.198
564.213	159.614
564.265	166.379
564.317	161.222
564.369	164.511
564.421	157.598
564.474	176.075
564.526	170.832
564.578	163.905
564.63	162.051
564.682	151.757
564.734	149.889
564.786	166.512
564.838	161.248
564.89	164.393
564.942	152.476
564.994	175.769
565.046	158.911
565.098	163.825
565.15	157.036
565.202	163.591
565.255	148.422
565.307	166.568
565.359	156.363
565.411	172.752
565.463	155.925
565.515	175.604
565.567	157.199
565.619	157.04
565.671	151.947
565.723	153.479
565.775	155.02
565.827	168.101
565.879	158.107
565.931	156.348
565.983	162.801
566.035	174.159
566.087	160.864
566.139	178.751
566.192	168.758
566.244	171.892
566.296	155.406
566.348	161.837
566.4	158.459
566.452	164.874
566.504	163.112
566.556	176.013
566.608	162.837
566.66	161.079
566.712	173.974
566.764	167.377
566.816	173.808
566.868	183.51
566.92	165.63
566.972	185.12
567.024	167.279
567.076	172.186
567.128	157.602
567.18	165.761
567.232	169.04
567.285	182.062
567.337	172.322
567.389	170.71
567.441	175.614
567.493	178.912
567.545	180.602
567.597	182.304
567.649	179.122
567.701	180.815
567.753	184.126
567.805	171.132
567.857	174.436
567.909	174.491
567.961	176.193
568.013	186.069
568.065	179.627
568.117	174.875
568.169	176.686
568.221	181.503
568.273	179.936
568.325	183.721
568.377	187.545
568.429	184.569
568.481	187.107
568.533	193.282
568.585	188.213
568.637	178.909
568.69	187.502
568.742	187.094
568.794	194.821
568.846	184.965
568.898	191.288
568.95	190.122
569.002	196.504
569.054	201.886
569.106	194.256
569.158	191.295
569.21	187.184
569.262	190.52
569.314	196.296
569.366	191.929
569.418	203.355
569.47	192.195
569.522	192.406
569.574	202.747
569.626	189.002
569.678	199.073
569.73	198.58
569.782	209.129
569.834	199.936
569.886	194.81
569.938	193.405
569.99	211.359
570.042	202.288
570.094	200.991
570.146	208.449
570.198	213.584
570.25	212.446
570.302	204.17
570.354	205.66
570.406	212.938
570.458	217.747
570.51	213.107
570.562	212.453
570.614	211.918
570.666	213.132
570.718	218.555
570.77	217.285
570.822	226.77
570.874	209.08
570.926	219.718
570.978	215.117
571.03	221.565
571.082	229.46
571.134	222.486
571.186	222.958
571.238	225.624
571.29	224.924
571.342	223.272
571.394	236.354
571.446	229.731
571.498	242.363
571.55	232.732
571.602	235.529
571.654	240.838
571.706	240.325
571.758	249.508
571.81	255.348
571.862	247.392
571.914	254.687
571.966	249.815
572.018	246.885
572.07	263.233
572.122	264.631
572.174	248.331
572.226	255.661
572.278	266.429
572.33	264.368
572.382	265.708
572.434	266.368
572.486	275.302
572.538	281.43
572.59	283.825
572.642	286.938
572.694	288.881
572.746	300.825
572.798	287.305
572.85	298.996
572.902	291.931
572.954	303.216
573.006	321.487
573.058	316.886
573.11	316.163
573.162	313.638
573.214	308.106
573.266	307.242
573.312	313.868
573.364	338.599
573.416	326.236
573.469	327.797
573.521	357.2
573.573	337.124
573.625	357.242
573.677	358.771
573.73	389.626
573.782	358.583
573.834	370.787
573.886	367.538
573.938	387.502
573.991	382.862
574.043	392.24
574.095	384.737
574.147	391.19
574.199	392.98
574.252	413.237
574.304	402.378
574.356	420.742
574.408	412.664
574.46	438.511
574.513	438.127
574.565	464.034
574.617	432.971
574.669	432.774
574.721	435.661
574.774	433.91
574.826	452.128
574.878	459.55
574.93	445.459
574.982	437.541
575.035	474.146
575.087	464.714
575.139	455.29
575.191	476.516
575.243	487.003
575.296	451.57
575.348	475.861
575.4	478.731
575.452	493.819
575.504	472.182
575.556	465.794
575.609	483.797
575.661	492.627
575.713	495.399
575.765	487.592
575.817	466.171
575.87	473.76
575.922	466.118
575.974	470.61
576.026	450.652
576.078	453.453
576.131	450.116
576.183	460.458
576.235	464.753
576.287	460.002
576.339	468.979
576.391	447.65
576.444	456.69
576.496	446.001
576.548	456.527
576.6	418.496
576.652	439.573
576.705	451.515
576.757	439.19
576.809	437.457
576.861	411.516
576.913	411.315
576.965	435.317
577.018	418.528
577.07	418.392
577.122	407.71
577.174	404.602
577.226	406.039
577.279	393.906
577.331	392.35
577.383	398.346
577.435	383.22
577.487	401.28
577.539	393.677
577.592	390.577
577.644	388.957
577.696	369.226
577.748	394.685
577.8	397.531
577.852	383.826
577.905	383.69
577.957	374.546
578.009	360.906
578.061	357.798
578.113	369.712
578.165	366.582
578.218	355.933
578.27	363.303
578.322	357.161
578.374	369.023
578.426	368.873
578.478	352.217
578.531	361.015
578.583	351.803
578.635	362.018
578.687	358.737
578.739	371.874
578.791	353.646
578.844	348.867
578.896	360.485
578.948	348.27
579	361.354
579.052	332.806
579.104	348.829
579.157	344.042
579.209	355.535
579.261	337.379
579.313	351.751
579.365	335.067
579.417	361.167
579.47	328.32
579.522	348.523
579.574	339.351
579.626	352.269
579.678	322.689
579.73	329.834
579.782	358.967
579.835	342.663
579.887	323.42
579.939	349.496
579.991	324.353
580.043	348.86
580.095	351.445
580.148	338.019
580.2	346.491
580.252	341.898
580.304	341.706
580.356	328.449
580.408	355.876
580.46	338.258
580.513	326.455
580.565	320.47
580.617	314.511
580.669	340.461
580.721	337.461
580.773	337.385
580.826	351.801
580.878	334.372
580.93	350.234
580.982	335.704
581.034	347.223
581.086	337.047
581.138	354.36
581.191	352.871
581.243	344.156
581.295	355.696
581.347	345.57
581.399	352.825
581.451	357.219
581.503	348.609
581.556	363.132
581.608	353.023
581.66	355.886
581.712	335.569
581.764	345.622
581.816	365.826
581.868	357.167
581.92	357.244
581.973	357.355
582.025	348.772
582.077	370.53
582.129	351.688
582.181	363.169
582.233	361.586
582.285	360.008
582.338	346.907
582.39	368.555
582.442	325.215
582.494	359.959
582.546	351.341
582.598	368.724
582.65	365.822
582.703	358.538
582.755	361.337
582.807	375.676
582.859	385.675
582.911	363.922
582.963	360.978
583.015	378.275
583.067	373.927
583.12	378.231
583.172	372.4
583.224	383.846
583.276	373.611
583.328	395.087
583.38	381.95
583.432	364.507
583.484	358.596
583.537	381.452
583.589	399.911
583.641	372.266
583.693	380.495
583.745	378.618
583.797	378.177
583.849	387.8
583.901	371.753
583.953	388.68
584.006	374.233
584.058	392.658
584.11	388.2
584.162	397.936
584.214	386.186
584.266	405.69
584.318	388.124
584.37	387.624
584.423	389.981
584.475	400.88
584.527	386.345
584.579	394.516
584.631	391.414
584.683	405.285
584.735	393.738
584.787	410.401
584.839	400.238
584.892	401.327
584.944	385.5
584.996	417.466
585.048	388.97
585.1	415.239
585.152	428.867
585.204	425.714
585.256	426.823
585.308	405.609
585.361	413.816
585.413	419.239
585.465	416.269
585.517	417.465
585.569	406.07
585.621	415.592
585.673	425.112
585.725	422.125
585.777	408.067
585.83	414.983
585.882	406.659
585.934	456.899
585.986	420.813
586.038	429.313
586.09	401.541
586.142	430.888
586.194	408.592
586.246	444.826
586.298	444.792
586.351	461.519
586.403	439.266
586.455	439.4
586.507	434.019
586.559	413.306
586.611	428.877
586.663	444.401
586.715	436.084
586.767	434.671
586.819	444.388
586.872	454.101
586.924	449.886
586.976	442.952
587.028	434.692
587.08	440.461
587.132	457.44
587.184	431.026
587.236	452.139
587.288	435.4
587.34	439.612
587.392	431.195
587.445	433.973
587.497	453.556
587.549	439.551
587.601	450.743
587.653	432.523
587.705	450.67
587.757	453.39
587.809	440.7
587.861	457.389
587.913	448.915
587.965	454.457
588.018	462.824
588.07	450.235
588.122	450.226
588.174	451.584
588.226	464.071
588.278	447.137
588.33	445.511
588.382	456.39
588.434	458.85
588.486	455.725
588.538	459.591
588.59	450.965
588.642	442.391
588.695	464.448
588.747	443.408
588.799	450.164
588.851	469.389
588.903	459.418
588.955	471.622
589.007	468.532
589.059	464.023
589.111	445.633
589.163	476.994
589.215	469.564
589.267	473.153
589.319	472.602
589.372	476.228
589.424	466.175
589.476	479.589
589.528	472.465
589.58	462.646
589.632	462.441
589.684	466.312
589.736	472.857
589.788	460.152
589.84	466.578
589.892	482.546
589.944	475.288
589.996	483.108
590.048	467.803
590.101	458.034
590.153	446.952
590.205	459.042
590.257	449.311
590.309	472.205
590.361	451.513
590.413	460.738
590.465	469.989
590.517	469.819
590.569	452.099
590.621	450.761
590.673	456.26
590.725	473.984
590.777	457.711
590.829	450.865
590.881	461.577
590.933	462.691
590.986	433.906
591.038	441.719
591.09	461.726
591.142	438.462
591.194	428.827
591.246	455.795
591.298	447.656
591.35	467.943
591.402	444.937
591.454	452.997
591.506	448.84
591.558	451.412
591.61	433.711
591.662	456.561
591.714	438.915
591.766	437.503
591.818	438.803
591.87	436.051
591.923	437.342
591.975	429.186
592.027	425.089
592.079	442.601
592.131	438.537
592.183	422.334
592.235	433.105
592.287	435.755
592.339	450.518
592.391	434.244
592.443	447.645
592.495	446.241
592.547	428.699
592.599	442.201
592.651	434.157
592.703	449.038
592.755	426.147
592.807	445.034
592.859	409.951
592.911	450.358
592.963	432.763
593.015	424.592
593.068	415.057
593.12	423.02
593.172	436.34
593.224	437.511
593.276	421.172
593.328	447.878
593.38	436.917
593.432	424.624
593.484	428.467
593.536	447.085
593.588	446.918
593.64	449.461
593.692	425.214
593.744	443.932
593.796	449.27
593.848	427.803
593.9	411.694
593.952	433.103
594.004	442.396
594.056	435.555
594.108	450.118
594.16	432.515
594.212	424.302
594.264	421.464
594.316	434.698
594.368	427.883
594.42	437.117
594.472	440.998
594.524	431.512
594.576	436.722
594.628	433.921
594.68	423.116
594.732	434.996
594.784	450.846
594.837	454.638
594.889	434.379
594.941	451.372
594.993	453.668
595.045	454.636
595.097	441.045
595.149	450.133
595.201	436.762
595.253	448.719
595.305	447.471
595.357	443.589
595.409	451.634
595.461	446.336
595.513	466.203
595.565	443.509
595.617	455.31
595.669	460.472
595.721	457.707
595.773	465.612
595.825	464.287
595.877	468.281
595.929	454.989
595.981	461.514
596.033	459.983
596.085	461.011
596.137	459.321
596.189	470.827
596.241	461.172
596.293	468.722
596.345	457.827
596.397	450.943
596.449	462.559
596.501	459.724
596.553	466.163
596.605	462.128
596.657	459.465
596.709	475.268
596.761	489.765
596.813	470.012
596.865	484.456
596.917	481.756
596.969	481.677
597.021	480.293
597.073	457.882
597.125	455.228
597.177	461.782
597.229	452.522
597.281	469.522
597.333	439.131
597.385	465.247
597.437	461.134
597.489	466.262
597.541	446.507
597.593	457.028
597.645	447.898
597.697	462.421
597.749	459.834
597.801	441.417
597.853	466.279
597.905	462.185
597.957	463.328
598.009	468.442
598.061	455.261
598.113	472.35
598.165	460.653
598.217	460.806
598.269	472.77
598.321	472.866
598.373	465.006
598.425	468.904
598.477	476.714
598.529	454.335
598.581	464.832
598.633	464.878
598.685	468.897
598.737	462.407
598.789	475.59
598.841	467.713
598.893	462.444
598.945	475.59
598.997	471.726
599.049	461.387
599.101	468.231
599.153	473.83
599.205	466.273
599.257	462.613
599.309	470.735
599.361	443.157
599.413	495.959
599.465	480.13
599.517	473.525
599.569	464.304
599.62	461.715
599.672	455.213
599.724	483.066
599.776	463.441
599.828	472.879
599.88	461.179
599.932	462.661
599.984	472.028
600.036	457.534
600.088	498.523
600.14	476.007
600.192	472.007
600.244	487.877
600.296	474.716
600.348	465.575
600.4	461.756
600.452	467.2
600.504	477.907
600.556	479.286
600.608	485.887
600.66	487.126
600.712	514.79
600.764	476.281
600.816	480.142
600.868	466.857
600.92	474.788
600.972	472.187
601.024	457.708
601.076	492.18
601.128	488.265
601.18	485.648
601.232	459.188
601.284	481.671
601.335	473.696
601.387	467.013
601.439	476.157
601.491	478.623
601.543	473.088
601.595	468.818
601.647	468.466
601.699	481.277
601.751	474.299
601.803	462.076
601.855	472.252
601.907	483.75
601.959	483.439
602.011	470.039
602.063	464.574
602.115	468.341
602.167	464.263
602.219	475.911
602.271	474.391
602.323	485.874
602.375	476.289
602.427	467.931
602.478	488.258
602.53	482.459
602.582	468.917
602.634	476.319
602.686	482.511
602.738	484.881
602.79	484.698
602.842	455.943
602.894	466.139
602.946	458.111
602.998	470.8
603.05	483.437
603.102	466.253
603.154	481.456
603.206	474.673
603.258	466.636
603.31	467.678
603.362	470.024
603.413	493.02
603.465	479.864
603.517	477.028
603.569	478.063
603.621	489.418
603.673	459.604
603.725	477.483
603.777	500.561
603.829	458.067
603.881	491.526
603.933	474.811
603.985	494.101
604.037	476.026
604.089	481.053
604.141	484.747
604.193	492.28
604.244	484.419
604.296	488.19
604.348	485.618
604.4	488.257
604.452	465.236
604.504	485.918
604.556	486.02
604.608	479.671
604.66	487.464
604.712	491.421
604.764	490.272
604.816	487.875
604.868	504.812
604.92	481.816
604.971	488.408
605.023	476.913
605.075	479.567
605.127	501.563
605.179	483.625
605.231	486.373
605.283	481.431
605.335	484.258
605.387	483.2
605.439	497.6
605.491	480.91
605.543	484.838
605.594	492.612
605.646	493.935
605.698	483.677
605.75	481.258
605.802	486.685
605.854	492.166
605.906	484.693
605.958	497.9
606.01	472.104
606.062	478.611
606.114	482.419
606.166	490.046
606.217	476.91
606.269	468.988
606.321	497.391
606.373	498.651
606.425	514.213
606.477	487.042
606.529	500.005
606.581	499.971
606.633	495.999
606.685	489.395
606.737	486.651
606.789	474.846
606.84	475.997
606.892	483.64
606.944	495.188
606.996	491.245
607.048	486.024
607.1	496.31
607.152	466.512
607.204	502.582
607.256	474.002
607.308	503.486
607.359	486.438
607.411	483.56
607.463	505.161
607.515	494.557
607.567	476.28
607.619	478.651
607.671	499.065
607.723	496.341
607.775	476.906
607.827	494.734
607.878	498.399
607.93	486.635
607.982	472.301
608.034	500.298
608.086	479.525
608.138	497.189
608.19	481.503
608.242	505.488
608.294	502.585
608.345	506.108
608.397	502.025
608.449	477.589
608.501	485.151
608.553	500.411
608.605	502.908
608.657	509.203
608.709	503.956
608.761	502.48
608.812	494.587
608.864	503.249
608.916	488.996
608.968	506.615
609.02	501.368
609.072	489.816
609.124	506.297
609.176	496.094
609.228	515.166
609.279	493.54
609.331	513.889
609.383	515.154
609.435	507.51
609.487	504.952
609.539	502.394
609.591	480.764
609.643	492.213
609.694	503.673
609.746	508.783
609.798	516.438
609.85	522.812
609.902	524.074
609.954	512.58
610.006	508.675
610.058	512.351
610.109	519.792
610.161	515.758
610.213	509.165
610.265	526.682
610.317	506.135
610.369	526.2
610.421	499.386
610.473	500.506
610.524	509.267
610.576	514.261
610.628	496.482
610.68	507.844
610.732	511.604
610.784	490.03
610.836	527.963
610.887	526.649
610.939	532.949
610.991	507.627
611.043	525.366
611.095	519.056
611.147	503.866
611.199	515.221
611.25	523.988
611.302	530.161
611.354	513.508
611.406	524.642
611.458	530.687
611.51	512.724
611.562	532.656
611.614	533.664
611.665	522.086
611.717	520.619
611.769	526.714
611.821	505.07
611.873	511.107
611.925	522.141
611.977	502.976
612.028	529.094
612.08	520.057
612.132	514.844
612.184	543.56
612.236	538.367
612.288	509.286
612.339	531.543
612.391	531.114
612.443	526.85
612.495	527.57
612.547	537.073
612.599	500.486
612.651	505.236
612.702	530.056
612.754	532.5
612.806	527.478
612.858	527.397
612.91	524.734
612.962	523.218
613.013	520.378
613.065	532.424
613.117	529.533
613.169	531.644
613.221	556.139
613.273	538.457
613.325	534.448
613.376	522.992
613.428	547.434
613.48	518.58
613.532	540.444
613.584	536.309
613.635	537.129
613.687	526.866
613.739	532.672
613.791	533.558
613.843	544.293
613.895	530.391
613.947	532.48
613.998	544.397
614.05	526.848
614.102	556.008
614.154	544.722
614.206	523.705
614.258	533.414
614.309	538.257
614.361	549.248
614.413	528.365
614.465	536.896
614.517	538.058
614.568	552.682
614.62	535.423
614.672	549.991
614.724	543.7
614.776	539.832
614.828	561.646
614.879	556.535
614.931	533.111
614.983	552.524
615.035	564.636
615.087	564.555
615.139	548.597
615.19	566.833
615.242	554.496
615.294	567.775
615.346	537.084
615.398	556.439
615.449	572.131
615.501	537.821
615.553	554.734
615.605	577.714
615.657	584.811
615.709	573.61
615.76	564.842
615.812	556.092
615.864	563.185
615.916	577.594
615.968	559.191
616.019	565.085
616.071	571.927
616.123	573.928
616.175	557.487
616.227	570.713
616.278	567.098
616.33	570.366
616.382	573.823
616.434	569.855
616.486	574.14
616.537	569.344
616.589	570.975
616.641	580.696
616.693	573.692
616.745	586.122
616.797	565.315
616.848	577.981
616.9	588.237
616.952	565.901
617.004	579.179
617.056	553.085
617.107	588.977
617.159	565.197
617.211	577.936
617.263	573.487
617.315	584.43
617.366	582.733
617.418	555.746
617.47	572.185
617.522	580.741
617.573	561.867
617.625	571.361
617.677	573.971
617.729	580.816
617.781	589.417
617.832	574.626
617.884	573.606
617.936	569.6
617.988	578.904
618.04	582.93
618.091	588.021
618.143	578.769
618.195	575.103
618.247	584.346
618.299	582.004
618.35	595.412
618.402	582.201
618.454	580.051
618.506	577.733
618.557	588.713
618.609	590.573
618.661	581.662
618.713	586.614
618.765	588.152
618.816	581.407
618.868	588.711
618.92	589.018
618.972	579.2
619.023	595.502
619.075	583.834
619.127	596.09
619.179	575.547
619.231	579.487
619.282	581.015
619.334	594.16
619.386	582.286
619.438	592.109
619.49	586.188
619.541	578.805
619.593	591.128
619.645	585.482
619.697	588.828
619.748	585.028
619.8	586.513
619.852	592.234
619.904	598.63
619.955	580.923
620.007	571.254
620.059	586.392
620.111	588.633
620.162	590.19
620.214	599.998
620.266	583.209
620.318	586.537
620.37	590.414
620.421	586.503
620.473	590.147
620.525	598.914
620.577	594.422
620.628	593.023
620.68	593.499
620.732	588.254
620.784	592.275
620.835	594.413
620.887	586.871
620.939	594.023
620.991	589.484
621.042	583.067
621.094	586.415
621.146	613.286
621.198	610.595
621.249	599.624
621.269	598.541
621.321	581.717
621.373	589.518
621.425	596.129
621.477	573.445
621.529	582.483
621.581	611.483
621.633	588.997
621.685	594.681
621.737	579.353
621.789	593.342
621.841	587.485
621.893	615.608
621.945	608.648
621.997	593.502
622.049	593.561
622.101	601.78
622.153	595.893
622.205	581.737
622.257	597.925
622.309	597.64
622.361	600.793
622.413	599.233
622.465	601.181
622.517	604.344
622.569	592.394
622.621	597.985
622.673	595.435
622.725	605.7
622.776	590.327
622.828	599.391
622.88	589.828
622.932	602.384
622.984	602.175
623.036	608.979
623.088	589.086
623.14	599.413
623.192	622.49
623.244	603.711
623.296	609.261
623.348	613.595
623.4	603.986
623.452	590.915
623.504	610.315
623.556	593.857
623.608	602.911
623.66	613.136
623.712	597.9
623.764	599.972
623.816	617
623.868	595.833
623.92	606.952
623.972	608.802
624.024	597.974
624.076	598.701
624.128	608.672
624.18	614.086
624.232	589.669
624.284	599.801
624.336	590.449
624.388	616.737
624.44	614.314
624.492	619.897
624.544	597.874
624.596	601.027
624.648	612.124
624.699	603.675
624.751	605.515
624.803	594.778
624.855	606.946
624.907	613.427
624.959	618.795
625.011	601.36
625.063	618.171
625.115	617.873
625.167	628.98
625.219	607.066
625.271	603.416
625.323	612.323
625.375	621.256
625.427	621.104
625.479	628.912
625.531	617.369
625.583	631.943
625.635	618.07
625.687	617.811
625.739	634.572
625.791	622.955
625.843	611.365
625.895	600.935
625.946	618.867
625.998	636.804
626.05	625.299
626.102	617.226
626.154	618.251
626.206	630.639
626.258	628.344
626.31	618.148
626.362	636.262
626.414	617.005
626.466	641.875
626.518	622.559
626.57	641.681
626.622	634.712
626.674	636.731
626.726	611.561
626.778	624.803
626.83	624.502
626.882	622.021
626.934	616.277
626.985	619.701
627.037	632.272
627.089	633.609
627.141	630.402
627.193	629.363
627.245	632.716
627.297	619.008
627.349	662.823
627.401	634.351
627.453	614.962
627.505	629.491
627.557	631.668
627.609	664.332
627.661	643.977
627.713	638.244
627.765	622.306
627.817	619.849
627.868	630.889
627.92	650.946
627.972	637.248
628.024	624.717
628.076	615.583
628.128	635.703
628.18	646.795
628.232	649.993
628.284	662.188
628.336	641.818
628.388	655.233
628.44	659.725
628.492	633.927
628.544	645.243
628.596	655.426
628.647	653.21
628.699	661.074
628.751	648.679
628.803	640.782
628.855	641.898
628.907	634.044
628.959	646.442
629.011	661.087
629.063	645.359
629.115	665.582
629.167	636.312
629.219	668.857
629.271	655.302
629.322	668.714
629.374	664.126
629.426	680.86
629.478	651.494
629.53	665.899
629.582	660.054
629.634	655.312
629.686	668.507
629.738	665.987
629.79	684.756
629.842	663.174
629.894	647.208
629.945	654.771
629.997	671.308
630.049	674.46
630.101	668.724
630.153	664.161
630.205	669.691
630.257	675.219
630.309	666.183
630.361	649.277
630.413	669.201
630.465	685.732
630.517	669.875
630.568	667.453
630.62	688.516
630.672	667.229
630.724	679.459
630.776	682.781
630.828	691.667
630.88	668.161
630.932	676.941
630.984	675.609
631.036	668.631
631.088	681.649
631.14	673.466
631.191	681.972
631.243	691.606
631.295	695.725
631.347	696.577
631.399	685.281
631.451	694.038
631.503	715.046
631.555	693.879
631.607	683.818
631.659	680.412
631.71	685.875
631.762	719.065
631.814	703.405
631.866	698.808
631.918	707.467
631.97	708.298
632.022	696.883
632.074	702.062
632.126	697.294
632.178	691.497
632.229	719.003
632.281	704.608
632.333	701.39
632.385	702.667
632.437	703.951
632.489	733.969
632.541	721.841
632.593	705.201
632.645	734.998
632.696	714.962
632.748	739.209
632.8	712.579
632.852	726.913
632.904	706.944
632.956	722.347
633.008	757.596
633.06	719.782
633.112	712.885
633.164	736.912
633.215	724.509
633.267	751.933
633.319	733.063
633.371	756.223
633.423	741.893
633.475	752.961
633.527	736.392
633.579	748.465
633.63	748.329
633.682	744.833
633.734	741.323
633.786	768.709
633.838	757.523
633.89	775.035
633.942	770.502
633.994	789.092
634.046	769.065
634.097	769.936
634.149	771.894
634.201	769.485
634.253	767.166
634.305	808.999
634.357	806.945
634.409	811.611
634.461	820.749
634.512	815.567
634.564	829.072
634.616	840.29
634.668	845.891
634.72	828.226
634.772	873.321
634.824	851.067
634.876	878.362
634.927	859.347
634.979	864.602
635.031	861.118
635.083	876.458
635.135	879.795
635.187	868.899
635.239	877.85
635.291	883.458
635.342	885.672
635.394	883.371
635.446	918.421
635.498	880.746
635.55	893.727
635.602	890.248
635.654	883.539
635.705	882.392
635.757	895.58
635.809	913.166
635.861	917.516
635.913	899.821
635.965	929.391
636.017	903.962
636.068	929.158
636.12	922.539
636.172	925.911
636.224	944.762
636.276	947.148
636.328	945.083
636.38	929.681
636.431	937.192
636.483	957.696
636.535	953.853
636.587	952.162
636.639	947.249
636.691	964.455
636.743	972.01
636.794	967.724
636.846	989.945
636.898	968.341
636.95	979.639
637.002	993.02
637.054	978.766
637.106	970.921
637.157	991.478
637.209	991.078
637.261	993.954
637.313	1025.39
637.365	1011.95
637.417	984.357
637.469	1003.97
637.52	996.223
637.572	1007.1
637.624	1017.97
637.676	997.059
637.728	1036.42
637.78	1015.57
637.831	1019.97
637.883	1022.24
637.935	1011.41
637.987	1021.42
638.039	1036.91
638.091	1006.33
638.143	1028.31
638.194	1012.93
638.246	1027.06
638.298	1011.48
638.35	1022.11
638.402	1018.42
638.454	999.372
638.505	1013.19
638.557	1025.96
638.609	1008.21
638.661	1013.51
638.713	1035.31
638.765	1013.45
638.816	1021.16
638.868	980.774
638.92	1007.05
638.972	1032.17
639.024	1004.69
639.076	984.753
639.127	1005.16
639.179	974.187
639.231	982.573
639.283	972.5
639.335	989.846
639.387	993.128
639.438	981.206
639.49	985.671
639.542	978.096
639.594	967.197
639.646	980.279
639.698	962.79
639.749	951.864
639.801	973.693
639.853	964.932
639.905	967.019
639.957	966.823
640.008	963.257
640.06	950.909
640.112	952.748
640.164	956.849
640.216	943.66
640.268	950.265
640.319	937.426
640.371	936.707
640.423	942.603
640.475	938.676
640.527	939.039
640.578	932.72
640.63	916.413
640.682	940.364
640.734	931.422
640.786	935.505
640.838	911.194
640.889	931.66
640.941	933.644
640.993	913.895
641.045	916.015
641.097	927.956
641.148	936.576
641.2	929.845
641.252	902.318
641.304	913.968
641.356	929.974
641.408	904.68
641.459	918.711
641.511	905.661
641.563	929.71
641.615	921.11
641.667	913.52
641.718	902.533
641.77	921.888
641.822	915.022
641.874	930.979
641.926	907.846
641.977	923.977
642.029	907.636
642.081	897.936
642.133	905.701
642.185	903.695
642.236	928.84
642.288	920.197
642.34	919.083
642.392	895.056
642.444	893.822
642.495	902.355
642.547	929.372
642.599	914.018
642.651	899.778
642.703	915.97
642.754	913.667
642.806	914.576
642.858	916.508
642.91	890.156
642.962	901.765
643.013	906.851
643.065	891.35
643.117	919.253
643.169	939.581
643.221	907.903
643.272	906.553
643.324	894.344
643.376	914.582
643.428	915.317
643.479	913.915
643.531	908.256
643.583	905.942
643.635	923.205
643.687	909.226
643.738	923.419
643.79	946.241
643.842	928.958
643.894	908.293
643.946	925.326
643.997	921.698
644.049	909.37
644.101	916.486
644.153	906.389
644.205	916.883
644.256	908.048
644.308	918.692
644.36	921.823
644.412	923.896
644.463	941.082
644.515	935.667
644.567	924.911
644.619	927.137
644.671	912.137
644.722	931.629
644.774	939.226
644.826	932.762
644.878	935.979
644.929	903.618
644.981	920.887
645.033	936.022
645.085	942.519
645.136	913.373
645.188	950.997
645.24	905.524
645.292	918.243
645.344	929.922
645.395	942.785
645.447	927.771
645.499	913.949
645.551	930.374
645.602	945.742
645.654	929.815
645.706	965.653
645.758	934.615
645.81	943.567
645.861	961.255
645.913	956.349
645.965	921.196
646.017	951.963
646.068	949.111
646.12	939.62
646.172	974.36
646.224	945.084
646.275	961.163
646.327	963.094
646.379	955.259
646.431	950.689
646.482	965.64
646.534	980.671
646.586	964.44
646.638	961.259
646.689	949.46
646.741	972.254
646.793	966.88
646.845	969.017
646.896	964.628
646.948	962.407
647	948.333
647.052	977.572
647.104	965.755
647.155	973.388
647.207	960.395
647.259	964.581
647.31	968.631
647.362	971.494
647.414	966.756
647.466	955.583
647.518	989.856
647.569	978.916
647.621	976.732
647.673	969.221
647.724	977.905
647.776	980.056
647.828	986.429
647.88	970.044
647.931	988.126
647.983	987.862
648.035	988.736
648.087	968.153
648.138	955.234
648.19	1006.02
648.242	965.206
648.294	983.686
648.345	992.398
648.397	979.443
648.449	973.939
648.501	997.465
648.552	1016.6
648.604	1021.67
648.656	994.391
648.708	981.124
648.759	994.794
648.811	1008.49
648.863	984.578
648.915	996.251
648.966	1002.62
649.018	998.277
649.07	1014.39
649.121	1021.85
649.173	995.886
649.225	1006.41
649.277	1023.31
649.328	1003.66
649.38	1018.44
649.432	1020.4
649.484	995.571
649.535	1019.1
649.587	1028.65
649.639	1037.05
649.69	1029.25
649.742	1011.72
649.794	1045.65
649.846	1009.89
649.897	1005.31
649.949	1025.48
650.001	1030.75
650.053	1018.94
650.104	1044.69
650.156	1029.73
650.208	1029.78
650.259	1022.33
650.311	1024.54
650.363	1026.8
650.415	1034.47
650.466	1048.65
650.518	1027.5
650.57	1046.06
650.621	1042.11
650.673	1039.17
650.725	1051.19
650.777	1036.26
650.828	1063.09
650.88	1042.57
650.932	1025.23
650.984	1072.29
651.035	1042.11
651.087	1072.12
651.139	1047.5
651.19	1049.79
651.242	1086.47
651.294	1063.01
651.345	1071.71
651.397	1070.69
651.449	1058.9
651.501	1098.7
651.552	1054.8
651.604	1067.95
651.656	1085.51
651.707	1075.18
651.759	1077.72
651.811	1086.59
651.863	1091.02
651.914	1092.06
651.966	1081.17
652.018	1088.54
652.069	1077.67
652.121	1084.09
652.173	1093.83
652.224	1112.25
652.276	1104.9
652.328	1078.22
652.38	1110.74
652.431	1071.19
652.483	1096.28
652.535	1077.26
652.586	1094.87
652.638	1109.2
652.69	1113.71
652.741	1127.73
652.793	1115.7
652.845	1108.91
652.897	1098.84
652.948	1095.3
653	1115.58
653.052	1118.8
653.103	1112.47
653.155	1138.52
653.207	1098.81
653.258	1118.23
653.31	1123.45
653.362	1108.03
653.413	1121.54
653.465	1122.06
653.517	1111.82
653.568	1142.51
653.62	1136.75
653.672	1099.94
653.724	1137.31
653.775	1109.17
653.827	1150.75
653.879	1168.61
653.93	1168.13
653.982	1151.51
654.034	1141.36
654.085	1140.95
654.137	1176.02
654.189	1130.87
654.24	1148.94
654.292	1161.59
654.344	1156.94
654.395	1149.95
654.447	1165.26
654.499	1147.36
654.55	1156.19
654.602	1144.83
654.654	1164.52
654.705	1166.13
654.757	1171.99
654.809	1168.19
654.86	1152.6
654.912	1204
654.964	1189.48
655.016	1174.05
655.067	1181.12
655.119	1196.85
655.17	1180.82
655.222	1177.56
655.274	1143.44
655.326	1189.91
655.377	1187.4
655.429	1197.5
655.481	1208.55
655.532	1176.08
655.584	1186.01
655.635	1221.4
655.687	1201.9
655.739	1185.77
655.79	1188.9
655.842	1217.56
655.894	1193.38
655.945	1214.63
655.997	1224.08
656.049	1223.8
656.1	1217.02
656.152	1201.72
656.204	1241.4
656.255	1227.31
656.307	1196.45
656.359	1208.97
656.41	1244.71
656.462	1234.98
656.514	1240.98
656.565	1255.32
656.617	1234.83
656.669	1248.15
656.72	1231.02
656.772	1265.68
656.824	1228.82
656.875	1259.52
656.927	1263.96
656.979	1260.06
657.03	1241.47
657.082	1272.56
657.134	1246.75
657.185	1252.64
657.237	1255.34
657.288	1256.85
657.34	1263.44
657.392	1260.3
657.443	1263.3
657.495	1279.93
657.547	1277.55
657.598	1279.5
657.65	1276.33
657.702	1282.83
657.753	1286.3
657.805	1271.87
657.857	1317.72
657.908	1262.02
657.96	1289.86
658.011	1282.8
658.063	1284.25
658.115	1329.2
658.166	1310.69
658.218	1296.44
658.27	1329.91
658.321	1276.34
658.373	1314.97
658.425	1303.62
658.476	1324.03
658.528	1282.81
658.579	1314.88
658.631	1302.4
658.683	1308.01
658.734	1333.84
658.786	1299.08
658.838	1316.37
658.889	1304.92
658.941	1296.68
658.992	1316.16
659.044	1310.23
659.096	1309.76
659.147	1325.38
659.199	1328.27
659.251	1305.55
659.302	1328.62
659.354	1317.41
659.406	1303.92
659.457	1326.6
659.509	1312.82
659.56	1335.23
659.612	1332.92
659.664	1332.61
659.715	1324.69
659.767	1341.2
659.818	1340.56
659.87	1328.19
659.922	1325.48
659.973	1313.28
660.025	1329.97
660.077	1337.21
660.128	1323.32
660.18	1320.23
660.231	1323.65
660.283	1319.69
660.335	1338.08
660.386	1323.32
660.438	1314.74
660.49	1326.16
660.541	1330.96
660.593	1311.16
660.644	1310.52
660.696	1325.91
660.748	1315.89
660.799	1305.98
660.851	1315.21
660.902	1327.57
660.954	1323.89
661.006	1330.72
661.057	1339.6
661.109	1352.7
661.16	1307.55
661.212	1340.87
661.264	1292.68
661.315	1330.27
661.367	1317.04
661.418	1330.27
661.47	1311.78
661.522	1317.66
661.573	1314.08
661.625	1302.12
661.676	1318.72
661.728	1331.12
661.78	1332.96
661.831	1297.84
661.883	1316.5
661.934	1322.42
661.986	1311.37
662.038	1318.12
662.089	1316.3
662.141	1292.25
662.192	1307.04
662.244	1289.19
662.296	1308.13
662.347	1300.93
662.399	1307.53
662.45	1284.96
662.502	1292.97
662.554	1313.65
662.605	1311.33
662.657	1281.72
662.708	1288.62
662.76	1300.58
662.811	1309.19
662.863	1315.54
662.915	1278.98
662.966	1296.74
663.018	1314.56
663.069	1321.1
663.121	1300.82
663.173	1336.01
663.224	1285.01
663.276	1271.63
663.327	1311.4
663.379	1288.56
663.43	1305.1
663.482	1299.52
663.534	1296.85
663.585	1283.65
663.637	1319.31
663.688	1298.9
663.74	1312.92
663.792	1308.46
663.843	1307.2
663.895	1321.75
663.946	1323.33
663.998	1321.08
664.049	1319.09
664.101	1302.66
664.153	1311.13
664.204	1293.3
664.256	1314.21
664.307	1287.58
664.359	1302.76
664.41	1316.5
664.462	1314.57
664.513	1286.83
664.565	1290.33
664.617	1276.74
664.668	1289.62
664.72	1301.05
664.771	1310.21
664.823	1300.16
664.874	1291.12
664.926	1304.09
664.978	1302.64
665.029	1293.51
665.081	1284.32
665.132	1293.98
665.184	1297.68
665.235	1300.51
665.287	1284.55
665.339	1312.84
665.39	1310.59
665.442	1289.52
665.493	1277.58
665.545	1301.65
665.596	1319.12
665.648	1302.77
665.699	1302.82
665.751	1282.51
665.802	1289.13
665.854	1297.65
665.906	1302.22
665.957	1297.36
666.009	1283.07
666.06	1302.28
666.112	1293.97
666.163	1303.88
666.215	1316.35
666.266	1306.17
666.318	1308.91
666.37	1308.67
666.421	1298.26
666.473	1315.64
666.524	1327.33
666.576	1307.34
666.627	1314.5
666.679	1310.57
666.73	1313.04
666.782	1309.15
666.833	1305.56
666.885	1315.51
666.937	1305.25
666.988	1305.12
667.04	1303.39
667.091	1305.7
667.143	1323.34
667.194	1313.59
667.246	1319.89
667.297	1302
667.349	1294.56
667.4	1297.55
667.452	1298.03
667.503	1302.11
667.555	1314.1
667.607	1287.57
667.658	1301.2
667.71	1294.8
667.761	1308.83
667.813	1317.72
667.864	1295.25
667.916	1307.98
667.967	1309.82
668.019	1316.77
668.07	1326.2
668.122	1319.12
668.173	1308.91
668.225	1316.03
668.276	1312.74
668.328	1311.05
668.379	1314.73
668.431	1329
668.482	1310.27
668.534	1314.95
668.586	1329.29
668.637	1318.38
668.689	1307.49
668.74	1305.48
668.792	1313.92
668.843	1314.77
668.895	1326.59
668.935	1317.05
668.987	1319.54
669.038	1324.29
669.09	1330.17
669.142	1318.32
669.194	1325.13
669.245	1322.37
669.297	1312.14
669.349	1321.65
669.401	1319.72
669.453	1306.45
669.504	1314.29
669.556	1294.14
669.608	1333.75
669.66	1323.2
669.711	1330.36
669.763	1317.41
669.815	1302.14
669.867	1320.21
669.918	1330.85
669.97	1321.58
670.022	1332.34
670.074	1350.63
670.125	1308.21
670.177	1338.37
670.229	1325.52
670.281	1315.76
670.332	1331.11
670.384	1332.61
670.436	1322.3
670.488	1337.04
670.539	1353.69
670.591	1318.64
670.643	1345.61
670.695	1327.31
670.747	1315.36
670.798	1342.37
670.85	1312.71
670.902	1348.31
670.953	1305.16
671.005	1360.82
671.057	1347.12
671.109	1331.25
671.161	1307.92
671.212	1340.16
671.264	1338.67
671.316	1358.1
671.367	1329.23
671.419	1333.99
671.471	1316.82
671.523	1324.95
671.575	1339.5
671.626	1323.76
671.678	1301.82
671.73	1327.06
671.781	1349.14
671.833	1351.24
671.885	1328.1
671.937	1337.39
671.988	1344.53
672.04	1346.44
672.092	1336.88
672.144	1338.92
672.195	1330.59
672.247	1351.65
672.299	1358.03
672.351	1360.15
672.402	1340.13
672.454	1333.59
672.506	1312.27
672.558	1336.96
672.609	1343.85
672.661	1307.89
672.713	1333.73
672.765	1347.03
672.816	1325.78
672.868	1337.86
672.92	1327.81
672.971	1335.33
673.023	1351.04
673.075	1363.56
673.127	1344.89
673.178	1359.75
673.23	1349.87
673.282	1358.95
673.334	1356.72
673.385	1346.19
673.437	1330.35
673.489	1359.08
673.54	1334.62
673.592	1379.7
673.644	1337.52
673.696	1391
673.747	1359.5
673.799	1360.32
673.851	1347.74
673.903	1347.61
673.954	1376.45
674.006	1353.31
674.058	1359.1
674.109	1343.04
674.161	1393.22
674.213	1367.72
674.265	1371.16
674.316	1399.34
674.368	1340.6
674.42	1341.82
674.471	1344.1
674.523	1366.12
674.575	1354.28
674.627	1361.26
674.678	1365.37
674.73	1385.11
674.782	1348.18
674.833	1358.63
674.885	1378.21
674.937	1374.9
674.989	1386.88
675.04	1392.57
675.092	1378.68
675.144	1379.34
675.195	1383.28
675.247	1379.18
675.299	1383.51
675.351	1403.43
675.402	1358.49
675.454	1415.61
675.506	1372.72
675.557	1363.85
675.609	1390.07
675.661	1394.66
675.713	1393.08
675.764	1390.49
675.816	1395.14
675.868	1373.96
675.919	1402.43
675.971	1381.29
676.023	1406.75
676.074	1381.51
676.126	1406.01
676.178	1389.08
676.23	1388.74
676.281	1398.8
676.333	1416.18
676.385	1419.07
676.436	1402.25
676.488	1405.2
676.54	1426.87
676.591	1421.45
676.643	1371.15
676.695	1411.42
676.747	1411
676.798	1414.72
676.85	1397.57
676.902	1397.14
676.953	1397.82
677.005	1428.87
677.057	1409.82
677.108	1438.91
677.16	1432.44
677.212	1429.09
677.263	1417.31
677.315	1410.69
677.367	1432.33
677.419	1418.22
677.47	1438.7
677.522	1444.46
677.574	1416.6
677.625	1419.22
677.677	1420.81
677.729	1442.39
677.78	1457.65
677.832	1423.39
677.884	1414.33
677.935	1430.54
677.987	1432.06
678.039	1433.66
678.091	1423.76
678.142	1427.59
678.194	1438.74
678.246	1441.29
678.297	1445.71
678.349	1448.87
678.401	1438.19
678.452	1420.15
678.504	1438.19
678.556	1420.55
678.607	1422.12
678.659	1415.31
678.711	1447.55
678.762	1454.19
678.814	1429.84
678.866	1451.72
678.917	1428.99
678.969	1411.51
679.021	1468.04
679.072	1413.82
679.124	1422.03
679.176	1466.17
679.227	1434.26
679.279	1443.36
679.331	1432.27
679.382	1441.11
679.434	1441.49
679.486	1451.42
679.537	1443.55
679.589	1442.1
679.641	1399.66
679.692	1434.02
679.744	1443.04
679.796	1447.78
679.847	1434.62
679.899	1447.76
679.951	1432.6
680.003	1417.54
680.054	1424.6
680.106	1435.86
680.157	1428.18
680.209	1444.55
680.261	1438.76
680.312	1431.83
680.364	1426.93
680.416	1431.43
680.467	1444.29
680.519	1437.28
680.571	1454.34
680.622	1430.64
680.674	1434.15
680.726	1409.5
680.777	1422.5
680.829	1446.02
680.881	1440.44
680.932	1433.92
680.984	1446.25
681.036	1414.77
681.087	1441.58
681.139	1447.33
681.191	1438.24
681.242	1428.94
681.294	1428.87
681.346	1435.08
681.397	1411.37
681.449	1439.92
681.501	1478.16
681.552	1423.3
681.604	1442.32
681.656	1456.18
681.707	1423.16
681.759	1420.03
681.81	1477.92
681.862	1443.18
681.914	1454.04
681.965	1443.16
682.017	1437.64
682.069	1451.01
682.12	1433.5
682.172	1450.43
682.224	1444.66
682.275	1428.55
682.327	1438.35
682.379	1447.02
682.43	1451.39
682.482	1445.18
682.533	1425.29
682.585	1441.6
682.637	1437.02
682.688	1440.73
682.74	1451.75
682.792	1466.03
682.843	1445.24
682.895	1458.91
682.947	1467.6
682.998	1460.85
683.05	1460.37
683.102	1437.02
683.153	1452.04
683.205	1439.99
683.256	1467.44
683.308	1445.02
683.36	1434.12
683.411	1453.53
683.463	1428.26
683.515	1463.47
683.566	1464.29
683.618	1462.93
683.669	1455.16
683.721	1454.49
683.773	1450.47
683.824	1473.42
683.876	1461.8
683.928	1459.57
683.979	1449.09
684.031	1454.46
684.082	1460.03
684.134	1457.42
684.186	1471.62
684.237	1458.61
684.289	1439.21
684.341	1481.38
684.392	1456.48
684.444	1458.72
684.495	1447.4
684.547	1472.82
684.599	1468.05
684.65	1465.52
684.702	1448.43
684.754	1445
684.805	1461.49
684.857	1468.48
684.908	1455.41
684.96	1466.36
685.012	1462.47
685.063	1451.09
685.115	1450.1
685.166	1463.73
685.218	1448.91
685.27	1452.96
685.321	1445.45
685.373	1466.33
685.424	1458.93
685.476	1443.21
685.528	1457
685.579	1443.54
685.631	1465.81
685.683	1460.74
685.734	1473.5
685.786	1452.6
685.837	1447.45
685.889	1448.64
685.941	1433.07
685.992	1442.77
686.044	1475.63
686.095	1448.52
686.147	1419.23
686.199	1447.72
686.25	1441.4
686.302	1415.02
686.353	1431.74
686.405	1432.67
686.457	1445.18
686.508	1438.77
686.56	1457.62
686.611	1446
686.663	1433.39
686.715	1448.19
686.766	1469.37
686.818	1433.79
686.869	1432.89
686.921	1396.11
686.973	1421.22
687.024	1408.24
687.076	1426.62
687.127	1434.34
687.179	1381.11
687.231	1415.15
687.282	1400
687.334	1443.79
687.385	1440.51
687.437	1461.45
687.489	1397.41
687.54	1401.51
687.592	1409.69
687.643	1420.88
687.695	1427.74
687.747	1442.86
687.798	1427.52
687.85	1426.84
687.901	1423.08
687.953	1427.81
688.004	1417.02
688.056	1422.09
688.108	1426.25
688.159	1392.85
688.211	1437.88
688.262	1424.32
688.314	1386.66
688.366	1443.1
688.417	1408.58
688.469	1420.13
688.52	1408.74
688.572	1386.92
688.623	1423.68
688.675	1451
688.727	1417.58
688.778	1410.27
688.83	1399.81
688.881	1386.22
688.933	1421.81
688.984	1413.44
689.036	1445.82
689.088	1409.07
689.139	1430.81
689.191	1419.06
689.242	1394.83
689.294	1428.28
689.346	1409.66
689.397	1423.7
689.449	1399.19
689.5	1412.42
689.552	1417.23
689.603	1420.86
689.655	1420.1
689.706	1392.97
689.758	1418.14
689.81	1406.58
689.861	1405.55
689.913	1411.93
689.964	1411.05
690.016	1406.03
690.067	1419.87
690.119	1411.63
690.171	1405.42
690.222	1405.44
690.274	1401.26
690.325	1400.29
690.377	1394.23
690.428	1397.8
690.48	1433.07
690.531	1377.16
690.583	1382.2
690.635	1428.23
690.686	1381.58
690.738	1365.23
690.789	1420.29
690.841	1414.18
690.892	1402.8
690.944	1424.2
690.996	1411.03
691.047	1417.06
691.099	1424.31
691.15	1421.08
691.202	1397.71
691.253	1404.82
691.305	1414.95
691.356	1410.17
691.408	1405.35
691.459	1369.88
691.511	1413.86
691.563	1413.41
691.614	1407.59
691.666	1420.72
691.717	1421.99
691.769	1426.26
691.82	1417.67
691.872	1401.62
691.923	1374.99
691.975	1405.68
692.026	1408.92
692.078	1377.28
692.13	1395.58
692.181	1415.05
692.233	1390.05
692.284	1396.91
692.336	1387.82
692.387	1405.2
692.439	1399.12
692.49	1401.45
692.542	1362.33
692.593	1406.17
692.645	1390.65
692.697	1369.96
692.748	1380.24
692.8	1416.13
692.851	1385.94
692.903	1393.93
692.954	1416.62
693.006	1406.03
693.057	1408.04
693.109	1397.16
693.16	1403.33
693.212	1388.28
693.263	1383
693.315	1394.95
693.366	1390.03
693.418	1400.12
693.47	1375.04
693.521	1397.9
693.573	1402.5
693.624	1372.81
693.676	1367.54
693.727	1414.46
693.779	1338.56
693.83	1408.87
693.882	1400.21
693.933	1379.9
693.985	1385.33
694.036	1388.77
694.088	1417.96
694.139	1362.86
694.191	1370.75
694.242	1382.82
694.294	1381.92
694.345	1377.67
694.397	1391.46
694.448	1373.11
694.5	1392.13
694.552	1352.41
694.603	1366.15
694.655	1373.55
694.706	1402.43
694.758	1383.39
694.809	1378.37
694.861	1374.54
694.912	1372.91
694.964	1384.1
695.015	1384.51
695.067	1395.54
695.118	1398.99
695.17	1370.3
695.221	1367.31
695.273	1380.44
695.324	1374.34
695.376	1395.03
695.427	1371.76
695.479	1378.44
695.53	1375.44
695.582	1358.51
695.633	1357.71
695.685	1358.09
695.736	1388.64
695.788	1379.61
695.839	1370.62
695.891	1364.87
695.942	1365.52
695.994	1381.16
696.045	1392.45
696.097	1344.5
696.148	1418.2
696.2	1361.64
696.251	1379.44
696.303	1341.23
696.354	1403.33
696.406	1366.24
696.457	1363.67
696.509	1384.89
696.56	1384.54
696.612	1369.08
696.663	1362.29
696.715	1374.97
696.766	1363.82
696.818	1367.8
696.869	1375
696.921	1353.98
696.972	1372.04
697.024	1357.57
697.075	1367.01
697.127	1364.51
697.178	1385.88
697.23	1372.34
697.281	1370.71
697.333	1388.69
697.384	1393.71
697.436	1395.63
697.487	1344.29
697.539	1350.89
697.59	1381.61
697.642	1357.63
697.693	1384.9
697.745	1402.16
697.796	1354.61
697.847	1378.24
697.899	1367.93
697.95	1365.43
698.002	1350.99
698.053	1359.69
698.105	1365.05
698.156	1382.35
698.208	1354.28
698.259	1383.21
698.311	1373.39
698.362	1371.18
698.414	1381.07
698.465	1370.1
698.517	1404.36
698.568	1350.58
698.62	1373.95
698.671	1330.11
698.723	1361.21
698.774	1382.4
698.826	1349.6
698.877	1368.64
698.928	1365.67
698.98	1350.59
699.031	1328.9
699.083	1328.16
699.134	1327.4
699.186	1368.58
699.237	1329.07
699.289	1333.67
699.34	1360.29
699.392	1366.93
699.443	1327.05
699.495	1337.9
699.546	1365.24
699.598	1335.08
699.649	1318.18
699.7	1374.17
699.752	1354.09
699.803	1345.19
699.855	1362.94
699.906	1324.58
699.958	1368.04
700.009	1359.67
700.061	1343.52
700.112	1359.24
700.164	1340.47
700.215	1364.48
700.266	1353.97
700.318	1351
700.369	1342.46
700.421	1345.05
700.472	1332.43
700.524	1333.34
700.575	1315.79
700.627	1338.09
700.678	1360.43
700.73	1356.16
700.781	1327.39
700.832	1318.19
700.884	1331.96
700.935	1321.46
700.987	1311.11
701.038	1353.83
701.09	1316.46
701.141	1310.08
701.193	1319.14
701.244	1321.45
701.295	1344.45
701.347	1307.74
701.398	1321.5
701.45	1324.2
701.501	1317.05
701.553	1326.55
701.604	1310.93
701.656	1322.95
701.707	1337.27
701.758	1313.19
701.81	1330.89
701.861	1315.6
701.913	1318.94
701.964	1322.2
702.016	1334.13
702.067	1347.03
702.119	1337.85
702.17	1311.06
702.221	1302.98
702.273	1364.15
702.324	1338.78
702.376	1301.5
702.427	1341.15
702.479	1333.63
702.53	1331.52
702.581	1313.93
702.633	1329.16
702.684	1332.28
702.736	1306.91
702.787	1339.85
702.839	1309.33
702.89	1319.59
702.941	1332.17
702.993	1338.19
703.044	1334.24
703.096	1345.59
703.147	1321.67
703.199	1340.64
703.25	1336.61
703.301	1354.77
703.353	1337.91
703.404	1333.31
703.456	1346.4
703.507	1325.24
703.558	1349.18
703.61	1353.07
703.661	1325.86
703.713	1329.52
703.764	1303.38
703.816	1331.57
703.867	1326.79
703.918	1344.34
703.97	1321.03
704.021	1347.6
704.073	1328.61
704.124	1329.39
704.175	1339.97
704.227	1327.05
704.278	1330.7
704.33	1311.01
704.381	1316.98
704.432	1315.32
704.484	1319.36
704.535	1342.43
704.587	1328.79
704.638	1325.16
704.69	1323.71
704.741	1346.8
704.792	1319.62
704.844	1331.55
704.895	1328.98
704.947	1329.79
704.998	1355.26
705.049	1302.3
705.101	1328.89
705.152	1346.52
705.204	1329.37
705.255	1348.16
705.306	1341.14
705.358	1321.77
705.409	1331.67
705.461	1316.84
705.512	1350.49
705.563	1327.8
705.615	1342.32
705.666	1299.19
705.718	1311.26
705.769	1317.53
705.82	1320.22
705.872	1337.48
705.923	1327.51
705.974	1330.05
706.026	1333.89
706.077	1325.51
706.129	1329.84
706.18	1294.63
706.231	1313.94
706.283	1338.89
706.334	1309.14
706.386	1299.66
706.437	1334.45
706.488	1341.89
706.54	1315.2
706.591	1310.25
706.643	1325.95
706.694	1304.06
706.745	1322.13
706.797	1345.86
706.848	1298.56
706.899	1296.87
706.951	1296.22
707.002	1294.37
707.054	1315.4
707.105	1285.98
707.156	1280.55
707.208	1310.6
707.259	1293.55
707.31	1339.51
707.362	1325.84
707.413	1312.22
707.465	1313.61
707.516	1289.86
707.567	1326.99
707.619	1289.49
707.67	1289.75
707.721	1299
707.773	1297.78
707.824	1285.01
707.876	1309
707.927	1296.36
707.978	1302.21
708.03	1299.02
708.081	1301.66
708.132	1305.51
708.184	1269.13
708.235	1287.88
708.287	1296.24
708.338	1310.3
708.389	1302.48
708.441	1321.08
708.492	1299.37
708.543	1323.62
708.595	1314.39
708.646	1267.06
708.697	1280.6
708.749	1305.55
708.8	1324.72
708.852	1303.74
708.903	1264.56
708.954	1298.06
709.006	1274.35
709.057	1275.01
709.108	1289.62
709.16	1291.61
709.211	1277.39
709.262	1290.67
709.314	1299.15
709.365	1293.55
709.416	1293.53
709.468	1270.26
709.519	1288.42
709.57	1273.09
709.622	1288.95
709.673	1268.05
709.725	1302.68
709.776	1283.37
709.827	1278.12
709.879	1279.95
709.93	1284.15
709.981	1277.93
710.033	1278.52
710.084	1267.43
710.135	1277.08
710.187	1269.39
710.238	1282.62
710.289	1287.89
710.341	1282.85
710.392	1275.52
710.443	1278.54
710.495	1283.73
710.546	1289.89
710.597	1279.66
710.649	1278.67
710.7	1296.31
710.751	1268.75
710.803	1276.15
710.854	1253.38
710.905	1288.76
710.957	1278.77
711.008	1259.47
711.059	1282.15
711.111	1298.02
711.162	1266.27
711.213	1254.47
711.265	1280.16
711.316	1263
711.367	1294.83
711.419	1268.57
711.47	1233.34
711.521	1272.31
711.573	1293.26
711.624	1287.52
711.675	1275.01
711.727	1289.91
711.778	1259.09
711.829	1283.02
711.881	1281.67
711.932	1284.67
711.983	1284.81
712.035	1258.5
712.086	1281.93
712.137	1278.48
712.189	1271.27
712.24	1267.6
712.291	1263.42
712.343	1282.11
712.394	1277.33
712.445	1284.69
712.496	1271.88
712.548	1284.56
712.599	1284.24
712.65	1268.6
712.702	1276.05
712.753	1255.08
712.804	1266.76
712.856	1264.32
712.907	1250.77
712.958	1287.41
713.01	1269.3
713.061	1270.36
713.112	1267.69
713.164	1280.73
713.215	1276.92
713.266	1266.09
713.317	1248.04
713.369	1270.8
713.42	1272.23
713.471	1275.64
713.523	1255.77
713.574	1264.61
713.625	1248.72
713.677	1258.23
713.728	1259.76
713.779	1254.79
713.831	1260.4
713.882	1253.41
713.933	1263.59
713.984	1262.53
714.036	1268.2
714.087	1270.87
714.138	1256.62
714.19	1256.43
714.241	1257.21
714.292	1261.69
714.343	1261.26
714.395	1261.99
714.446	1268.17
714.497	1265.7
714.549	1251.67
714.6	1230.01
714.651	1246.05
714.703	1256.72
714.754	1248.34
714.805	1242.03
714.856	1247.62
714.908	1261.73
714.959	1251.26
715.01	1238.89
715.062	1239.85
715.113	1232.32
715.164	1242.04
715.215	1246.68
715.267	1241.73
715.318	1233.9
715.369	1220.26
715.421	1240.58
715.472	1237.14
715.523	1217.64
715.574	1210.46
715.626	1207.98
715.677	1235.54
715.728	1228.61
715.779	1229.1
715.831	1232.8
715.882	1239.52
715.933	1237.28
715.985	1236.81
716.036	1231.17
716.087	1225.38
716.138	1214.78
716.19	1230.68
716.241	1205.26
716.292	1201.53
716.343	1215.27
716.395	1230.13
716.433	1246.19
716.485	1230.07
716.536	1206.8
716.588	1213.02
716.639	1202.31
716.691	1228.35
716.742	1207.97
716.794	1230.35
716.845	1217.17
716.897	1219.8
716.948	1206.47
717	1205.38
717.052	1231.29
717.103	1198.53
717.155	1225.84
717.206	1195.61
717.258	1204.53
717.309	1210.9
717.361	1218.4
717.412	1217.26
717.464	1207.57
717.515	1202.88
717.567	1198.35
717.618	1202.56
717.67	1190.91
717.721	1205.06
717.773	1209.31
717.824	1187.61
717.876	1158.37
717.927	1202.8
717.979	1189.37
718.03	1199.33
718.082	1200.77
718.133	1166.69
718.185	1183.28
718.237	1218.59
718.288	1182.59
718.34	1184.86
718.391	1180.91
718.443	1179.28
718.494	1207.09
718.546	1171.54
718.597	1188.94
718.649	1212.38
718.7	1190.02
718.752	1213.52
718.803	1184
718.855	1202.95
718.906	1194.85
718.958	1202.99
719.009	1193.87
719.061	1173.58
719.112	1183.03
719.164	1214.78
719.215	1214.16
719.267	1196
719.318	1169.01
719.37	1185.44
719.421	1186.88
719.473	1163.45
719.524	1181.17
719.576	1171.65
719.627	1188.45
719.679	1211.66
719.73	1190.11
719.782	1179.83
719.833	1167.03
719.885	1170.43
719.936	1176.26
719.988	1178.23
720.039	1175.08
720.091	1164.29
720.142	1170.95
720.194	1181.31
720.245	1164.07
720.297	1155.67
720.348	1177.49
720.4	1159.27
720.451	1178.84
720.503	1177.11
720.554	1189.23
720.606	1169.81
720.657	1167.93
720.709	1152.09
720.76	1161.39
720.812	1149.23
720.863	1171.12
720.915	1157.66
720.966	1164.36
721.018	1173.52
721.069	1166.18
721.121	1162.58
721.172	1132.46
721.224	1168.15
721.275	1139.54
721.327	1141.45
721.378	1159.97
721.43	1162.11
721.481	1171.81
721.532	1182.66
721.584	1148.92
721.635	1188.66
721.687	1136.91
721.738	1149.98
721.79	1145.41
721.841	1179.18
721.893	1146.98
721.944	1141.6
721.996	1143.9
722.047	1149.95
722.099	1160.98
722.15	1127.09
722.202	1130.06
722.253	1157.16
722.305	1158.6
722.356	1143.39
722.408	1128.24
722.459	1137.49
722.511	1154.54
722.562	1134.53
722.614	1124.76
722.665	1105.96
722.716	1122.94
722.768	1150.12
722.819	1123.41
722.871	1133.94
722.922	1113.8
722.974	1137.44
723.025	1121.39
723.077	1131.07
723.128	1103.4
723.18	1121.88
723.231	1132.49
723.283	1135.22
723.334	1092.82
723.386	1128.9
723.437	1144.42
723.488	1135.52
723.54	1102.15
723.591	1142.08
723.643	1127.81
723.694	1109.59
723.746	1124.83
723.797	1149.15
723.849	1113.17
723.9	1127.61
723.952	1076.59
724.003	1115.85
724.055	1079.15
724.106	1113.35
724.157	1101.05
724.209	1092.56
724.26	1094.38
724.312	1115.59
724.363	1122.61
724.415	1111.5
724.466	1105.49
724.518	1099.38
724.569	1122.94
724.621	1116.62
724.672	1110.26
724.723	1100.03
724.775	1101.52
724.826	1130.31
724.878	1108.61
724.929	1093.44
724.981	1087.37
725.032	1126.77
725.084	1115.6
725.135	1100.57
725.187	1094.68
725.238	1133.03
725.289	1095.92
725.341	1099.11
725.392	1113.97
725.444	1111.84
725.495	1096.62
725.547	1094.39
725.598	1105.17
725.65	1097.64
725.701	1101.81
725.752	1078.5
725.804	1089.1
725.855	1115.39
725.907	1093.41
725.958	1096.35
726.01	1088.96
726.061	1118.31
726.112	1112.46
726.164	1088.31
726.215	1104.76
726.267	1096.28
726.318	1094.31
726.37	1126.39
726.421	1074.37
726.473	1073.49
726.524	1122.53
726.575	1101.93
726.627	1094.53
726.678	1096.47
726.73	1064.33
726.781	1078.43
726.833	1096.62
726.884	1083.17
726.935	1085.5
726.987	1106.25
727.038	1081.92
727.09	1066.79
727.141	1082.17
727.193	1097.69
727.244	1073.51
727.295	1082.63
727.347	1075.81
727.398	1064.9
727.45	1088.51
727.501	1081.26
727.552	1085.83
727.604	1072.88
727.655	1091.87
727.707	1054.65
727.758	1070.87
727.81	1083.13
727.861	1072.79
727.912	1073.35
727.964	1090.23
728.015	1077.92
728.067	1057.72
728.118	1073.86
728.17	1076.54
728.221	1080.41
728.272	1044.94
728.324	1048.32
728.375	1059.63
728.427	1076.3
728.478	1090.32
728.529	1063.89
728.581	1047.03
728.632	1073.55
728.684	1077.16
728.735	1086.25
728.786	1049.27
728.838	1062.56
728.889	1060.98
728.941	1079.85
728.992	1055.1
729.044	1071.08
729.095	1058.19
729.146	1060.05
729.198	1041.16
729.249	1023.47
729.301	1065.88
729.352	1025.03
729.403	1033.6
729.455	1050.65
729.506	1047.44
729.558	1073.19
729.609	1053.79
729.66	1056.24
729.712	1095.63
729.763	1050.92
729.815	1066.46
729.866	1062.56
729.917	1040.71
729.969	1091.89
730.02	1035.83
730.072	1015.77
730.123	1051.07
730.174	1049.3
730.226	1058.62
730.277	1056.84
730.329	987.067
730.38	1056.92
730.431	1031.03
730.483	1036.86
730.534	1070.36
730.586	1022.08
730.637	1048.8
730.688	1035.44
730.74	1033.33
730.791	1035.48
730.842	1032.09
730.894	1028.61
730.945	1033.31
730.997	1032.26
731.048	1040.79
731.099	1018.58
731.151	1029.82
731.202	995.155
731.254	1045.64
731.305	1036.32
731.356	1014.52
731.408	1030.44
731.459	1028.23
731.51	1020.41
731.562	1002.76
731.613	1036.85
731.665	1003.74
731.716	1015.35
731.767	1014.29
731.819	1025.74
731.87	1038.49
731.922	1027.34
731.973	1018.93
732.024	1013.31
732.076	1041.37
732.127	1003.63
732.178	1027.66
732.23	1033.58
732.281	1022.76
732.333	1012.02
732.384	1035.02
732.435	1022.92
732.487	1012.18
732.538	1018.24
732.589	1042.52
732.641	982.284
732.692	964.188
732.744	1015.04
732.795	1029.31
732.846	1018.27
732.898	1014.34
732.949	982.278
733	1015.08
733.052	1011.23
733.103	1010.17
733.154	1016.09
733.206	1033.22
733.257	989.597
733.309	1015.09
733.36	1013.75
733.411	1029.34
733.463	1028
733.514	1001.25
733.565	1011.21
733.617	1012.69
733.668	1022.64
733.719	993.036
733.771	1005.83
733.822	972.026
733.873	1006.08
733.925	1006.29
733.976	988.175
734.028	994.143
734.079	981.739
734.13	990.52
734.182	1017.63
734.233	1016.34
734.284	1007.89
734.336	997.978
734.387	992.315
734.438	1010.78
734.49	1008.11
734.541	1016.87
734.592	964.809
734.644	997.785
734.695	985.414
734.747	988.607
734.798	990.346
734.849	986.376
734.901	1015.03
734.952	1003.93
735.003	987.126
735.055	1005.8
735.106	987.5
735.157	977.673
735.209	979.162
735.26	959.279
735.311	976.291
735.363	979.038
735.414	968.955
735.465	1002.89
735.517	991.363
735.568	985.559
735.619	975.56
735.671	974.164
735.722	994.16
735.773	967.371
735.825	1003.16
735.876	984.994
735.927	995.261
735.979	1005.49
736.03	978.634
736.081	982.927
736.133	977.095
736.184	991.016
736.235	956.495
736.287	971.684
736.338	971.272
736.389	973.782
736.441	976.401
736.492	964.936
736.543	981.945
736.595	974.91
736.646	959.43
736.697	969.563
736.749	952.779
736.8	991.413
736.851	1005.91
736.903	953.578
736.954	992.117
737.005	999.311
737.057	989.386
737.108	966.645
737.159	949.606
737.211	955.347
737.262	985.293
737.313	964.062
737.365	989.718
737.416	972.634
737.467	959.71
737.518	953.784
737.57	966.241
737.621	984.324
737.672	959.814
737.724	955.27
737.775	957.949
737.826	970.699
737.878	960.859
737.929	951.079
737.98	952.649
738.032	965.515
738.083	955.564
738.134	921.379
738.186	946.747
738.237	952.205
738.288	947.743
738.339	947.581
738.391	957.406
738.442	953.097
738.493	943.148
738.545	967.242
738.596	961.534
738.647	930.263
738.699	948.581
738.75	947.007
738.801	924.148
738.853	949.478
738.904	943.65
738.955	952.032
739.006	957.629
739.058	927.855
739.109	951.94
739.16	961.867
739.212	937.785
739.263	940.598
739.314	924.976
739.366	936.251
739.417	939.013
739.468	946.011
739.519	904.848
739.571	945.804
739.622	952.781
739.673	935.728
739.725	932.901
739.776	937.252
739.827	923.301
739.878	942.009
739.93	925.345
739.981	935.587
740.032	942.929
740.084	920.384
740.135	943.099
740.186	933.087
740.237	904.56
740.289	932.686
740.34	929.59
740.391	947.738
740.443	953.153
740.494	938.805
740.545	916.07
740.596	917.545
740.648	893.68
740.699	928.027
740.75	929.891
740.802	938.867
740.853	930.767
740.904	923.965
740.956	914.184
741.007	924.155
741.058	918.436
741.109	918.374
741.161	929.696
741.212	895.655
741.263	907.1
741.314	935.641
741.366	920.21
741.417	930.358
741.468	929.152
741.52	915.153
741.571	892.618
741.622	919.833
741.673	907.251
741.725	907.472
741.776	904.847
741.827	903.629
741.878	929.415
741.93	896.79
741.981	899.688
742.032	925.317
742.083	899.685
742.135	903.979
742.186	906.921
742.237	885.747
742.289	907.378
742.34	897.723
742.391	880.93
742.442	918.257
742.494	907.025
742.545	921.372
742.596	864.337
742.647	908.544
742.699	908.556
742.75	898.638
742.801	875.942
742.852	907.514
742.904	892.031
742.955	886.537
743.006	888.169
743.057	886.933
743.109	889.981
743.16	897.334
743.211	884.71
743.263	873.536
743.314	896.697
743.365	884.111
743.416	874.368
743.468	880.348
743.519	906.36
743.57	897.995
743.621	860.954
743.672	889.782
743.724	882.759
743.775	868.537
743.826	878.662
743.878	878.767
743.929	903.287
743.98	880.551
744.031	870.762
744.083	850.935
744.134	859.761
744.185	864.191
744.236	868.502
744.287	871.27
744.339	868.242
744.39	892.498
744.441	855.15
744.492	846.646
744.544	885.668
744.595	886.08
744.646	852.065
744.697	863.973
744.749	882.972
744.8	870.2
744.851	870.235
744.902	888.859
744.954	897.341
745.005	871.292
745.056	882.652
745.107	838.015
745.159	868.22
745.21	853.976
745.261	852.78
745.312	877.565
745.363	879.388
745.415	881.195
745.466	855.561
745.517	829.799
745.568	862.981
745.62	860.054
745.671	838.362
745.722	841.178
745.773	874.304
745.824	854.212
745.876	868.75
745.927	855.934
745.978	856.058
746.029	830.181
746.081	850.355
746.132	817.143
746.183	864.594
746.234	835.657
746.285	842.755
746.337	828.274
746.388	845.53
746.439	857.081
746.49	829.797
746.542	860.196
746.593	848.856
746.644	849.062
746.695	824.743
746.746	852.284
746.798	842.255
746.849	855.205
746.9	840.661
746.951	837.587
747.003	853.227
747.054	841.518
747.105	844.315
747.156	818.429
747.207	827.261
747.259	821.778
747.31	849.483
747.361	832.405
747.412	851.225
747.463	840.979
747.515	824.774
747.566	837.283
747.617	845.439
747.668	830.645
747.719	840.491
747.771	840.444
747.822	833.346
747.873	813.362
747.924	836.56
747.975	812.18
748.027	829.478
748.078	853.91
748.129	809.197
748.18	829.289
748.231	833.576
748.283	813.424
748.334	817.767
748.385	810.59
748.436	812.034
748.487	829.295
748.539	817.758
748.59	804.807
748.641	823.594
748.692	805.039
748.743	792.35
748.795	824.441
748.846	848.004
748.897	829.793
748.948	812.995
748.999	825.009
749.05	806.572
749.102	831.365
749.153	828.552
749.204	814.047
749.255	816.803
749.306	819.512
749.358	796.209
749.409	824.972
749.46	826.359
749.511	797.5
749.562	809.18
749.614	825.257
749.665	796.543
749.716	786.59
749.767	802.611
749.818	807.009
749.869	812.814
749.921	815.722
749.972	788.281
750.023	815.843
750.074	805.842
750.125	816.135
750.177	823.571
750.228	831.041
750.279	786.408
750.33	796.825
750.381	808.709
750.432	782.895
750.484	784.578
750.535	803.605
750.586	783.4
750.637	803.765
750.688	774.787
750.739	811.128
750.791	796.747
750.842	789.696
750.893	800.14
750.944	772.872
750.995	789.203
751.046	798.267
751.098	791.302
751.149	794.47
751.2	790.32
751.251	780.314
751.302	808.156
751.353	792.333
751.404	786.731
751.456	776.789
751.507	796.025
751.558	778.829
751.609	787.892
751.66	773.621
751.711	790.036
751.763	783.143
751.814	764.616
751.865	768.077
751.916	792.085
751.967	791.229
752.018	784.474
752.07	790.854
752.121	797.177
752.172	785.835
752.223	759.773
752.274	785.163
752.325	762.062
752.376	775.753
752.428	789.447
752.479	797.212
752.53	765.103
752.581	797.772
752.632	765.491
752.683	786.268
752.734	774.59
752.786	765.883
752.837	763.106
752.888	804.644
752.939	764.992
752.99	775.544
753.041	797.924
753.092	786.328
753.144	773.261
753.195	773.513
753.246	753.06
753.297	779.941
753.348	760.914
753.399	787.73
753.45	765.628
753.502	764.202
753.553	746.443
753.604	764.204
753.655	774.556
753.706	784.925
753.757	755.349
753.808	755.459
753.859	768.992
753.911	763.363
753.962	774.134
754.013	777.562
754.064	761.718
754.115	775.553
754.166	752.192
754.217	751.055
754.269	757.301
754.32	730.768
754.371	747.372
754.422	738.658
754.473	777.598
754.524	783.762
754.575	761.588
754.626	769.198
754.678	782.765
754.729	756.081
754.78	744.331
754.831	749.031
754.882	735.874
754.933	739.178
754.984	749.989
755.035	771.285
755.086	747.727
755.138	751.033
755.189	743.809
755.24	724.545
755.291	756.128
755.342	739.761
755.393	753.324
755.444	742.93
755.495	761.026
755.547	732.73
755.598	740.456
755.649	758.75
755.7	744.112
755.751	720.486
755.802	734.38
755.853	748.258
755.904	730.528
755.955	723.241
756.006	750.474
756.058	761.107
756.109	743.106
756.16	722.054
756.211	764.151
756.262	723.5
756.313	732.498
756.364	717.466
756.415	740.104
756.466	728.226
756.518	743.513
756.569	724.239
756.62	751.664
756.671	723.333
756.722	711.512
756.773	723.751
756.824	726.898
756.875	725.499
756.926	737.681
756.977	727.256
757.029	742.512
757.08	701.944
757.131	712.707
757.182	731.036
757.233	729.74
757.284	729.963
757.335	724.148
757.386	753.115
757.437	720.073
757.488	729.365
757.539	737.129
757.59	728.226
757.642	702.657
757.693	702.839
757.744	737.899
757.795	703.297
757.846	732.388
757.897	709.942
757.948	711.752
757.999	716.566
758.05	712.223
758.101	703.268
758.152	718.578
758.203	667.024
758.255	720.323
758.306	696.156
758.357	723.711
758.408	678.313
758.459	704.4
758.51	709.233
758.561	729.071
758.612	718.791
758.663	702.581
758.714	700.026
758.765	701.604
758.816	699.842
758.867	699.607
758.919	698.347
758.97	711.893
759.021	701.405
759.072	735.562
759.123	693.329
759.174	709.189
759.225	688.676
759.276	708.685
759.327	703.2
759.378	691.909
759.429	704.525
759.48	696.464
759.531	690.095
759.582	703.11
759.633	722.328
759.685	675.85
759.736	696.194
759.787	719.468
759.838	722.75
759.889	715.814
759.94	705.266
759.991	690.157
760.042	691.287
760.093	689.567
760.144	694.787
760.195	700.859
760.246	696.207
760.297	706.048
760.348	682.563
760.399	688.47
760.45	708.721
760.501	697.479
760.552	683.449
760.603	695.221
760.655	683.632
760.706	696.622
760.757	677.592
760.808	675.524
760.859	680.069
760.91	691.919
760.961	691.208
761.012	688.496
761.063	672.673
761.114	676.383
761.165	676.713
761.216	673.75
761.267	685.781
761.318	670.886
761.369	660.52
761.42	684.146
761.471	681.936
761.522	677.899
761.573	683.785
761.624	674.932
761.675	667.367
761.726	656.844
761.777	670.446
761.828	681.804
761.88	667.834
761.931	672.899
761.982	673.029
762.033	668.366
762.084	682.524
762.135	668.164
762.186	680.932
762.237	680.869
762.288	658.204
762.339	673.042
762.39	664.605
762.441	671.32
762.492	667.674
762.543	664.127
762.594	647.05
762.645	654.14
762.696	671.747
762.747	658.224
762.798	654.182
762.849	656.329
762.9	635.955
762.951	664.126
763.002	655.175
763.053	634.641
763.104	660.359
763.155	672.668
763.206	653.19
763.257	660.726
763.308	650.542
763.359	641.507
763.41	648.992
763.461	649.354
763.512	657.562
763.563	659.361
763.614	655.149
763.665	640.501
763.678	635.999
763.729	678.292
763.78	654.584
763.832	651.56
763.883	662.931
763.934	644.488
763.986	659.068
764.037	648.214
764.088	630.801
764.139	673.138
764.191	653.983
764.242	633.424
764.293	646.205
764.345	645.029
764.396	629.743
764.447	645.955
764.498	650.93
764.55	635.144
764.601	644.489
764.652	639.613
764.704	642.768
764.755	624.015
764.806	662.327
764.857	620.088
764.909	660.027
764.96	625.395
765.011	619.033
765.062	633.089
765.114	639.184
765.165	637.463
765.216	631.192
765.268	640.966
765.319	644.589
765.37	616.587
765.421	612.295
765.473	604.698
765.524	646.157
765.575	646.216
765.626	639.881
765.678	616.108
765.729	644.819
765.78	627.562
765.831	608.765
765.883	617
765.934	623.616
765.985	611.068
766.036	620.716
766.088	609.614
766.139	611.229
766.19	643.123
766.242	620.971
766.293	603.675
766.344	629.464
766.395	647.338
766.447	625.326
766.498	604.822
766.549	622.532
766.6	617.836
766.652	622.703
766.703	610.049
766.754	611.853
766.805	618.552
766.857	626.932
766.908	608.141
766.959	618.112
767.01	611.992
767.062	628.206
767.113	610.679
767.164	612.331
767.215	605.954
767.267	604.405
767.318	610.917
767.369	606.262
767.42	616.108
767.472	611.58
767.523	599.078
767.574	602.679
767.625	619.178
767.677	626.04
767.728	605.5
767.779	599.377
767.83	617.354
767.882	598.19
767.933	635.413
767.984	606.502
768.035	605.026
768.087	592.304
768.138	602.241
768.189	605.789
768.24	620.698
768.292	591.965
768.343	606.867
768.394	602.304
768.445	612.254
768.497	578.417
768.548	598.023
768.599	598.203
768.65	588.699
768.701	576.004
768.753	599.072
768.804	612.465
768.855	578.745
768.906	595.393
768.958	587.609
769.009	592.798
769.06	606.095
769.111	612.854
769.163	590.258
769.214	590.486
769.265	580.933
769.316	584.438
769.367	573.242
769.419	591.426
769.47	565.469
769.521	581.975
769.572	588.663
769.624	570.819
769.675	600.422
769.726	587.51
769.777	584.429
769.828	614.108
769.88	584.841
769.931	594.9
769.982	591.878
770.033	592.179
770.085	584.326
770.136	597.858
770.187	593.348
770.238	587.169
770.289	577.637
770.341	591.073
770.392	596.214
770.443	616.14
770.494	576.746
770.546	571.97
770.597	585.373
770.648	570.791
770.699	576.038
770.75	579.661
770.802	560.163
770.853	585.283
770.904	577.34
770.955	564.41
771.006	566.348
771.058	593.107
771.109	565.159
771.16	581.927
771.211	580.451
771.263	557.412
771.314	560.928
771.365	562.81
771.416	582.983
771.467	579.92
771.519	575.188
771.57	587.07
771.621	562.345
771.672	582.527
771.723	562.761
771.775	556.312
771.826	576.538
771.877	580.139
771.928	550.418
771.979	534.046
772.031	559.43
772.082	576.514
772.133	551.836
772.184	567.306
772.235	562.725
772.287	553.127
772.338	556.941
772.389	569.137
772.44	554.421
772.491	593.402
772.543	576.827
772.594	543.334
772.645	538.375
772.696	551.916
772.747	553.717
772.799	537.066
772.85	567.639
772.901	581.456
772.952	575.088
773.003	573.777
773.055	563.992
773.106	579.494
773.157	569.609
773.208	546.149
773.259	559.856
773.31	531.257
773.362	566.938
773.413	558.613
773.464	573.977
773.515	547.004
773.566	543.745
773.618	555.768
773.669	532.257
773.72	544.402
773.771	526.067
773.822	556.977
773.873	557.329
773.925	557.637
773.976	542.582
774.027	535.98
774.078	541.274
774.129	567.019
774.18	572.369
774.232	553.885
774.283	547.318
774.334	542.431
774.385	532.395
774.436	525.754
774.488	549.859
774.539	543.274
774.59	541.862
774.641	550.756
774.692	528.874
774.743	568.609
774.795	541.521
774.846	521.214
774.897	512.853
774.948	537.06
774.999	540.683
775.05	537.462
775.102	532.564
775.153	548.34
775.204	528.067
775.255	525.012
775.306	521.96
775.357	511.984
775.409	567.496
775.46	521.188
775.511	526.582
775.562	537.13
775.613	514.852
775.664	546.145
775.716	513.507
775.767	527.556
775.818	539.889
775.869	536.647
775.92	514.347
775.971	512.82
776.023	533.835
776.074	515.009
776.125	511.79
776.176	532.865
776.227	508.794
776.278	521.165
776.329	509.203
776.381	530.265
776.432	514.835
776.483	523.778
776.534	518.823
776.585	529.546
776.636	524.577
776.688	523.051
776.739	498.8
776.79	519.845
776.841	512.951
776.892	530.477
776.943	518.36
776.994	527.226
777.046	497.724
777.097	511.918
777.148	496.434
777.199	505.424
777.25	484.667
777.301	521.637
777.352	514.842
777.404	501.03
777.455	515.261
777.506	513.752
777.557	507.014
777.608	509.076
777.659	504.129
777.71	502.681
777.762	502.955
777.813	492.62
777.864	517.419
777.915	515.782
777.966	528.214
778.017	517.776
778.068	498.572
778.12	500.564
778.171	513.193
778.222	513.516
778.273	515.6
778.324	508.815
778.375	489.596
778.426	502.132
778.477	505.794
778.529	497.062
778.58	493.646
778.631	515.036
778.682	509.923
778.733	504.843
778.784	485.613
778.835	498.306
778.886	526.998
778.938	500.689
778.989	502.762
779.04	479.926
779.091	517.494
779.142	512.354
779.193	510.732
779.244	473.487
779.295	480.733
779.347	496.904
779.398	502.421
779.449	486.578
779.5	508.181
779.551	467.371
779.602	483.627
779.653	489.173
779.704	500.073
779.755	494.898
779.807	502.234
779.858	482.769
779.909	506.242
779.96	483.239
780.011	485.324
780.062	508.965
780.113	475.289
780.164	491.84
780.216	490.443
780.267	508.776
780.318	501.879
780.369	500.295
780.42	491.443
780.471	482.55
780.522	480.857
780.573	491.803
780.624	482.982
780.675	499.448
780.727	490.716
780.778	491.023
780.829	503.977
780.88	493.44
780.931	482.872
780.982	497.605
781.033	472.511
781.084	510.782
781.135	474.793
781.187	489.543
781.238	486.178
781.289	508.226
781.34	484.881
781.391	463.303
781.442	483.476
781.493	494.539
781.544	481.938
781.595	478.41
781.646	451.22
781.698	489.532
781.749	493.278
781.8	486.112
781.851	453.465
781.902	471.84
781.953	472.05
782.004	475.96
782.055	448.897
782.106	478.424
782.157	486.052
782.208	460.734
782.26	457.279
782.311	483.038
782.362	468.505
782.413	463.105
782.464	466.87
782.515	468.835
782.566	467.166
782.617	456.351
782.668	465.7
782.719	476.886
782.77	467.892
782.821	477.249
782.872	460.916
782.924	459.281
782.975	466.846
783.026	456.031
783.077	443.358
783.128	472.993
783.179	471.345
783.23	449.44
783.281	440.436
783.332	444.361
783.383	470.467
783.434	468.945
783.485	450.807
783.536	475.163
783.588	445.878
783.639	462.804
783.69	464.89
783.741	459.523
783.792	442.991
783.843	448.664
783.894	469.154
783.945	450.699
783.996	456.371
784.047	462.085
784.098	443.726
784.149	445.841
784.2	453.587
784.252	433.47
784.303	448.703
784.354	463.946
784.405	449.353
784.456	460.837
784.507	464.852
784.558	457.652
784.609	467.254
784.66	465.621
784.711	445.239
784.762	445.375
784.813	449.204
784.864	430.534
784.915	426.827
784.966	456.837
785.017	443.824
785.068	451.455
785.12	444.137
785.171	440.587
785.222	444.547
785.273	425.99
785.324	463.737
785.375	445.163
785.426	439.722
785.477	464.349
785.528	434.445
785.579	445.898
785.63	464.878
785.681	433.033
785.732	435.072
785.783	429.589
785.834	435.43
785.885	441.304
785.936	443.44
785.987	456.944
786.038	442.157
786.089	429.265
786.141	448.53
786.192	452.65
786.243	432.082
786.294	441.749
786.345	439.958
786.396	426.715
786.447	457.05
786.498	438.077
786.549	426.725
786.6	413.531
786.651	430.752
786.702	448.043
786.753	417.905
786.804	456.177
786.855	427.93
786.906	407.245
786.957	432.205
787.008	449.532
787.059	449.687
787.11	428.849
787.161	425.15
787.212	440.531
787.263	410.168
787.314	444.712
787.365	439.23
787.416	431.863
787.467	414.94
787.518	413.295
787.57	421.195
787.621	429.066
787.672	431.153
787.723	423.619
787.774	419.89
787.825	408.478
787.876	425.837
787.927	429.79
787.978	443.362
788.029	430.083
788.08	434.094
788.131	415.055
788.182	428.678
788.233	430.764
788.284	444.383
788.335	394.496
788.386	408.098
788.437	412.083
788.488	400.672
788.539	408.54
788.59	416.432
788.641	397.341
788.692	451.563
788.743	424.735
788.794	409.451
788.845	417.317
788.896	413.578
788.947	398.241
788.998	421.592
789.049	417.91
789.1	416.2
789.151	416.457
789.202	414.793
789.253	426.703
789.304	432.783
789.355	413.589
789.406	396.272
789.457	417.754
789.508	411.991
789.559	417.857
789.61	408.17
789.661	414.06
789.712	385.012
789.763	422.161
789.814	420.499
789.865	416.943
789.916	411.444
789.967	409.809
790.018	406.158
790.069	406.346
790.12	404.54
790.171	412.507
790.222	400.962
790.273	405.116
790.324	415.198
790.375	382.184
790.426	378.505
790.477	427.728
790.528	402.32
790.579	404.319
790.63	410.224
790.681	394.567
790.732	394.675
790.783	408.612
790.834	410.837
790.885	391.469
790.936	411.456
790.987	401.904
791.038	376.533
791.089	408.291
791.14	396.621
791.191	400.688
791.242	377.081
791.293	406.755
791.344	400.889
791.395	395.045
791.446	389.242
791.497	387.445
791.548	401.521
791.599	389.917
791.65	382.252
791.701	388.405
791.752	372.699
791.803	386.692
791.854	404.66
791.905	406.793
791.956	393.099
792.007	383.423
792.058	377.759
792.109	403.951
792.16	382.388
792.211	392.654
792.262	392.919
792.313	395.128
792.363	403.279
792.414	381.438
792.465	387.52
792.516	391.592
792.567	401.664
792.618	387.776
792.669	385.913
792.72	394.093
792.771	384.305
792.822	396.557
792.873	392.794
792.924	397.033
792.975	387.217
793.026	379.391
793.077	373.577
793.128	363.765
793.179	376.098
793.23	380.429
793.281	384.783
793.332	381.072
793.383	379.349
793.434	385.666
793.485	373.772
793.536	402.261
793.587	382.212
793.638	382.353
793.689	376.406
793.74	388.665
793.79	370.564
793.841	388.933
793.892	381.001
793.943	373.087
793.994	397.636
794.045	357.249
794.096	373.661
794.147	390.057
794.198	361.737
794.249	378.12
794.3	370.128
794.351	380.463
794.402	368.43
794.453	348.236
794.504	389.122
794.555	381.097
794.606	373.048
794.657	377.237
794.708	375.345
794.758	393.917
794.809	355.377
794.86	351.553
794.911	374.298
794.962	372.462
795.013	376.693
795.064	380.861
795.115	370.667
795.166	376.878
795.217	364.723
795.268	356.752
795.319	363.223
795.37	375.925
795.421	374.26
795.472	362.248
795.523	358.368
795.573	368.816
795.624	352.408
795.675	379.25
795.726	356.639
795.777	367.052
795.828	352.766
795.879	365.327
795.93	382.033
795.981	363.603
796.032	367.847
796.083	365.852
796.134	347.298
796.185	388.711
796.236	390.892
796.286	376.585
796.337	368.534
796.388	370.876
796.439	364.944
796.49	354.846
796.541	350.939
796.592	355.305
796.643	355.486
796.694	351.48
796.745	362.014
796.796	341.322
796.847	372.653
796.897	349.854
796.948	368.705
796.999	364.656
797.05	364.786
797.101	360.761
797.152	360.92
797.203	346.48
797.254	363.363
797.305	342.663
797.356	359.577
797.407	357.686
797.458	359.971
797.508	360.149
797.559	370.775
797.61	375.094
797.661	339.566
797.712	350.137
797.763	371.211
797.814	371.352
797.865	354.751
797.916	333.983
797.967	346.866
798.018	374.528
798.068	353.809
798.119	373.08
798.17	333.277
798.221	354.577
798.272	363.175
798.323	344.279
798.374	338.03
798.425	361.371
798.476	355.165
798.526	361.697
798.577	351.363
798.628	345.299
798.679	362.571
798.73	358.643
798.781	361.04
798.832	354.875
798.883	361.392
798.934	361.481
798.984	327.521
799.035	353.123
799.086	340.477
799.137	349.159
799.188	340.847
799.239	353.855
799.29	337.003
799.341	337.17
799.392	337.296
799.443	345.931
799.493	360.965
799.544	343.97
799.595	326.987
799.646	350.64
799.697	350.8
799.748	342.398
799.799	351.091
799.85	344.758
799.9	331.952
799.951	355.517
800.002	325.525
800.053	338.38
800.104	340.565
800.155	321.38
800.206	332.24
800.257	334.567
800.307	354.077
800.358	328.511
800.409	324.385
800.46	350.332
800.511	344.05
800.562	335.624
800.613	329.357
800.664	340.32
800.714	334.044
800.765	334.202
800.816	325.698
800.867	334.423
800.918	347.46
800.969	356.199
801.02	332.579
801.07	328.412
801.121	328.584
801.172	313.621
801.223	320.276
801.274	348.578
801.325	331.414
801.376	309.903
801.427	329.577
801.477	316.74
801.528	312.573
801.579	317.076
801.63	325.902
801.681	326.009
801.732	336.957
801.783	315.281
801.833	337.096
801.884	339.364
801.935	324.249
801.986	326.557
802.037	317.981
802.088	335.528
802.139	342.164
802.189	331.342
802.24	324.876
802.291	335.869
802.342	316.344
802.393	320.825
802.444	338.406
802.495	312.305
802.545	334.234
802.596	319.02
802.647	305.993
802.698	317.032
802.749	317.176
802.8	310.782
802.85	313.157
802.901	308.962
802.952	326.679
803.003	302.725
803.054	329.217
803.105	300.836
803.155	305.375
803.206	292.326
803.257	316.628
803.308	321.126
803.359	323.404
803.41	292.663
803.46	301.531
803.511	308.223
803.562	308.344
803.613	315.11
803.664	324.112
803.715	317.691
803.765	326.711
803.816	322.475
803.867	300.541
803.918	309.527
803.969	316.304
804.02	300.955
804.07	316.583
804.121	325.572
804.172	290.245
804.223	314.724
804.274	321.474
804.325	310.485
804.375	312.805
804.426	324.013
804.477	284.172
804.528	308.707
804.579	311.032
804.63	286.671
804.68	306.733
804.731	320.119
804.782	313.495
804.833	315.775
804.884	295.837
804.934	313.738
804.985	322.768
805.036	302.86
805.087	291.834
805.138	325.345
805.188	303.122
805.239	285.331
805.29	303.203
805.341	318.861
805.392	316.706
805.443	296.724
805.493	301.29
805.544	307.976
805.595	303.671
805.646	299.594
805.697	308.056
805.747	318.806
805.798	313.228
805.849	303.709
805.9	304.224
805.951	300.379
806.001	309.76
806.052	298.598
806.103	287.889
806.154	281.852
806.205	322.093
806.255	293.996
806.306	290.758
806.357	314.844
806.408	302.597
806.459	291.401
806.509	288.648
806.56	302.144
806.611	294.225
806.662	301.388
806.713	302.458
806.763	305.908
806.814	285.675
806.865	301.708
806.916	288.734
806.967	302.745
807.017	268.07
807.068	290.88
807.119	297.752
807.17	294.832
807.22	301.279
807.271	300.031
807.322	281.016
807.373	295.67
807.424	299.048
807.474	281.086
807.525	291.032
807.576	301.886
807.627	299.99
807.678	283.234
807.728	289.831
807.779	293.594
807.83	298.731
807.881	280.037
807.931	279.304
807.982	288.614
808.033	283.454
808.084	278.997
808.135	289.158
808.185	283.056
808.236	286.435
808.287	284.755
808.338	268.858
808.388	284.415
808.439	285.425
808.49	278.031
808.541	272.255
808.591	291.237
808.642	280.014
808.693	282.399
808.744	291.605
808.795	283.263
808.845	287.764
808.896	294.693
808.947	272.961
808.998	286.218
809.048	268.549
809.099	282.047
809.15	282.338
809.201	279.342
809.251	273.752
809.302	282.304
809.353	277.245
809.404	289.252
809.454	271.131
809.505	281.66
809.556	279.548
809.607	277.469
809.658	277.492
809.708	277.27
809.759	263.047
809.81	290.918
809.861	278.533
809.911	274.684
809.962	274.365
810.013	284.394
810.064	281.086
810.114	272.543
810.165	259.322
810.216	266.06
810.267	290.572
810.317	284.888
810.368	268.114
810.419	281.384
810.469	285.109
810.52	282.576
810.571	255.828
810.622	261.093
810.627	261.943
810.678	266.745
810.729	285.474
810.78	264.731
810.831	262.532
810.882	244.042
810.933	288.296
810.984	272.096
811.035	274.488
811.086	265.238
811.137	255.979
811.188	267.664
811.239	270.052
811.29	263.144
811.341	277.219
811.392	268.019
811.443	261.151
811.494	272.937
811.545	273.054
811.596	261.486
811.648	270.925
811.699	268.695
811.75	271.152
811.801	264.271
811.852	264.41
811.903	264.545
811.954	297.453
812.005	295.21
812.056	248.403
812.107	264.832
812.158	278.896
812.209	267.171
812.26	271.861
812.311	262.517
812.362	257.9
812.413	267.401
812.464	279.301
812.515	246.615
812.566	265.584
812.617	279.829
812.668	270.5
812.719	254.046
812.77	251.66
812.821	270.422
812.872	268.035
812.923	265.698
812.974	284.592
813.025	237.677
813.076	268.452
813.127	261.579
813.178	264.111
813.229	247.732
813.28	269.061
813.331	245.514
813.382	259.72
813.433	266.852
813.484	264.557
813.535	267.009
813.586	264.752
813.637	238.853
813.688	255.518
813.739	262.73
813.79	267.588
813.841	246.406
813.892	258.411
813.943	256.22
813.994	251.662
814.045	258.965
814.096	266.24
814.147	252.06
814.198	261.587
814.249	254.403
814.3	263.817
814.351	254.207
814.402	249.383
814.453	246.997
814.504	256.568
814.555	237.705
814.606	261.697
814.657	245.283
814.708	257.438
814.759	267.194
814.81	236.33
814.861	243.591
814.912	234.09
814.963	262.779
815.014	269.958
815.065	250.862
815.116	258.063
815.167	255.73
815.217	267.763
815.268	246.337
815.319	267.964
815.37	253.698
815.421	244.195
815.472	253.825
815.523	258.651
815.574	244.301
815.625	277.842
815.676	256.277
815.727	268.223
815.778	249.011
815.829	256.119
815.88	248.856
815.931	234.434
815.982	246.365
816.033	253.572
816.084	241.709
816.135	265.818
816.186	227.695
816.237	242.297
816.288	259.309
816.339	252.276
816.39	247.578
816.441	259.643
816.492	238.001
816.543	233.164
816.594	249.961
816.645	240.351
816.696	242.808
816.747	223.674
816.798	226.219
816.849	236.015
816.9	262.695
816.951	258.038
817.001	258.169
817.052	248.611
817.103	243.845
817.154	243.884
817.205	241.494
817.256	236.682
817.307	239.123
817.358	224.676
817.409	234.425
817.46	217.633
817.511	227.484
817.562	259.185
817.613	235.183
817.664	232.949
817.715	245.22
817.766	250.143
817.817	240.431
817.868	208.828
817.919	242.784
817.97	225.776
818.021	233.084
818.071	250.148
818.122	228.377
818.173	264.931
818.224	235.858
818.275	235.939
818.326	231.144
818.377	226.343
818.428	241.019
818.479	243.536
818.53	236.321
818.581	246.172
818.632	231.655
818.683	239.088
818.734	236.771
818.785	232.013
818.836	232.137
818.887	242.036
818.938	227.474
818.988	230.016
819.039	232.546
819.09	222.825
819.141	215.539
819.192	227.846
819.243	225.454
819.294	240.222
819.345	247.647
819.396	233.014
819.447	240.471
819.498	235.683
819.549	228.459
819.6	240.917
819.651	206.668
819.702	238.855
819.753	246.451
819.803	241.713
819.854	251.755
819.905	224.737
819.956	234.724
820.007	229.857
820.058	232.373
820.109	242.277
820.16	229.91
820.211	247.199
820.262	229.886
820.313	242.262
820.364	227.483
820.415	227.579
820.465	232.662
820.516	245.203
820.567	230.495
820.618	238.064
820.669	233.199
820.72	230.777
820.771	233.297
820.822	228.372
820.873	240.847
820.924	221.074
820.975	208.77
821.026	238.745
821.076	216.497
821.127	236.529
821.178	234.127
821.229	239.162
821.28	249.155
821.331	226.748
821.382	221.786
821.433	229.3
821.484	224.371
821.535	221.946
821.586	234.494
821.637	214.61
821.687	219.671
821.738	232.224
821.789	222.305
821.84	232.374
821.891	217.464
821.942	215.055
821.993	230.162
822.044	227.762
822.095	240.375
822.146	217.914
822.196	215.464
822.247	215.503
822.298	233.078
822.349	223.092
822.4	198.081
822.451	235.797
822.502	220.889
822.553	223.584
822.604	233.85
822.655	231.549
822.706	214.105
822.756	231.882
822.807	211.807
822.858	221.951
822.909	239.647
822.96	227.068
823.011	217.013
823.062	222.099
823.113	229.701
823.164	219.604
823.214	196.86
823.265	227.097
823.316	214.433
823.367	196.746
823.418	216.923
823.469	232.089
823.52	209.439
823.571	234.745
823.622	217.138
823.672	196.979
823.723	224.78
823.774	217.203
823.825	232.345
823.876	232.329
823.927	212.119
823.978	212.122
824.029	212.139
824.08	209.644
824.13	227.371
824.181	214.791
824.232	189.573
824.283	222.494
824.334	212.443
824.385	222.626
824.436	217.637
824.487	202.523
824.537	210.195
824.588	205.203
824.639	202.732
824.69	217.988
824.741	207.88
824.792	230.715
824.843	190.161
824.893	213.001
824.944	215.572
824.995	205.477
825.046	208.074
825.097	220.828
825.148	228.504
825.199	205.701
825.25	213.363
825.3	221.033
825.351	216.015
825.402	205.928
825.453	213.655
825.504	211.22
825.555	218.962
825.606	229.242
825.657	203.83
825.707	198.765
825.758	201.317
825.809	193.659
825.86	208.927
825.911	216.553
825.962	214.001
826.013	226.752
826.063	214.036
826.114	214.062
826.165	208.982
826.216	201.337
826.267	193.674
826.318	214.028
826.369	206.346
826.419	203.763
826.47	206.284
826.521	211.362
826.572	218.994
826.623	198.621
826.674	198.625
826.725	208.822
826.775	198.656
826.826	213.976
826.877	201.29
826.928	209
826.979	196.323
827.03	204.04
827.08	201.552
827.131	201.607
827.182	209.317
827.233	209.375
827.284	194.115
827.335	196.735
827.386	207.024
827.436	214.747
827.487	173.863
827.538	212.202
827.589	209.593
827.64	201.851
827.691	217.099
827.741	204.277
827.792	199.168
827.843	194.122
827.894	166.132
827.945	202.098
827.996	202.311
828.046	207.651
828.097	202.71
828.148	187.439
828.199	208.058
828.25	187.523
828.301	190.06
828.351	190.004
828.402	202.785
828.453	192.491
828.504	200.202
828.555	197.687
828.606	202.908
828.656	195.305
828.707	190.268
828.758	200.651
828.809	193.009
828.86	198.212
828.911	200.823
828.961	208.569
829.012	187.98
829.063	203.437
829.114	175.115
829.165	203.449
829.216	198.308
829.266	193.171
829.317	177.736
829.368	195.795
829.419	206.136
829.47	190.715
829.52	190.757
829.571	193.376
829.622	195.993
829.673	201.187
829.724	188.326
829.774	209.013
829.825	196.173
829.876	183.344
829.927	196.354
829.978	196.462
830.029	217.255
830.079	217.35
830.13	188.947
830.181	181.222
830.232	209.731
830.283	199.402
830.333	189.075
830.384	207.244
830.435	202.098
830.486	204.713
830.537	183.987
830.587	215.067
830.638	191.719
830.689	204.641
830.74	189.079
830.791	202.029
830.841	199.466
830.892	194.339
830.943	178.861
830.994	199.69
831.045	168.647
831.095	210.245
831.146	173.959
831.197	205.151
831.248	192.181
831.299	179.199
831.349	184.399
831.4	197.406
831.451	202.642
831.502	187.107
831.553	176.769
831.603	208.023
831.654	184.658
831.705	202.882
831.756	174.272
831.807	189.872
831.857	184.668
831.908	179.476
831.959	184.703
832.01	213.361
832.061	184.779
832.111	200.432
832.162	192.649
832.213	192.668
832.264	195.29
832.315	192.714
832.365	174.526
832.416	190.219
832.467	195.513
832.518	182.56
832.568	174.808
832.619	195.745
832.67	198.399
832.721	187.979
832.772	187.986
832.822	190.6
832.873	174.939
832.924	180.175
832.975	169.757
833.025	201.144
833.076	195.98
833.127	177.751
833.178	164.741
833.229	175.26
833.279	180.543
833.33	177.967
833.381	177.998
833.432	193.731
833.482	185.901
833.533	193.784
833.584	180.72
833.635	185.99
833.685	193.882
833.736	193.913
833.787	191.321
833.838	188.729
833.889	180.898
833.939	196.673
833.99	167.871
834.041	183.658
834.092	178.449
834.142	188.971
834.193	175.852
834.244	181.089
834.295	183.696
834.345	181.065
834.396	194.203
834.447	186.378
834.498	178.574
834.548	176.031
834.599	178.741
834.65	173.547
834.701	184.109
834.751	181.5
834.802	165.725
834.853	176.254
834.904	186.788
834.954	165.756
835.005	171.033
835.056	189.458
835.107	178.924
835.157	186.795
835.208	168.352
835.259	194.633
835.31	176.217
835.36	202.539
835.411	168.381
835.462	171.06
835.513	179
835.563	173.763
835.614	179.035
835.665	179.024
835.716	184.272
835.766	171.106
835.817	157.963
835.868	189.613
835.919	181.796
835.969	176.624
836.02	155.621
836.071	176.805
836.122	179.505
836.172	187.461
836.223	166.35
836.274	176.905
836.325	161.045
836.375	184.774
836.426	184.729
836.477	176.76
836.528	160.876
836.578	179.277
836.629	171.318
836.68	179.191
836.73	179.176
836.781	171.277
836.832	160.757
836.883	160.784
836.933	168.726
836.984	184.585
837.035	158.254
837.086	179.4
837.136	171.523
837.187	163.629
837.238	168.908
837.288	176.795
837.339	176.739
837.39	166.125
837.441	166.075
837.491	181.873
837.542	158.179
837.593	176.711
837.643	168.901
837.694	166.365
837.745	192.862
837.796	163.835
837.846	163.824
837.897	169.061
837.948	147.87
837.999	155.732
838.049	171.522
838.1	179.414
838.151	158.302
838.201	174.135
838.252	160.941
838.303	163.564
838.354	171.443
838.404	166.12
838.455	166.068
838.506	171.292
838.556	168.624
838.607	171.244
838.658	147.533
838.708	184.428
838.759	163.365
838.81	171.285
838.861	152.852
838.911	166.041
838.962	166.058
839.013	173.986
839.063	155.556
839.114	176.679
839.165	166.165
839.216	174.12
839.266	153.056
839.317	174.217
839.368	174.262
839.418	155.808
839.469	147.896
839.52	171.656
839.57	161.069
839.621	168.962
839.672	166.302
839.722	176.86
839.773	158.402
839.824	158.441
839.875	153.209
839.925	166.473
839.976	158.597
840.027	166.575
840.077	153.394
840.128	153.428
840.179	158.748
840.229	169.355
840.28	164.075
840.331	161.429
840.381	174.652
840.432	171.991
840.483	153.458
840.534	166.684
840.584	153.464
840.635	161.425
840.686	158.812
840.736	156.206
840.787	150.953
840.838	182.783
840.888	161.633
840.939	161.675
840.99	174.972
841.04	169.713
841.091	143.233
841.142	161.842
841.192	172.497
841.243	151.301
841.294	159.294
841.344	180.562
841.395	175.275
841.446	151.393
841.496	159.385
841.547	170.041
841.598	159.45
841.648	167.468
841.699	156.884
841.75	156.934
841.8	156.979
841.851	172.979
841.902	157.026
841.952	149.033
842.003	143.681
842.054	172.892
842.104	146.236
842.155	146.178
842.206	154.1
842.256	170.006
842.307	169.993
842.358	170.001
842.408	154.083
842.459	154.108
842.51	146.161
842.56	167.442
842.611	151.509
842.662	146.202
842.712	154.184
842.763	170.138
842.814	148.872
842.864	156.844
842.915	162.153
842.966	151.511
843.016	167.456
843.067	156.831
843.118	148.88
843.168	154.237
843.219	154.287
843.269	167.642
843.32	149.056
843.371	157.07
843.421	154.425
843.472	141.126
843.523	157.124
843.573	165.155
843.624	151.892
843.675	146.628
843.725	162.696
843.776	178.764
843.827	160.122
843.877	152.125
843.928	157.451
843.979	170.767
844.029	154.73
844.08	154.707
844.13	133.353
844.181	154.682
844.232	152.015
844.282	157.358
844.333	141.374
844.384	162.748
844.434	160.124
844.485	152.164
844.536	146.868
844.586	157.587
844.637	154.943
844.687	146.944
844.738	152.297
844.789	144.288
844.839	154.985
844.89	154.998
844.941	149.667
844.991	141.662
845.042	147.022
845.092	155.055
845.143	139.03
845.194	152.417
845.244	155.113
845.295	128.388
845.346	149.805
845.396	128.416
845.447	141.803
845.497	157.868
845.548	133.803
845.599	139.184
845.649	149.935
845.7	158.023
845.75	152.721
845.801	147.406
845.852	155.476
845.902	155.488
845.953	144.765
846.004	152.807
846.054	139.409
846.105	147.47
846.155	131.407
846.206	155.574
846.257	139.503
846.307	147.566
846.358	128.79
846.409	147.577
846.459	150.272
846.51	163.719
846.56	142.289
846.611	147.711
846.661	142.39
846.712	139.739
846.763	139.751
846.813	142.426
846.864	131.647
846.915	147.724
846.965	142.315
847.016	139.609
847.066	139.607
847.117	139.623
847.168	150.392
847.218	155.794
847.269	147.756
847.319	142.392
847.37	142.392
847.421	137.014
847.471	134.327
847.522	145.083
847.572	123.608
847.623	139.763
847.674	137.112
847.724	139.837
847.775	147.938
847.825	145.275
847.876	150.675
847.926	142.617
847.977	131.866
848.028	131.879
848.078	137.282
848.129	129.232
848.179	140.035
848.23	156.238
848.281	153.588
848.331	137.456
848.382	132.09
848.432	140.193
848.483	156.38
848.534	148.304
848.584	126.753
848.635	134.882
848.685	159.223
848.736	129.595
848.786	140.455
848.837	145.906
848.888	135.126
848.938	127.034
848.989	140.562
849.039	140.584
849.09	143.327
849.14	146.086
849.191	132.614
849.242	143.491
849.292	132.689
849.343	143.528
849.393	132.684
849.444	132.671
849.494	138.086
849.545	146.235
849.596	127.324
849.646	146.359
849.697	132.877
849.747	146.501
849.798	135.69
849.848	122.137
849.899	149.277
849.95	143.835
850	132.964
850.051	127.528
850.101	130.239
850.152	143.811
850.202	132.967
850.253	141.12
850.303	122.132
850.354	149.285
850.405	127.583
850.455	143.889
850.506	133.052
850.556	143.944
850.607	127.679
850.657	111.406
850.708	149.48
850.758	133.2
850.809	130.505
850.86	133.243
850.91	130.537
850.961	133.262
851.011	135.977
851.062	135.965
851.112	130.512
851.163	122.346
851.213	114.194
851.264	133.254
851.314	133.306
851.365	141.546
851.416	117.123
851.466	122.651
851.517	133.63
851.567	130.962
851.618	128.272
851.668	139.214
851.719	131.037
851.769	125.583
851.82	128.317
851.87	144.706
851.921	141.99
851.971	144.743
852.022	136.58
852.073	142.082
852.123	131.192
852.174	150.367
852.224	133.991
852.275	131.271
852.325	150.307
852.376	142.082
852.426	128.791
852.477	139.17
852.527	136.483
852.578	130.543
852.628	129.476
852.679	156.284
852.729	140.065
852.78	126.007
852.831	126.839
852.881	133.627
852.932	125.716
852.982	132.321
853.033	114.989
853.083	141.05
853.134	126.122
853.184	128.754
853.235	118.104
853.285	138.689
853.336	133.341
853.386	122.496
853.437	118.282
853.487	127.322
853.538	129.555
853.588	128.86
853.639	116.42
853.689	130.134
853.74	127.704
853.79	131.604
853.841	120.407
853.891	123.654
853.942	127.524
853.992	131.315
854.043	125.192
854.093	132.325
854.144	121.793
854.194	131.797
854.245	123.628
854.295	121.693
854.346	127.712
854.396	126.553
854.447	131.272
854.497	135.516
854.548	127.447
854.598	134.018
854.649	122.426
854.699	127.752
854.75	134.36
854.8	134.394
854.851	112.515
854.901	127.255
854.952	121.415
855.002	123.654
855.053	122.826
855.103	130.254
855.154	132.772
855.204	125.623
855.255	126.575
855.305	127.803
855.356	119.532
855.406	122.051
855.457	125.966
855.507	129.275
855.558	131.251
855.608	126.347
855.659	124.572
855.709	127.792
855.76	118.004
855.81	123.55
855.861	121.409
855.911	124.956
855.962	124.055
856.012	126.892
856.063	127.626
856.113	130.674
856.164	125.076
856.214	126.336
856.265	111.975
856.315	120.477
856.366	122.878
856.416	120.761
856.467	117.48
856.517	112.01
856.568	120.199
856.618	126.549
856.668	116.873
856.719	118.031
856.769	119.927
856.82	120.149
856.87	121.83
856.921	121.562
856.971	124.448
857.022	129.846
857.072	118.684
857.123	120.454
857.173	128.508
857.224	132.886
857.274	131.9
857.325	129.727
857.352	135.813
857.403	121.964
857.453	113.655
857.504	119.205
857.555	116.437
857.606	116.439
857.656	119.21
857.707	110.888
857.758	121.969
857.809	130.276
857.859	127.5
857.91	108.102
857.961	121.978
858.012	113.686
858.063	133.135
858.113	113.754
858.164	124.884
858.215	116.578
858.266	116.581
858.316	124.896
858.367	99.8967
858.418	116.517
858.469	113.715
858.519	138.65
858.57	113.679
858.621	116.444
858.672	119.21
858.722	105.342
858.773	108.104
858.824	116.406
858.875	127.479
858.925	119.16
858.976	116.395
859.027	113.64
859.078	110.89
859.128	113.681
859.179	119.237
859.23	127.55
859.281	113.67
859.331	124.736
859.382	116.403
859.433	119.168
859.483	116.405
859.534	108.107
859.585	119.215
859.636	116.457
859.686	102.595
859.737	113.68
859.788	133.076
859.839	121.982
859.889	124.763
859.94	91.5096
859.991	113.724
860.042	105.432
860.092	111.004
860.143	122.114
860.194	119.33
860.245	108.21
860.295	94.316
860.346	108.167
860.397	116.481
860.447	116.493
860.498	122.072
860.549	113.791
860.6	124.942
860.65	119.43
860.701	113.899
860.752	116.684
860.802	113.895
860.853	122.206
860.904	105.519
860.955	127.713
861.005	116.599
861.056	119.381
861.107	116.621
861.158	105.536
861.208	119.45
861.259	113.921
861.31	113.948
861.36	113.974
861.411	100.096
861.462	111.239
861.513	94.5674
861.563	111.266
861.614	125.178
861.665	108.483
861.715	119.599
861.766	105.677
861.817	113.997
861.868	125.088
861.918	100.039
861.969	97.225
862.02	113.849
862.07	119.36
862.121	111.001
862.172	110.982
862.223	110.977
862.273	110.985
862.324	102.677
862.375	113.797
862.425	108.262
862.476	111.045
862.527	94.3837
862.577	102.694
862.628	105.441
862.679	102.634
862.73	113.697
862.78	113.677
862.831	113.679
862.882	116.479
862.932	113.759
862.983	122.159
863.034	113.907
863.084	111.198
863.135	97.3406
863.186	125.176
863.237	119.602
863.287	114.002
863.338	122.287
863.389	111.113
863.439	111.063
863.49	116.579
863.541	102.686
863.591	119.344
863.642	97.1617
863.693	127.742
863.744	108.348
863.794	105.614
863.845	119.552
863.896	111.237
863.946	114.029
863.997	114.027
864.048	105.677
864.098	111.235
864.149	108.462
864.2	105.701
864.25	111.297
864.301	111.332
864.352	105.792
864.402	119.726
864.453	103.017
864.504	111.354
864.555	111.332
864.605	125.226
864.656	94.6021
864.707	114.068
864.757	111.276
864.808	111.261
864.859	111.239
864.909	113.99
864.96	113.961
865.011	111.167
865.061	100.054
865.112	105.632
865.163	100.103
865.213	105.698
865.264	102.943
865.315	102.956
865.365	105.737
865.416	105.726
865.467	105.713
865.517	116.834
865.568	94.5861
865.619	91.8223
865.669	114.117
865.72	122.51
865.771	100.27
865.821	119.802
865.872	111.469
865.923	108.701
865.973	103.143
866.024	94.7953
866.075	105.966
866.125	119.93
866.176	106
866.227	106.009
866.277	106.01
866.328	122.742
866.379	103.207
866.429	108.777
866.48	94.8288
866.531	103.199
866.581	111.573
866.632	111.58
866.683	106.004
866.733	114.371
866.784	100.416
866.835	108.777
866.885	103.197
866.936	92.0488
866.987	117.18
867.037	100.477
867.088	100.522
867.138	111.742
867.189	106.196
867.24	100.631
867.29	106.229
867.341	100.63
867.392	103.407
867.442	97.8002
867.493	103.378
867.544	100.586
867.594	97.806
867.645	92.2402
867.696	95.0642
867.746	106.28
867.797	109.105
867.848	114.722
867.898	128.729
867.949	92.3573
867.999	100.76
868.05	109.165
868.101	106.374
868.151	97.9857
868.202	103.595
868.253	112.007
868.303	103.617
868.354	100.829
868.405	103.645
868.455	106.469
868.506	92.485
868.556	106.534
868.607	92.5521
868.658	112.228
868.708	95.4271
868.759	106.684
868.81	103.898
868.86	98.2974
868.911	103.928
868.961	106.751
869.012	101.148
869.063	103.975
869.113	95.5618
869.164	95.5779
869.215	95.5927
869.265	112.478
869.316	106.868
869.367	104.067
869.417	90.0102
869.468	120.952
869.518	104.068
869.569	112.492
869.62	104.039
869.67	112.462
869.721	92.7789
869.771	104.033
869.822	104.049
869.873	109.691
869.923	106.891
869.974	104.08
870.025	95.6348
870.075	98.4366
870.126	95.6165
870.176	98.4304
870.227	98.4449
870.278	109.725
870.328	92.8772
870.379	118.254
870.43	107.033
870.48	87.3499
870.531	101.476
870.581	107.153
870.632	84.6252
870.683	110.051
870.733	87.5045
870.784	107.292
870.834	79.0731
870.885	93.2064
870.936	110.163
870.986	110.167
871.037	110.167
871.087	107.337
871.138	112.977
871.189	112.966
871.239	90.3668
871.29	101.663
871.34	101.675
871.391	93.224
871.442	96.0817
871.492	110.255
871.543	98.9879
871.593	101.855
871.644	110.378
871.695	110.405
871.745	101.929
871.796	101.938
871.846	107.604
871.897	96.2745
871.948	101.934
871.998	107.599
872.049	93.4504
872.099	99.1329
872.15	101.99
872.201	99.1798
872.251	107.696
872.302	99.1948
872.352	96.3507
872.403	102.003
872.453	99.1567
872.504	110.485
872.555	90.6598
872.605	102.005
872.656	102.015
872.706	107.686
872.757	93.5109
872.808	99.1653
872.858	110.484
872.909	99.1457
872.959	90.652
873.01	99.1678
873.06	79.3553
873.111	102.06
873.162	90.7467
873.212	102.114
873.263	96.4554
873.313	99.2972
873.364	87.9457
873.415	99.2842
873.465	102.111
873.516	93.5974
873.566	102.112
873.617	116.315
873.667	85.1329
873.718	102.192
873.769	105.058
873.819	102.23
873.87	82.3414
873.92	105.018
873.971	93.6136
874.021	104.895
874.072	102.002
874.123	84.9672
874.173	101.944
874.224	93.4562
874.274	99.1491
874.325	93.5234
874.375	90.7338
874.426	102.126
874.477	110.686
874.527	93.6946
874.578	116.445
874.628	96.584
874.679	88.0697
874.729	90.9073
874.78	93.7346
874.83	90.8755
874.881	105.053
874.932	90.8432
874.982	76.645
875.033	93.6815
875.083	102.209
875.134	113.579
875.184	88.0275
875.235	96.5382
875.285	102.2
875.336	87.9922
875.387	93.6629
875.437	96.5081
875.488	99.3678
875.538	88.0389
875.589	90.909
875.639	107.982
875.69	93.7843
875.74	99.4613
875.791	102.28
875.841	90.8883
875.892	93.7025
875.943	102.204
875.993	93.6888
876.044	107.905
876.094	85.2159
876.145	99.4559
876.195	99.4894
876.246	90.9825
876.296	93.8344
876.347	102.362
876.397	85.293
876.448	99.4977
876.499	102.334
876.549	90.9659
876.6	85.2896
876.65	90.9914
876.701	108.075
876.751	96.7186
876.802	91.0465
876.852	102.444
876.903	91.0741
876.953	105.318
877.004	102.485
877.054	96.805
877.105	99.6682
877.155	91.1417
877.206	96.8571
877.257	96.8763
877.307	91.1939
877.358	96.9065
877.408	85.5115
877.459	99.7631
877.509	85.506
877.56	88.348
877.61	91.19
877.661	99.734
877.711	91.1854
877.762	108.288
877.812	88.3468
877.863	82.6547
877.913	85.5135
877.964	102.628
878.014	82.6848
878.065	108.367
878.115	96.9837
878.166	94.1596
878.216	91.3374
878.267	97.0815
878.318	82.836
878.368	94.2974
878.419	100.05
878.469	88.648
878.52	91.539
878.57	103.013
878.621	80.1416
878.671	105.92
878.722	100.204
878.772	85.8882
878.823	83.0167
878.873	97.3122
878.924	85.8441
878.974	100.128
879.025	88.6693
879.075	100.104
879.126	97.252
879.176	94.4167
879.227	88.7335
879.277	105.969
879.328	83.1102
879.378	94.6344
879.429	94.6882
879.479	94.7301
879.53	94.7581
879.58	100.517
879.631	91.9058
879.681	106.265
879.732	86.1575
879.782	91.8987
879.833	71.7954
879.883	86.1561
879.934	80.4156
879.984	91.9091
880.035	91.9168
880.085	89.0548
880.136	83.3232
880.186	100.585
880.237	91.991
880.287	94.8994
880.338	97.8135
880.388	89.2189
880.439	83.4953
880.489	100.807
880.54	95.0786
880.59	92.2288
880.641	86.4952
880.691	100.948
880.742	83.6717
880.792	80.8095
880.842	86.597
880.893	89.4882
880.943	86.597
880.994	80.8161
881.044	98.1282
881.095	98.1336
881.145	86.6063
881.196	95.2999
881.246	83.7847
881.297	101.165
881.347	86.7478
881.398	80.991
881.448	89.6911
881.499	95.498
881.549	81.046
881.6	98.4369
881.65	92.6715
881.701	98.4901
881.751	75.3335
881.802	95.6314
881.852	89.8434
881.902	86.9478
881.953	84.051
882.003	89.852
882.054	98.5584
882.104	98.5753
882.155	95.6946
882.205	87.0089
882.256	78.3135
882.306	89.9114
882.357	78.2989
882.407	95.6817
882.458	72.4767
882.508	98.5676
882.559	69.5881
882.609	101.515
882.659	87.0516
882.71	84.1915
882.76	90.0411
882.811	87.1733
882.861	87.2032
882.912	107.579
882.962	87.245
883.013	98.8948
883.063	78.5462
883.114	98.9249
883.164	84.3909
883.214	87.3175
883.265	81.5149
883.315	96.0963
883.366	84.4713
883.416	90.3192
883.467	81.5936
883.517	96.1734
883.568	81.6038
883.618	72.8603
883.669	90.3494
883.719	87.4449
883.769	81.6335
883.82	96.2408
883.87	72.9347
883.921	78.7938
883.971	102.164
884.022	84.6635
884.072	99.2722
884.123	108.046
884.173	99.3054
884.223	78.8821
884.274	90.5979
884.324	84.7793
884.375	76.027
884.425	84.8099
884.476	99.4342
884.526	87.7324
884.577	90.6535
884.627	81.8828
884.677	64.3446
884.728	81.9113
884.778	90.7135
884.829	96.5951
884.879	87.8375
884.93	99.569
884.98	84.9355
885.03	99.5793
885.081	84.9256
885.131	87.8351
885.182	84.8825
885.232	90.7074
885.283	81.9062
885.333	96.5158
885.383	78.9669
885.434	93.6061
885.484	81.9298
885.535	96.5924
885.585	73.1951
885.635	84.9107
885.686	84.901
885.736	73.176
885.787	70.2378
885.837	90.7214
885.888	76.1008
885.938	90.7647
885.988	84.9437
886.039	96.6978
886.089	82.0688
886.14	93.8023
886.19	79.1409
886.241	87.9207
886.291	70.3262
886.341	79.1128
886.392	79.1203
886.442	85.0009
886.493	76.2316
886.543	102.651
886.593	88.0055
886.644	82.1452
886.694	73.3408
886.745	85.066
886.795	70.3933
886.845	87.9935
886.896	61.6066
886.946	90.9746
886.997	76.3374
887.047	64.6276
887.097	88.1752
887.148	88.2172
887.198	79.4276
887.249	85.3392
887.299	88.305
887.349	91.2663
887.4	79.5002
887.45	88.3392
887.501	64.783
887.551	91.285
887.602	91.2875
887.652	82.4615
887.702	79.5321
887.753	94.287
887.803	79.581
887.853	88.4521
887.904	79.6282
887.954	85.5426
888.005	76.7022
888.055	94.4107
888.105	67.8651
888.156	91.4874
888.206	73.8014
888.257	88.5953
888.307	64.9977
888.357	94.5807
888.408	76.8713
888.458	82.7995
888.509	82.8022
888.559	91.666
888.609	73.9136
888.66	82.7729
888.71	70.9451
888.76	82.7751
888.811	85.7469
888.861	73.9386
888.912	85.7924
888.962	94.6905
889.012	82.8689
889.063	85.8375
889.113	85.8421
889.163	71.0443
889.214	88.8104
889.264	76.977
889.315	71.0669
889.365	103.66
889.415	82.9464
889.466	88.8898
889.516	68.1609
889.566	91.8816
889.617	80.0344
889.667	77.0781
889.718	71.1585
889.768	77.1032
889.818	83.0563
889.869	74.1823
889.919	71.2422
889.969	77.2094
890.02	77.2375
890.07	89.1472
890.12	77.278
890.171	95.1246
890.221	83.2404
890.272	86.218
890.322	80.2785
890.372	86.2394
890.423	80.3154
890.473	86.3029
890.523	83.3755
890.574	86.4123
890.624	71.5651
890.674	86.5333
890.725	74.6404
890.775	86.6193
890.826	83.6531
890.876	74.6973
890.926	77.6843
890.977	101.581
891.027	80.6643
891.077	92.6174
891.128	89.6418
891.178	77.7084
891.228	71.7542
891.279	80.7528
891.329	74.7967
891.379	89.7804
891.43	74.8296
891.48	80.8213
891.53	77.828
891.581	80.8211
891.631	77.8327
891.681	74.8536
891.732	56.909
891.782	95.8964
891.832	74.9669
891.883	90.0226
891.933	69.0632
891.983	78.1152
892.034	78.1467
892.084	81.171
892.134	66.145
892.185	90.1989
892.235	66.1481
892.286	75.1795
892.336	84.2281
892.386	72.2319
892.437	69.2663
892.487	87.3955
892.537	72.3736
892.587	81.4633
892.638	66.4043
892.688	72.4637
892.738	81.5453
892.789	90.6362
892.839	78.584
892.889	78.6223
892.94	78.662
892.99	90.8043
893.04	69.6388
893.091	78.7342
893.141	72.6778
893.191	84.7822
893.242	81.7434
893.292	84.7624
893.342	81.7329
893.393	90.8193
893.443	72.6643
893.493	81.7613
893.544	66.634
893.594	75.7385
893.644	81.8204
893.695	72.7524
893.745	90.9718
893.795	91.0033
893.846	75.8602
893.896	78.9165
893.946	75.9
893.996	78.9555
894.047	63.7892
894.097	85.0785
894.147	75.9871
894.198	85.1286
894.248	72.9795
894.298	76.0229
894.349	76.0174
894.399	82.0904
894.449	72.967
894.5	79.0574
894.55	63.8738
894.6	85.2042
894.65	70.0263
894.701	73.1086
894.751	79.2365
894.801	67.0721
894.852	70.1467
894.902	79.3295
894.952	70.2122
895.003	79.4188
895.053	79.4718
895.103	73.4069
895.153	55.0877
895.204	82.6719
895.254	79.6402
895.304	79.6631
895.355	70.4869
895.405	70.4998
895.455	64.3801
895.505	79.7222
895.556	70.5365
895.606	82.8208
895.656	73.6352
895.707	76.7215
895.757	70.6
895.807	82.8958
895.858	73.6992
895.908	76.784
895.958	70.6562
896.008	64.5285
896.059	73.7679
896.109	83.0137
896.159	79.9622
896.21	89.212
896.26	76.9248
896.31	70.7859
896.36	58.4874
896.411	80.0516
896.461	76.9868
896.511	86.2368
896.561	58.5212
896.612	83.1599
896.662	64.6757
896.712	70.8327
896.763	76.9979
896.813	61.6144
896.863	64.7256
896.913	74.0202
896.964	70.9882
897.014	80.3038
897.064	74.1676
897.115	77.2834
897.165	71.1075
897.215	68.0091
897.265	71.0851
897.316	67.9771
897.366	64.872
897.416	74.1254
897.466	77.2031
897.517	80.2838
897.567	71.0184
897.617	80.2881
897.667	67.952
897.718	80.341
897.768	68.022
897.818	83.5424
897.868	74.3156
897.919	80.5609
897.969	83.6965
898.019	77.51
898.069	65.1013
898.12	74.3755
898.17	65.0456
898.22	83.5835
898.27	74.2598
898.321	83.5156
898.371	74.2317
898.421	74.2505
898.471	71.1972
898.522	83.6483
898.572	71.3252
898.622	83.8116
898.672	77.6689
898.723	74.608
898.773	80.8537
898.823	83.9738
898.873	74.6424
898.924	68.4193
898.974	71.5306
899.024	74.6494
899.074	83.9971
899.125	87.1263
899.175	87.1379
899.225	74.6886
899.275	71.5633
899.326	77.7607
899.376	65.294
899.426	71.489
899.476	77.6929
899.527	74.5909
899.577	71.5066
899.627	65.3245
899.677	77.8209
899.728	68.5327
899.778	62.3456
899.828	81.0972
899.878	71.7729
899.928	74.9182
899.979	78.0567
