#Acq. time (s)=	5
#Accumulations=	2
#Range (nm)=	520...900
#Windows=	8
#Auto scanning=	Off
#Autofocus=	Off
#AutoExposure=	Off
#Spike filter=	Multiple accum.
#Delay time (s)=	0
#Binning=	1
#Readout mode=	Signal
#DeNoise=	Off
#ICS correction=	On
#Dark correction=	Off
#Inst. Process=	Off
#Detector temperature (°C)=	-59.98
#Instrument=	LabRAM HR Evol
#Detector=	Syncerity OE
#Objective=	x50_VIS
#Grating=	600 (500nm)
#ND Filter=	10%
#Laser=	514nm_Edge
#Hole=	199.981
#Range=	Auto
#StageXY=	Marzhauser
#StageZ=	Marzhauser
#X (µm)=	18192.9
#Y (µm)=	3611.8
#Z (µm)=	-57.4
#Full time(mm:ss)=	2:05
#Project=	
#Sample=	
#Site=	
#Title=	PL_M2_011123
#Remark=	
#Date=	11.11.2023 11:41
#Acquired=	11.11.2023 11:41:37
520.044	91.8875
520.097	95.2801
520.149	87.8984
520.201	82.3458
520.254	82.1861
520.306	96.3106
520.359	89.0433
520.411	81.8245
520.464	85.3159
520.516	94.1697
520.569	83.514
520.621	90.6606
520.674	85.3901
520.726	83.6906
520.778	98.0408
520.831	83.8718
520.883	94.6737
520.936	87.5959
520.988	96.586
521.041	93.0355
521.093	93.0439
521.146	93.0396
521.198	100.184
521.25	94.7989
521.303	105.502
521.355	89.3705
521.408	94.6726
521.46	94.5895
521.513	98.0523
521.565	92.5924
521.617	94.2605
521.67	85.2774
521.722	92.3047
521.775	90.4712
521.827	85.109
521.88	85.0784
521.932	93.9153
521.984	93.9003
522.037	97.4455
522.089	85.067
522.142	85.117
522.194	88.7418
522.247	101.276
522.299	88.9433
522.352	94.3869
522.404	94.482
522.456	105.268
522.509	94.6323
522.561	94.6953
522.614	89.3919
522.666	91.2349
522.719	94.8638
522.771	93.112
522.823	94.9227
522.876	100.291
522.928	89.5126
522.981	89.4475
523.033	94.7082
523.086	94.5658
523.138	89.0505
523.19	94.205
523.243	95.7922
523.295	95.6232
523.348	93.7204
523.4	93.6254
523.453	97.0897
523.505	95.2703
523.557	91.6864
523.61	89.8563
523.662	91.5387
523.715	102.013
523.767	105.462
523.82	86.1053
523.872	110.733
523.924	100.258
523.977	91.5619
524.029	98.7316
524.082	98.8638
524.134	95.4565
524.186	104.422
524.239	102.772
524.291	102.89
524.344	110.113
524.396	94.238
524.449	101.466
524.501	98.0101
524.553	103.455
524.606	99.9673
524.658	101.813
524.711	107.211
524.763	109.007
524.815	96.4785
524.868	101.788
524.92	105.281
524.973	101.619
525.025	97.957
525.078	94.3059
525.13	119.121
525.182	103.057
525.235	103.017
525.287	99.4461
525.34	117.2
525.392	106.551
525.444	110.108
525.497	99.4526
525.549	102.996
525.602	97.6554
525.654	97.6421
525.706	95.8633
525.759	99.4315
525.811	104.809
525.864	103.12
525.916	97.9028
525.969	94.4807
526.021	96.4189
526.073	100.155
526.126	100.314
526.178	100.46
526.231	100.595
526.283	111.51
526.335	100.838
526.388	99.1474
526.44	113.685
526.493	108.367
526.545	101.214
526.597	108.5
526.65	104.915
526.702	94.0716
526.755	94.0626
526.807	104.886
526.859	97.6077
526.912	112.001
526.964	104.704
527.017	113.652
527.069	102.765
527.121	108.121
527.174	106.283
527.226	102.657
527.279	113.445
527.331	104.424
527.383	98.9993
527.436	109.763
527.488	102.523
527.54	120.454
527.593	97.0365
527.645	102.383
527.698	105.937
527.75	105.91
527.802	113.076
527.855	102.311
527.907	109.516
527.96	104.177
528.012	100.649
528.064	102.528
528.117	95.4179
528.169	108.124
528.222	124.468
528.274	108.352
528.326	99.4435
528.379	119.495
528.431	108.794
528.484	105.331
528.536	116.404
528.588	120.207
528.641	109.407
528.693	107.687
528.745	118.734
528.798	111.507
528.85	122.56
528.903	107.999
528.955	111.724
529.007	109.935
529.06	109.944
529.112	102.586
529.164	113.511
529.217	107.933
529.269	107.839
529.322	105.922
529.374	109.488
529.426	113.051
529.479	120.244
529.531	101.924
529.584	116.351
529.636	99.8659
529.688	116.069
529.741	105.081
529.793	105.002
529.845	113.998
529.898	117.583
529.95	112.133
530.003	115.725
530.055	106.654
530.107	101.197
530.16	99.356
530.212	102.942
530.264	106.544
530.317	113.78
530.369	119.241
530.422	110.273
530.474	108.553
530.526	121.337
530.579	110.597
530.631	110.736
530.683	114.525
530.736	109.237
530.788	111.239
530.841	120.564
530.893	113.453
530.945	124.636
530.998	115.635
531.05	121.277
531.102	121.376
531.155	126.966
531.207	104.935
531.259	121.565
531.312	117.959
531.364	127.282
531.417	112.636
531.469	120.146
531.521	114.712
531.574	112.952
531.626	113.018
531.678	135.306
531.731	116.808
531.783	124.263
531.835	118.747
531.888	122.523
531.94	115.171
531.992	120.827
532.045	104.166
532.097	119.113
532.15	124.748
532.202	126.648
532.254	111.778
532.307	117.404
532.359	115.593
532.411	124.997
532.464	117.633
532.516	134.57
532.568	121.611
532.621	127.345
532.673	112.451
532.726	125.637
532.778	131.298
532.83	120.05
532.883	112.536
532.935	127.521
532.987	127.502
533.04	133.115
533.092	119.984
533.144	118.103
533.197	112.468
533.249	129.318
533.301	118.05
533.354	118.029
533.406	125.511
533.458	121.765
533.511	123.649
533.563	118.038
533.615	125.527
533.668	131.116
533.72	129.182
533.773	127.226
533.825	123.395
533.877	130.783
533.93	130.707
533.982	132.507
534.034	119.382
534.087	139.809
534.139	126.647
534.191	135.804
534.244	118.905
534.296	131.737
534.348	118.613
534.401	129.626
534.453	142.525
534.505	127.704
534.558	136.975
534.61	135.157
534.662	131.488
534.715	133.371
534.767	135.255
534.819	131.589
534.872	140.917
534.924	126.162
534.976	129.976
535.029	124.518
535.081	126.49
535.133	156.373
535.186	126.659
535.238	136.015
535.29	143.484
535.343	136.032
535.395	147.22
535.447	126.744
535.5	134.251
535.552	147.387
535.604	145.622
535.657	143.858
535.709	143.958
535.761	132.827
535.814	147.891
535.866	140.505
535.918	142.499
535.971	138.88
536.023	146.525
536.075	137.239
536.128	142.943
536.18	150.463
536.232	142.866
536.285	133.345
536.337	131.32
536.389	134.927
536.442	146.051
536.494	136.626
536.546	149.712
536.599	149.73
536.651	138.52
536.703	136.641
536.755	144.071
536.808	145.827
536.86	149.398
536.912	145.473
536.965	145.29
537.017	143.276
537.069	128.276
537.122	122.595
537.174	133.617
537.226	131.621
537.279	146.276
537.331	127.597
537.383	145.91
537.436	143.91
537.488	147.48
537.54	145.557
537.593	136.298
537.645	138.106
537.697	147.27
537.75	143.527
537.802	141.6
537.854	139.654
537.906	156.062
537.959	130.255
538.011	146.674
538.063	139.287
538.116	148.436
538.168	137.463
538.22	132.014
538.273	148.589
538.325	146.831
538.377	148.736
538.43	146.953
538.482	150.663
538.534	148.847
538.586	145.185
538.639	156.227
538.691	141.544
538.743	152.61
538.796	147.14
538.848	136.155
538.9	147.25
538.953	149.136
539.005	151.004
539.057	145.481
539.109	152.82
539.162	161.97
539.214	143.5
539.266	148.947
539.319	154.393
539.371	146.985
539.423	154.292
539.476	152.427
539.528	152.408
539.58	145.049
539.633	150.542
539.685	159.7
539.737	141.318
539.789	146.79
539.842	152.251
539.894	143.032
539.946	155.812
539.999	157.585
540.051	155.693
540.103	139.158
540.155	155.587
540.208	140.906
540.26	157.349
540.312	157.343
540.365	155.538
540.417	151.934
540.469	163.011
540.521	146.632
540.574	168.756
540.626	152.349
540.678	156.094
540.731	156.13
540.783	157.971
540.835	163.472
540.888	157.96
540.94	150.637
540.992	172.745
541.044	159.969
541.097	160.071
541.149	160.171
541.201	165.786
541.254	158.49
541.306	173.302
541.358	162.297
541.41	162.35
541.463	167.93
541.515	167.959
541.567	167.969
541.62	162.426
541.672	155.036
541.724	167.963
541.776	162.461
541.829	166.224
541.881	166.321
541.933	168.271
541.985	159.104
542.038	168.396
542.09	164.683
542.142	179.414
542.195	171.899
542.247	171.748
542.299	180.806
542.351	169.57
542.404	184.144
542.456	165.589
542.508	174.657
542.56	176.383
542.613	159.762
542.665	174.378
542.717	170.645
542.77	177.928
542.822	174.203
542.874	172.307
542.926	177.732
542.979	175.815
543.031	157.418
543.083	179.287
543.135	177.371
543.188	184.616
543.24	188.235
543.292	166.312
543.344	190.127
543.397	170.108
543.449	181.209
543.501	177.679
543.554	185.125
543.606	177.867
543.658	166.885
543.71	187.027
543.763	194.289
543.815	181.38
543.867	175.819
543.919	177.617
543.972	190.439
544.024	175.827
544.076	181.382
544.128	181.45
544.181	177.851
544.233	190.753
544.285	196.324
544.337	179.875
544.39	194.629
544.442	180.004
544.494	185.571
544.547	191.13
544.599	193
544.651	183.831
544.703	189.36
544.755	185.694
544.808	183.861
544.86	191.212
544.912	187.517
544.965	185.646
545.017	192.954
545.069	187.399
545.121	196.551
545.174	194.694
545.226	187.333
545.278	181.795
545.33	189.073
545.383	192.621
545.435	199.774
545.487	184.908
545.539	195.676
545.591	191.841
545.644	195.374
545.696	177.061
545.748	191.646
545.8	189.808
545.853	204.365
545.905	195.148
545.957	193.179
546.009	191.179
546.062	209.184
546.114	196.278
546.166	207.032
546.218	206.91
546.271	217.691
546.323	194.012
546.375	199.347
546.427	191.994
546.48	206.38
546.532	204.488
546.584	204.441
546.636	217.094
546.689	217.12
546.741	204.504
546.793	204.57
546.845	206.455
546.898	204.721
546.95	217.483
547.002	201.238
547.054	194.034
547.106	206.754
547.159	204.937
547.211	217.601
547.263	203.046
547.315	221.118
547.368	226.509
547.42	211.994
547.472	215.63
547.524	217.487
547.577	221.183
547.629	223.079
547.681	224.97
547.733	221.395
547.785	234.129
547.838	230.51
547.89	214.176
547.942	234.145
547.994	226.902
548.047	230.567
548.099	212.457
548.151	228.852
548.203	228.892
548.255	239.807
548.308	239.787
548.36	232.465
548.412	226.935
548.464	244.984
548.517	228.55
548.569	215.765
548.621	237.445
548.673	230.146
548.725	233.75
548.778	230.131
548.83	224.718
548.882	242.867
548.934	242.875
548.987	228.343
549.039	224.63
549.091	246.202
549.143	224.273
549.195	231.265
549.248	258.101
549.3	232.631
549.352	243.301
549.404	243.211
549.456	257.568
549.509	230.501
549.561	239.42
549.613	237.483
549.665	231.904
549.718	237.088
549.77	233.302
549.822	236.736
549.874	236.64
549.926	245.558
549.979	236.58
550.031	220.432
550.083	238.3
550.135	245.359
550.187	238.034
550.24	250.344
550.292	241.17
550.344	244.512
550.396	238.967
550.448	240.62
550.501	254.82
550.553	245.926
550.605	244.211
550.657	235.377
550.709	263.969
550.762	239
550.814	249.633
550.866	244.162
550.918	276.074
550.97	252.773
551.023	257.995
551.075	266.806
551.127	277.41
551.179	263.11
551.231	282.554
551.284	252.213
551.336	276.918
551.388	289.194
551.44	283.777
551.492	280.205
551.545	294.433
551.597	298.057
551.649	301.677
551.701	283.962
551.753	292.814
551.806	314.04
551.858	319.273
551.91	322.746
551.962	333.349
552.014	331.586
552.067	360.005
552.119	384.898
552.171	402.698
552.223	459.528
552.275	544.776
552.327	734.823
552.38	1120.4
552.432	1920.37
552.484	3227.91
552.536	5361.89
552.588	8452.08
552.641	12115.9
552.693	13573.4
552.745	11337.4
552.797	7451.58
552.849	4009.23
552.901	1911.23
552.954	1002.25
553.006	634.934
553.058	507.222
553.11	448.735
553.162	390.275
553.215	374.419
553.267	365.701
553.319	349.909
553.371	341.231
553.423	320.089
553.475	329.13
553.528	311.412
553.58	293.603
553.632	311.293
553.684	304.009
553.736	310.921
553.788	289.434
553.841	285.775
553.893	307.045
553.945	294.67
553.997	287.67
554.049	293.117
554.102	303.882
554.154	302.171
554.206	298.636
554.258	298.624
554.31	284.374
554.362	279.005
554.414	305.612
554.467	278.899
554.519	310.784
554.571	312.444
554.623	301.67
554.675	310.426
554.727	299.694
554.78	301.405
554.832	299.586
554.884	287.124
554.936	295.901
554.988	301.085
555.04	284.984
555.093	291.88
555.145	284.628
555.197	310.974
555.249	293.161
555.301	296.551
555.353	299.915
555.406	304.997
555.458	301.212
555.51	292.111
555.562	295.312
555.614	307.292
555.666	305.247
555.719	283.98
555.771	308.355
555.823	301.25
555.875	313.466
555.927	295.942
555.979	302.933
556.031	302.889
556.084	308.043
556.136	283.395
556.188	298.947
556.24	314.473
556.292	312.554
556.344	289.76
556.396	293.233
556.449	312.484
556.501	312.573
556.553	295.191
556.605	316.2
556.657	326.675
556.709	317.883
556.762	309.065
556.814	324.684
556.866	317.624
556.918	312.344
556.97	319.316
557.022	331.567
557.074	300.231
557.127	331.779
557.179	307.488
557.231	314.664
557.283	328.857
557.335	325.562
557.387	323.999
557.439	324.168
557.492	334.841
557.544	338.503
557.596	321.117
557.648	317.773
557.7	319.712
557.752	337.489
557.804	323.637
557.856	325.609
557.909	325.815
557.961	320.726
558.013	326.204
558.065	336.983
558.117	323.07
558.169	317.984
558.221	323.495
558.273	339.593
558.326	346.788
558.378	339.724
558.43	325.472
558.482	346.507
558.534	342.749
558.586	337.273
558.638	323.073
558.691	328.405
558.743	337.357
558.795	335.744
558.847	314.652
558.899	344.744
558.951	330.539
559.003	332.156
559.055	337.241
559.108	365.22
559.16	349.056
559.212	338.177
559.264	357.192
559.316	340.971
559.368	347.579
559.42	345.407
559.472	338.031
559.525	348.245
559.577	353.285
559.629	337.407
559.681	328.548
559.733	356.339
559.785	347.355
559.837	357.465
559.889	344.825
559.941	349.568
559.994	350.832
560.046	346.934
560.098	346.569
560.15	341.051
560.202	345.923
560.254	373.203
560.306	355.477
560.358	337.721
560.41	354.376
560.463	341.774
560.515	334.395
560.567	340.802
560.619	366.075
560.671	367.414
560.723	355.098
560.775	366.658
560.827	369.642
560.879	360.698
560.932	358.601
560.984	370.158
561.036	351.242
561.088	369.736
561.14	367.91
561.192	383.024
561.244	370.975
561.296	385.97
561.348	377.233
561.4	371.912
561.453	375.119
561.505	371.675
561.557	385.235
561.609	381.974
561.661	378.732
561.713	382.223
561.765	378.894
561.817	372.129
561.869	392.405
561.921	383.941
561.974	375.514
562.026	373.891
562.078	382.435
562.13	394.353
562.182	394.386
562.234	365.605
562.286	382.511
562.338	396.055
562.39	385.962
562.442	392.873
562.494	408.326
562.547	391.624
562.599	368.115
562.651	405.654
562.703	392.249
562.755	392.389
562.807	389.116
562.859	399.442
562.911	402.989
562.963	381.038
563.015	410.133
563.067	377.963
563.12	410.478
563.172	405.513
563.224	402.221
563.276	404.007
563.328	419.391
563.38	422.802
563.432	427.881
563.484	410.778
563.536	436.277
563.588	431.096
563.64	436.134
563.692	408.789
563.744	429.097
563.797	411.881
563.849	442.266
563.901	402.897
563.953	438.355
564.005	443.275
564.057	443.182
564.109	422.789
564.161	431.297
564.213	441.485
564.265	421.04
564.317	437.844
564.369	446.046
564.421	455.848
564.474	408.021
564.526	434.69
564.578	439.334
564.63	457.457
564.682	470.446
564.734	458.089
564.786	428.895
564.838	441.751
564.89	442.856
564.942	425.593
564.994	457
565.046	438.259
565.098	439.653
565.15	426.003
565.202	440.695
565.255	435.26
565.307	443.07
565.359	432.492
565.411	431.88
565.463	414.694
565.515	447.292
565.567	428.574
565.619	443.018
565.671	417.853
565.723	435.681
565.775	440.322
565.827	430.141
565.879	443.029
565.931	462.46
565.983	444.003
566.035	445.256
566.087	451.404
566.139	454.257
566.192	444.014
566.244	446.92
566.296	459.674
566.348	469.164
566.4	457.407
566.452	426.059
566.504	459.977
566.556	441.663
566.608	451.058
566.66	442.561
566.712	450.382
566.764	464.756
566.816	458.073
566.868	453.09
566.92	467.66
566.972	462.801
567.024	457.988
567.076	412.595
567.128	454.933
567.18	450.155
567.232	461.608
567.285	476.288
567.337	450.312
567.389	461.731
567.441	476.435
567.493	455.411
567.545	465.334
567.597	476.92
567.649	454.319
567.701	447.966
567.753	480.683
567.805	482.43
567.857	471.14
567.909	492.489
567.961	466.585
568.013	460.276
568.065	460.497
568.117	475.256
568.169	492.793
568.221	488.134
568.273	474.158
568.325	466.972
568.377	460.485
568.429	503.107
568.481	477.243
568.533	499.69
568.585	505.52
568.637	488.68
568.69	490.957
568.742	482.924
568.794	497.214
568.846	490.289
568.898	495.905
568.95	498.438
569.002	487.118
569.054	505.596
569.106	487.948
569.158	506.547
569.21	492.062
569.262	513.706
569.314	506.084
569.366	516.6
569.418	514.937
569.47	503.481
569.522	511.69
569.574	505.713
569.626	525.997
569.678	531.457
569.73	511.583
569.782	528.265
569.834	540.643
569.886	530.272
569.938	521.837
569.99	530.204
570.042	531.637
570.094	529.638
570.146	530.252
570.198	533.713
570.25	539.74
570.302	530.022
570.354	537.399
570.406	539.868
570.458	539.299
570.51	545.917
570.562	543.633
570.614	547.605
570.666	560.411
570.718	560.976
570.77	566.106
570.822	554.083
570.874	556.337
570.926	555.478
570.978	560.914
571.03	573.152
571.082	576.068
571.134	593.157
571.186	592.237
571.238	572.919
571.29	574.605
571.342	593.913
571.394	599.297
571.446	592.486
571.498	605.841
571.55	597.455
571.602	590
571.654	612.34
571.706	597.921
571.758	603.752
571.81	614.62
571.862	617.606
571.914	633.816
571.966	630.374
572.018	640.795
572.07	638.402
572.122	635.581
572.174	634.608
572.226	640.212
572.278	648.698
572.33	659.604
572.382	661.139
572.434	672.589
572.486	674.016
572.538	684.521
572.59	688.138
572.642	695.597
572.694	698.845
572.746	677.933
572.798	687.678
572.85	703.081
572.902	702.203
572.954	697.534
573.006	683.051
573.058	712.078
573.11	742.726
573.162	727.724
573.214	726.069
573.266	708.375
573.312	718.958
573.364	734.405
573.416	742.147
573.469	745.274
573.521	736.049
573.573	756.208
573.625	768.611
573.677	787.131
573.73	786.984
573.782	783.628
573.834	769.382
573.886	790.67
573.938	791.987
573.991	770.355
574.043	801.468
574.095	801.922
574.147	825.673
574.199	818.45
574.252	814.092
574.304	821.779
574.356	815.188
574.408	814.509
574.46	841.509
574.513	843.858
574.565	815.528
574.617	847.451
574.669	834.746
574.721	857.468
574.774	849.356
574.826	841.204
574.878	840.715
574.93	854.053
574.982	868.94
575.035	853.156
575.087	858.877
575.139	841.597
575.191	851.907
575.243	859.146
575.296	880.179
575.348	870.627
575.4	877.928
575.452	862.272
575.504	864.904
575.556	864.391
575.609	877.55
575.661	870.867
575.713	884.097
575.765	854.809
575.817	891.21
575.87	869.829
575.922	883.492
575.974	866.593
576.026	892.169
576.078	853.648
576.131	863.736
576.183	879.885
576.235	891.537
576.287	880.533
576.339	868.143
576.391	871.021
576.444	864.829
576.496	888.968
576.548	873.62
576.6	855.188
576.652	860.958
576.705	881.817
576.757	858.692
576.809	862.805
576.861	863.881
576.913	854.387
576.965	878.191
577.018	871.808
577.07	885.119
577.122	841.091
577.174	848.456
577.226	857.362
577.279	836.108
577.331	860.153
577.383	843.468
577.435	837.351
577.487	831.223
577.539	841.655
577.592	827.902
577.644	853.293
577.696	828.874
577.748	836.07
577.8	858.306
577.852	838.396
577.905	826.061
577.957	831.822
578.009	827.077
578.061	823.838
578.113	828.095
578.165	824.809
578.218	821.5
578.27	807.674
578.322	831.374
578.374	819.052
578.426	805.222
578.478	818.342
578.531	807.415
578.583	812.889
578.635	800.328
578.687	820.611
578.739	816.928
578.791	816.22
578.844	785.697
578.896	814.816
578.948	827.514
579	811.93
579.052	788.929
579.104	782.268
579.157	791.891
579.209	788.103
579.261	803.494
579.313	778.877
579.365	773.458
579.417	770.982
579.47	790.619
579.522	777.928
579.574	797.694
579.626	773.524
579.678	805.255
579.73	784.272
579.782	795.589
579.835	790.761
579.887	800.501
579.939	775.032
579.991	784.582
580.043	775.082
580.095	781.636
580.148	756.172
580.2	770.141
580.252	781.273
580.304	783.742
580.356	780.43
580.408	796
580.46	775.234
580.513	777.688
580.565	780.149
580.617	744.971
580.669	786.682
580.721	809.616
580.773	779.026
580.826	777.438
580.878	772.964
580.93	785.856
580.982	792.955
581.034	795.72
581.086	760.888
581.138	775.253
581.191	780.944
581.243	798.21
581.295	801.039
581.347	786.569
581.399	801.086
581.451	796.873
581.503	814.386
581.556	789.92
581.608	800.088
581.66	800.02
581.712	805.654
581.764	773.674
581.816	799.612
581.868	793.866
581.92	772.342
581.973	795.729
582.025	762.667
582.077	807.639
582.129	813.368
582.181	801.576
582.233	789.704
582.285	802.427
582.338	816.677
582.39	797.814
582.442	813.761
582.494	821.112
582.546	787.988
582.598	806.856
582.65	816.955
582.703	786.469
582.755	810.84
582.807	794.698
582.859	800.24
582.911	831.821
582.963	782.6
583.015	799.865
583.067	848.916
583.12	802.659
583.172	827.073
583.224	812.426
583.276	810.694
583.328	833.432
583.38	812.905
583.432	824.102
583.484	828.082
583.537	824.801
583.589	817.083
583.641	807.774
583.693	842.832
583.745	827.511
583.797	836.573
583.849	854.306
583.901	825.005
583.953	815.942
584.006	844.167
584.058	843.857
584.11	820.643
584.162	820.119
584.214	856.449
584.266	832.732
584.318	862.972
584.37	839.141
584.423	832.432
584.475	841.423
584.527	859.016
584.579	842.766
584.631	846.415
584.683	854.346
584.735	856.628
584.787	871.572
584.839	844.165
584.892	846.307
584.944	861.044
584.996	850.394
585.048	834.109
585.1	858.534
585.152	842.318
585.204	880.836
585.256	863.442
585.308	861.57
585.361	880.757
585.413	876.209
585.465	853.491
585.517	869.834
585.569	877.726
585.621	873.022
585.673	875.313
585.725	869.327
585.777	864.88
585.83	861.996
585.882	860.668
585.934	884.545
585.986	886.216
586.038	885.109
586.09	892.314
586.142	892.454
586.194	889.699
586.246	885.469
586.298	906.317
586.351	900.729
586.403	891.083
586.455	880.195
586.507	891.763
586.559	913.183
586.611	906.65
586.663	919.548
586.715	911.303
586.767	905.681
586.819	897.161
586.872	898.422
586.924	902.567
586.976	905.466
587.028	937.872
587.08	896.303
587.132	900.891
587.184	916.63
587.236	949.072
587.288	926.801
587.34	931.025
587.392	919.79
587.445	929.542
587.497	904.313
587.549	935.096
587.601	928.082
587.653	939.232
587.705	912.536
587.757	903.981
587.809	921.973
587.861	941.353
587.913	924.402
587.965	908.914
588.018	955.012
588.07	948.011
588.122	938.203
588.174	940.916
588.226	933.733
588.278	940.386
588.33	925.937
588.382	942.089
588.434	927.463
588.486	949.079
588.538	926.145
588.59	954.82
588.642	929.299
588.695	953.925
588.747	925.736
588.799	955.904
588.851	913.782
588.903	957.698
588.955	929.373
589.007	974.49
589.059	952.978
589.111	935.552
589.163	984.405
589.215	957.083
589.267	946.306
589.319	967.25
589.372	912.541
589.424	979.104
589.476	945.436
589.528	954.544
589.58	969.223
589.632	971.539
589.684	962.797
589.736	973.125
589.788	958.65
589.84	964.626
589.892	955.522
589.944	961.501
589.996	945.745
590.048	958.793
590.101	943.333
590.153	953.862
590.205	958.948
590.257	932.66
590.309	959.379
590.361	939.745
590.413	950.016
590.465	972.579
590.517	954.574
590.569	973.438
590.621	973.48
590.673	957.331
590.725	924.881
590.777	954.809
590.829	947.903
590.881	962.525
590.933	959.304
590.986	945.101
591.038	943.057
591.09	947.824
591.142	935.114
591.194	968.581
591.246	958.928
591.298	941.294
591.35	926.418
591.402	966.961
591.454	945.208
591.506	924.718
591.558	937.964
591.61	952.543
591.662	959.048
591.714	930.5
591.766	953.325
591.818	950.515
591.87	954.452
591.923	947.575
591.975	923.154
592.027	935.196
592.079	941.876
592.131	943.192
592.183	936.421
592.235	940.418
592.287	955.153
592.339	948.247
592.391	944.008
592.443	942.482
592.495	924.837
592.547	932.891
592.599	943.722
592.651	980.224
592.703	969.545
592.755	937.254
592.807	939.966
592.859	962.844
592.911	964.089
592.963	976.076
593.015	936.797
593.068	955.44
593.12	941.69
593.172	954.83
593.224	955.793
593.276	945.954
593.328	950.9
593.38	957.183
593.432	940.623
593.484	944.24
593.536	966.671
593.588	948.861
593.64	945.881
593.692	925.545
593.744	997.842
593.796	989.735
593.848	965.573
593.9	945.42
593.952	957.386
594.004	958.526
594.056	938.119
594.108	936.407
594.16	965.46
594.212	962.375
594.264	971.374
594.316	973.725
594.368	986.805
594.42	983.848
594.472	982.224
594.524	973.909
594.576	966.931
594.628	961.301
594.68	978.372
594.732	975.405
594.784	969.72
594.837	970.605
594.889	948.706
594.941	998.611
594.993	984.5
595.045	990.363
595.097	991.022
595.149	966.658
595.201	989.02
595.253	993.022
595.305	1002.49
595.357	988.114
595.409	1009.54
595.461	980.346
595.513	1004.13
595.565	995.902
595.617	987.61
595.669	1005.87
595.721	995.015
595.773	1012.14
595.825	1006.84
595.877	1010.85
595.929	1018.75
595.981	1026.47
596.033	1033.97
596.085	998.856
596.137	1032.48
596.189	1015.72
596.241	1021.45
596.293	1011.38
596.345	1023.84
596.397	1023.19
596.449	1018.69
596.501	1031.41
596.553	1007.39
596.605	1036.17
596.657	1036.1
596.709	1036.11
596.761	1046.67
596.813	1063.78
596.865	1032.1
596.917	1033.27
596.969	1027.84
597.021	1039.54
597.073	1042.08
597.125	1020.97
597.177	1048.55
597.229	1032.64
597.281	1035.05
597.333	1034.72
597.385	1051.41
597.437	1040.51
597.489	1036.28
597.541	1063.74
597.593	1038.82
597.645	1025.83
597.697	1028.62
597.749	1033.97
597.801	1058.87
597.853	1040.26
597.905	1034.66
597.957	1053.97
598.009	1041.86
598.061	1050.9
598.113	1044.42
598.165	1043.36
598.217	1069.96
598.269	1030.9
598.321	1006.15
598.373	1074.5
598.425	1028.44
598.477	1026.97
598.529	1030.79
598.581	1028.15
598.633	1034.81
598.685	1033.68
598.737	1035.16
598.789	1048.4
598.841	1064.18
598.893	1045.75
598.945	1037.89
598.997	1034.12
599.049	1052.91
599.101	1040.37
599.153	1052.96
599.205	1041.87
599.257	1037.26
599.309	1050.91
599.361	1037.99
599.413	1036.77
599.465	1040.72
599.517	1060.49
599.569	1055.24
599.62	1032.92
599.672	1058.2
599.724	1025.52
599.776	1029.87
599.828	1063.32
599.88	1054.5
599.932	1045.61
599.984	1051.15
600.036	1061.85
600.088	1044.65
600.14	1082.92
600.192	1051.11
600.244	1026
600.296	1057.86
600.348	1025.06
600.4	1053.17
600.452	1053.52
600.504	1061.72
600.556	1060.52
600.608	1061.8
600.66	1045.73
600.712	1034.87
600.764	1047.82
600.816	1038.32
600.868	1038.19
600.92	1034.22
600.972	1023.73
601.024	1066.22
601.076	1061.1
601.128	1061.22
601.18	1070.54
601.232	1062.62
601.284	1050.68
601.335	1055.89
601.387	1025.31
601.439	1054.16
601.491	1056.41
601.543	1062.47
601.595	1063.09
601.647	1041.18
601.699	1042.99
601.751	1040.82
601.803	1037.37
601.855	1012.91
601.907	1038.48
601.959	1036.5
602.011	1054.31
602.063	1059.07
602.115	1060
602.167	1046.56
602.219	1052.77
602.271	1062.79
602.323	1041.16
602.375	1057.26
602.427	1029.97
602.478	1058.76
602.53	1064.02
602.582	1073.3
602.634	1047.64
602.686	1069.07
602.738	1058.16
602.79	1064.26
602.842	1054.78
602.894	1072.51
602.946	1026.53
602.998	1044.06
603.05	1049.82
603.102	1043.89
603.154	1040.57
603.206	1038.59
603.258	1056.07
603.31	1072.3
603.362	1061.43
603.413	1077.67
603.465	1042.29
603.517	1040.44
603.569	1087.56
603.621	1045.81
603.673	1036.36
603.725	1045.06
603.777	1051.31
603.829	1075.69
603.881	1057.68
603.933	1049.99
603.985	1052.54
604.037	1070.42
604.089	1063.72
604.141	1055.64
604.193	1087.39
604.244	1069.06
604.296	1075.3
604.348	1048.32
604.4	1079.3
604.452	1091.12
604.504	1073.39
604.556	1083.9
604.608	1068.65
604.66	1088.11
604.712	1067.75
604.764	1059.04
604.816	1087.74
604.868	1066.29
604.92	1074.42
604.971	1090.22
605.023	1096.9
605.075	1095.78
605.127	1089.51
605.179	1076.87
605.231	1084.98
605.283	1072.57
605.335	1075.7
605.387	1099.47
605.439	1089.55
605.491	1110.49
605.543	1066.64
605.594	1066.68
605.646	1100.36
605.698	1060.47
605.75	1104.82
605.802	1083.39
605.854	1108.67
605.906	1060.1
605.958	1106.01
606.01	1060.94
606.062	1098.6
606.114	1078.96
606.166	1107.14
606.217	1071.75
606.269	1108.99
606.321	1101
606.373	1103.51
606.425	1100.96
606.477	1079.01
606.529	1101.05
606.581	1100.97
606.633	1096.9
606.685	1087.54
606.737	1089.79
606.789	1098.49
606.84	1087.81
606.892	1078.49
606.944	1095.1
606.996	1083.33
607.048	1080.63
607.1	1077.92
607.152	1103.6
607.204	1071.05
607.256	1101.7
607.308	1090.89
607.359	1091.58
607.411	1098.65
607.463	1097.95
607.515	1070.25
607.567	1099.31
607.619	1097.55
607.671	1115.18
607.723	1107.12
607.775	1090.07
607.827	1096.13
607.878	1079.01
607.93	1118.36
607.982	1099.9
608.034	1067.3
608.086	1105.22
608.138	1118.67
608.19	1107.71
608.242	1114.63
608.294	1087.02
608.345	1113.18
608.397	1108.8
608.449	1098.2
608.501	1099.25
608.553	1102.95
608.605	1105.38
608.657	1096.25
608.709	1102.32
608.761	1112.09
608.812	1103.9
608.864	1105.87
608.916	1105.33
608.968	1095.97
609.02	1118.54
609.072	1123.4
609.124	1119.45
609.176	1114.3
609.228	1153.72
609.279	1097.74
609.331	1113
609.383	1133.34
609.435	1134.58
609.487	1092.58
609.539	1128.16
609.591	1135.77
609.643	1117.97
609.694	1126.9
609.746	1116.78
609.798	1133.37
609.85	1116.86
609.902	1133.37
609.954	1128.18
610.006	1110.18
610.058	1148.02
610.109	1148.88
610.161	1156.01
610.213	1114.83
610.265	1129.51
610.317	1145.46
610.369	1136.09
610.421	1096.37
610.473	1118.85
610.524	1113.55
610.576	1127.32
610.628	1137.35
610.68	1117
610.732	1138.44
610.784	1152.27
610.836	1142.02
610.887	1140.65
610.939	1164.64
610.991	1145.64
611.043	1130.49
611.095	1139.39
611.147	1160.92
611.199	1148.17
611.25	1132.78
611.302	1153.95
611.354	1142.11
611.406	1131.46
611.458	1132.13
611.51	1140.37
611.562	1159.98
611.614	1170.78
611.665	1142.54
611.717	1173.6
611.769	1152.97
611.821	1151.21
611.873	1175.8
611.925	1158.78
611.977	1135.47
612.028	1171.3
612.08	1160.71
612.132	1169.07
612.184	1152.4
612.236	1184.66
612.288	1112.65
612.339	1192.21
612.391	1157.43
612.443	1162.57
612.495	1178.91
612.547	1192.8
612.599	1179.45
612.651	1171.4
612.702	1182.34
612.754	1174.74
612.806	1163.44
612.858	1203.16
612.91	1176.6
612.962	1172.26
613.013	1170.23
613.065	1174.32
613.117	1149.81
613.169	1192.47
613.221	1150.76
613.273	1181.13
613.325	1169.34
613.376	1186.03
613.428	1172.89
613.48	1204.24
613.532	1160.04
613.584	1172.71
613.635	1211.32
613.687	1207.97
613.739	1182.48
613.791	1195.27
613.843	1158.78
613.895	1176.46
613.947	1191.62
613.998	1177.27
614.05	1167.91
614.102	1175.84
614.154	1201.09
614.206	1188.46
614.258	1201.72
614.309	1201.58
614.361	1175.73
614.413	1189.13
614.465	1208.63
614.517	1197.46
614.568	1214.43
614.62	1193.37
614.672	1213.9
614.724	1197.61
614.776	1229.01
614.828	1204.05
614.879	1224.38
614.931	1190.94
614.983	1211.4
615.035	1223.38
615.087	1240.31
615.139	1218.15
615.19	1246.05
615.242	1194.49
615.294	1222.24
615.346	1215.76
615.398	1225.14
615.449	1217.46
615.501	1209.79
615.553	1239.92
615.605	1209.05
615.657	1243.94
615.709	1203.24
615.76	1242.9
615.812	1239.95
615.864	1229.76
615.916	1223.28
615.968	1258.18
616.019	1230.89
616.071	1225.42
616.123	1243.51
616.175	1228.03
616.227	1226.91
616.278	1256.08
616.33	1261.22
616.382	1268.86
616.434	1226.9
616.486	1235.16
616.537	1212.28
616.589	1233.34
616.641	1266.25
616.693	1257.14
616.745	1253.95
616.797	1231.32
616.848	1248.34
616.9	1232.81
616.952	1239.6
617.004	1231.77
617.056	1235.15
617.107	1226.2
617.159	1240.11
617.211	1229.61
617.263	1222.95
617.315	1226.48
617.366	1232.63
617.418	1234.12
617.47	1247.69
617.522	1237.58
617.573	1230.96
617.625	1237.21
617.677	1234.27
617.729	1225.84
617.781	1240.84
617.832	1222.59
617.884	1236.99
617.936	1235.02
617.988	1232.56
618.04	1234.88
618.091	1227.37
618.143	1243.44
618.195	1243.49
618.247	1243.22
618.299	1225.66
618.35	1251.63
618.402	1245.87
618.454	1245.65
618.506	1235.91
618.557	1243.73
618.609	1258.44
618.661	1234.13
618.713	1250.64
618.765	1253.94
618.816	1243.8
618.868	1234.64
618.92	1237.42
618.972	1238.49
619.023	1248.58
619.075	1250.93
619.127	1247.18
619.179	1242.89
619.231	1241.08
619.282	1244.31
619.334	1244.61
619.386	1255.08
619.438	1246.95
619.49	1246.34
619.541	1250.18
619.593	1240.88
619.645	1268.02
619.697	1241.55
619.748	1239.99
619.8	1249.33
619.852	1241.43
619.904	1246.14
619.955	1244.15
620.007	1253.25
620.059	1247.61
620.111	1237.41
620.162	1249.93
620.214	1262.01
620.266	1261.21
620.318	1254.99
620.37	1247.13
620.421	1251.94
620.473	1258.29
620.525	1235.14
620.577	1222.25
620.628	1234.26
620.68	1248.21
620.732	1243.89
620.784	1224.51
620.835	1245.57
620.887	1263.89
620.939	1238.46
620.991	1232.55
621.042	1241.92
621.094	1243.24
621.146	1250.96
621.198	1242.53
621.249	1244.24
621.269	1250
621.321	1224.54
621.373	1233.06
621.425	1253.28
621.477	1243.05
621.529	1264.59
621.581	1269.82
621.633	1289.24
621.685	1223.31
621.737	1261.7
621.789	1255.73
621.841	1242.85
621.893	1255.79
621.945	1251.24
621.997	1258.41
622.049	1258.54
622.101	1293.71
622.153	1258.52
622.205	1240.73
622.257	1273.08
622.309	1271.3
622.361	1278.73
622.413	1265.05
622.465	1265.4
622.517	1257.69
622.569	1248.93
622.621	1275.23
622.673	1252.63
622.725	1266.15
622.776	1244.69
622.828	1256.97
622.88	1247.13
622.932	1250.12
622.984	1218.3
623.036	1258.63
623.088	1292.04
623.14	1276.66
623.192	1262.4
623.244	1275.92
623.296	1253.34
623.348	1245.75
623.4	1241.59
623.452	1282.63
623.504	1265.79
623.556	1273.38
623.608	1274.1
623.66	1269.08
623.712	1243.22
623.764	1261.21
623.816	1279.06
623.868	1272.5
623.92	1286.6
623.972	1279.87
624.024	1263.93
624.076	1252.67
624.128	1277.18
624.18	1285.67
624.232	1262.1
624.284	1282.33
624.336	1307.26
624.388	1262.19
624.44	1273.41
624.492	1294.9
624.544	1280.67
624.596	1284.64
624.648	1257.49
624.699	1294.41
624.751	1256.82
624.803	1292.5
624.855	1284.76
624.907	1285.11
624.959	1295.82
625.011	1291.73
625.063	1279.68
625.115	1266.53
625.167	1273.91
625.219	1306.39
625.271	1283.11
625.323	1295.21
625.375	1291.44
625.427	1317.29
625.479	1283.98
625.531	1332.52
625.583	1304.8
625.635	1274.77
625.687	1274.24
625.739	1322.5
625.791	1296.97
625.843	1302.13
625.895	1309.59
625.946	1329.54
625.998	1287.21
626.05	1269.85
626.102	1311.46
626.154	1265.94
626.206	1298.64
626.258	1317.83
626.31	1315.55
626.362	1314.41
626.414	1309.86
626.466	1324.5
626.518	1292.66
626.57	1306
626.622	1276.21
626.674	1308.52
626.726	1304.51
626.778	1335.47
626.83	1311.12
626.882	1323.06
626.934	1318.34
626.985	1310.52
627.037	1317.61
627.089	1314.65
627.141	1325.2
627.193	1312.96
627.245	1335.48
627.297	1343.07
627.349	1314.35
627.401	1343.2
627.453	1333.73
627.505	1339.08
627.557	1342.3
627.609	1327.54
627.661	1327.43
627.713	1323.85
627.765	1347.2
627.817	1324.22
627.868	1319.23
627.92	1354.82
627.972	1335.29
628.024	1322.6
628.076	1303.19
628.128	1367.04
628.18	1339.71
628.232	1334.85
628.284	1381.71
628.336	1369.06
628.388	1348.68
628.44	1341.93
628.492	1345.41
628.544	1310.72
628.596	1345.7
628.647	1340.15
628.699	1367.12
628.751	1362.56
628.803	1345.64
628.855	1382.72
628.907	1336.66
628.959	1378.33
629.011	1379.51
629.063	1345.81
629.115	1358.15
629.167	1386.17
629.219	1359.07
629.271	1382.54
629.322	1359.91
629.374	1350.73
629.426	1394.3
629.478	1377.12
629.53	1338.54
629.582	1369.5
629.634	1383.56
629.686	1354.96
629.738	1402.61
629.79	1358.31
629.842	1387.96
629.894	1398.55
629.945	1383.41
629.997	1372.82
630.049	1367.94
630.101	1392.24
630.153	1389.82
630.205	1390.81
630.257	1383.97
630.309	1411.73
630.361	1390.19
630.413	1409.9
630.465	1398.27
630.517	1443.58
630.568	1413.04
630.62	1433.94
630.672	1391.36
630.724	1432.55
630.776	1433.62
630.828	1397.84
630.88	1431.14
630.932	1397.38
630.984	1370.17
631.036	1417.5
631.088	1455.74
631.14	1437.1
631.191	1444.05
631.243	1413.23
631.295	1413.68
631.347	1418.71
631.399	1411.66
631.451	1428.05
631.503	1450.08
631.555	1442.16
631.607	1428.69
631.659	1439.63
631.71	1443.89
631.762	1480.3
631.814	1473.38
631.866	1458.62
631.918	1460.4
631.97	1473.13
632.022	1481.29
632.074	1484.96
632.126	1456.57
632.178	1449.38
632.229	1496.63
632.281	1484.43
632.333	1487.97
632.385	1477.26
632.437	1477.63
632.489	1484.54
632.541	1509
632.593	1487.9
632.645	1487.71
632.696	1486.37
632.748	1507.19
632.8	1519.21
632.852	1523.53
632.904	1509.03
632.956	1514.39
633.008	1535.1
633.06	1521.38
633.112	1535.19
633.164	1533.48
633.215	1546.21
633.267	1541.41
633.319	1511.39
633.371	1546.67
633.423	1543.4
633.475	1568.85
633.527	1575.46
633.579	1570.89
633.63	1539.7
633.682	1582.36
633.734	1573.1
633.786	1548.45
633.838	1577.9
633.89	1536.84
633.942	1583.99
633.994	1571.57
634.046	1534.83
634.097	1599.35
634.149	1571.32
634.201	1599.52
634.253	1584.96
634.305	1587.18
634.357	1566.55
634.409	1610.01
634.461	1570.99
634.512	1573.82
634.564	1604.12
634.616	1639.78
634.668	1613.48
634.72	1621.16
634.772	1613.22
634.824	1621.66
634.876	1622.27
634.927	1630.56
634.979	1633.38
635.031	1622.03
635.083	1622.99
635.135	1623.05
635.187	1644.19
635.239	1658.77
635.291	1614.9
635.342	1653.48
635.394	1658.8
635.446	1648.53
635.498	1685.53
635.55	1655.38
635.602	1659.45
635.654	1672.45
635.705	1622.85
635.757	1684.44
635.809	1677.8
635.861	1687.61
635.913	1668.74
635.965	1661.9
636.017	1673.76
636.068	1686.78
636.12	1706.53
636.172	1712.17
636.224	1692.65
636.276	1676.48
636.328	1688.83
636.38	1706.43
636.431	1713.79
636.483	1738.37
636.535	1729.68
636.587	1716.53
636.639	1727.66
636.691	1747.87
636.743	1730.09
636.794	1721.5
636.846	1728.56
636.898	1747.84
636.95	1761.59
637.002	1757.56
637.054	1786.17
637.106	1760.62
637.157	1763.36
637.209	1747.28
637.261	1788.24
637.313	1774.42
637.365	1768.44
637.417	1791.14
637.469	1778.88
637.52	1785.31
637.572	1793.94
637.624	1795.97
637.676	1793.61
637.728	1802.23
637.78	1799.98
637.831	1793.44
637.883	1795.77
637.935	1800.38
637.987	1825.84
638.039	1816.23
638.091	1805.47
638.143	1809.95
638.194	1806.62
638.246	1805.3
638.298	1820.23
638.35	1802.11
638.402	1832.06
638.454	1860.82
638.505	1850.22
638.557	1823.33
638.609	1852.39
638.661	1845.54
638.713	1871.65
638.765	1836.68
638.816	1817.1
638.868	1858.77
638.92	1861.03
638.972	1847.84
639.024	1830.08
639.076	1880.98
639.127	1848.62
639.179	1870.83
639.231	1851.6
639.283	1850.04
639.335	1856.37
639.387	1868.39
639.438	1871.82
639.49	1850.18
639.542	1845.94
639.594	1877.63
639.646	1843.75
639.698	1794.59
639.749	1884.08
639.801	1830.59
639.853	1844.72
639.905	1840.17
639.957	1823.43
640.008	1855.61
640.06	1857.11
640.112	1874.97
640.164	1851.58
640.216	1869.89
640.268	1810.08
640.319	1820.35
640.371	1817.8
640.423	1830.66
640.475	1844.61
640.527	1797.28
640.578	1821.75
640.63	1823
640.682	1811.92
640.734	1831.18
640.786	1820.8
640.838	1812.57
640.889	1795.68
640.941	1808.39
640.993	1824.52
641.045	1799.32
641.097	1818.84
641.148	1828.45
641.2	1806.28
641.252	1834.06
641.304	1798.52
641.356	1801.14
641.408	1819.16
641.459	1811.3
641.511	1777.58
641.563	1800.63
641.615	1812.82
641.667	1819.42
641.718	1790.91
641.77	1783.91
641.822	1818.07
641.874	1773.86
641.926	1806.99
641.977	1820.78
642.029	1788.1
642.081	1793.7
642.133	1760.3
642.185	1797.6
642.236	1793.51
642.288	1787.1
642.34	1787.05
642.392	1807.51
642.444	1800.69
642.495	1785.14
642.547	1779.39
642.599	1786.74
642.651	1786.52
642.703	1796.08
642.754	1755.63
642.806	1779.19
642.858	1801.52
642.91	1815.05
642.962	1785.08
643.013	1776.82
643.065	1776.19
643.117	1773.46
643.169	1803.3
643.221	1782.22
643.272	1763.28
643.324	1806.01
643.376	1758.81
643.428	1768.96
643.479	1766.18
643.531	1802.46
643.583	1807.56
643.635	1780.47
643.687	1766.56
643.738	1768.99
643.79	1784.34
643.842	1795.19
643.894	1751.71
643.946	1802.01
643.997	1801.25
644.049	1810.1
644.101	1760.65
644.153	1796.59
644.205	1773.36
644.256	1806.39
644.308	1781.31
644.36	1799.44
644.412	1803.59
644.463	1795.93
644.515	1768.93
644.567	1775.44
644.619	1813.31
644.671	1798.4
644.722	1799.64
644.774	1791.11
644.826	1768.47
644.878	1800.79
644.929	1798.61
644.981	1785.7
645.033	1814.89
645.085	1819.26
645.136	1790.08
645.188	1784.47
645.24	1812.13
645.292	1831.1
645.344	1766.1
645.395	1785.37
645.447	1790.89
645.499	1822.51
645.551	1794.99
645.602	1786.88
645.654	1810.01
645.706	1836.36
645.758	1831.46
645.81	1771.62
645.861	1791.82
645.913	1858.67
645.965	1814.28
646.017	1833.61
646.068	1807.31
646.12	1851.09
646.172	1838.29
646.224	1850.11
646.275	1832.49
646.327	1793.09
646.379	1845.61
646.431	1838.65
646.482	1828.55
646.534	1812.13
646.586	1855.36
646.638	1833.85
646.689	1850.26
646.741	1827.71
646.793	1827.77
646.845	1834.21
646.896	1853.56
646.948	1864.26
647	1848.01
647.052	1839.44
647.104	1874.19
647.155	1863.5
647.207	1837.51
647.259	1824.27
647.31	1865.91
647.362	1844.65
647.414	1837.38
647.466	1857.18
647.518	1895.51
647.569	1865.01
647.621	1875.76
647.673	1834.83
647.724	1859.75
647.776	1878.08
647.828	1862.78
647.88	1885.06
647.931	1868.38
647.983	1865.72
648.035	1889.06
648.087	1895.34
648.138	1839.31
648.19	1878.34
648.242	1900.22
648.294	1883.24
648.345	1908.21
648.397	1842.39
648.449	1862.67
648.501	1872
648.552	1907.07
648.604	1873.06
648.656	1892.9
648.708	1897.63
648.759	1894.85
648.811	1928.73
648.863	1904.59
648.915	1890.29
648.966	1919.17
649.018	1867.47
649.07	1905.07
649.121	1911.39
649.173	1925.09
649.225	1935.4
649.277	1947.74
649.328	1899.87
649.38	1918.71
649.432	1909.76
649.484	1935.29
649.535	1929.74
649.587	1923.08
649.639	1929.16
649.69	1947.95
649.742	1921.52
649.794	1925.07
649.846	1909.36
649.897	1929.17
649.949	1955.59
650.001	1972.56
650.053	1933.96
650.104	1937.23
650.156	1957.68
650.208	1917.05
650.259	1933.22
650.311	1963.35
650.363	1962.49
650.415	1983.18
650.466	1976.13
650.518	1950.95
650.57	1959.09
650.621	1968.3
650.673	1949.53
650.725	1968.17
650.777	1962.99
650.828	1961.88
650.88	2004.62
650.932	2017.18
650.984	1981.42
651.035	2000.5
651.087	1977.9
651.139	1995.19
651.19	1984.72
651.242	2020.48
651.294	1987.51
651.345	2015.64
651.397	1999.63
651.449	2016.86
651.501	2003
651.552	2025.82
651.604	2010.2
651.656	2047.43
651.707	2018.12
651.759	2014.53
651.811	2020.42
651.863	2028.17
651.914	2057.16
651.966	2044
652.018	2037.25
652.069	2057.46
652.121	2084.29
652.173	2084.4
652.224	2042.71
652.276	2055.96
652.328	2073.57
652.38	2091.25
652.431	2055.17
652.483	2066.56
652.535	2069.41
652.586	2000.08
652.638	2033
652.69	2077.55
652.741	2062.48
652.793	2033.05
652.845	2033.54
652.897	2094.26
652.948	2046.28
653	2063.17
653.052	2106.23
653.103	2086.02
653.155	2092.84
653.207	2104.98
653.258	2116.88
653.31	2130.58
653.362	2096.54
653.413	2101.01
653.465	2131.15
653.517	2082.79
653.568	2100.16
653.62	2139.2
653.672	2116.09
653.724	2075.94
653.775	2108.81
653.827	2139.42
653.879	2108.66
653.93	2112.07
653.982	2140.05
654.034	2129.46
654.085	2106.21
654.137	2123.9
654.189	2142.87
654.24	2132.98
654.292	2140.1
654.344	2154.41
654.395	2130.89
654.447	2180.86
654.499	2163.31
654.55	2155.44
654.602	2147.76
654.654	2154.15
654.705	2146.8
654.757	2125.57
654.809	2169.19
654.86	2161.52
654.912	2131.46
654.964	2202.51
655.016	2150.48
655.067	2178.49
655.119	2127.14
655.17	2182.18
655.222	2185.22
655.274	2196.65
655.326	2154.78
655.377	2182.74
655.429	2198.78
655.481	2189.17
655.532	2170.99
655.584	2181.42
655.635	2155.98
655.687	2198.54
655.739	2192.78
655.79	2207.5
655.842	2206.63
655.894	2207.97
655.945	2220.83
655.997	2234.44
656.049	2233.93
656.1	2251.11
656.152	2197.33
656.204	2207.06
656.255	2259.22
656.307	2221.83
656.359	2204.65
656.41	2256.11
656.462	2245.13
656.514	2176.98
656.565	2247.97
656.617	2276.69
656.669	2259.11
656.72	2249.13
656.772	2252.08
656.824	2277.42
656.875	2243.95
656.927	2274.93
656.979	2262.83
657.03	2263.54
657.082	2237
657.134	2286.59
657.185	2288.77
657.237	2316.25
657.288	2231.46
657.34	2257.28
657.392	2263.67
657.443	2261.25
657.495	2286.13
657.547	2305.72
657.598	2317.04
657.65	2335
657.702	2267.68
657.753	2314.71
657.805	2305.86
657.857	2286.44
657.908	2319.87
657.96	2285.56
658.011	2298.88
658.063	2324.99
658.115	2323.72
658.166	2335.29
658.218	2317.27
658.27	2321.51
658.321	2307.6
658.373	2358.24
658.425	2299.38
658.476	2300.85
658.528	2341.56
658.579	2349.37
658.631	2342.4
658.683	2370.57
658.734	2354.16
658.786	2361.09
658.838	2340.33
658.889	2367.37
658.941	2313.6
658.992	2385.48
659.044	2335.22
659.096	2335.21
659.147	2338.58
659.199	2361.25
659.251	2339.12
659.302	2350.96
659.354	2352.98
659.406	2329.12
659.457	2335.97
659.509	2371.41
659.56	2331.84
659.612	2331.54
659.664	2407.88
659.715	2362.24
659.767	2321.76
659.818	2381.44
659.87	2358.98
659.922	2347.29
659.973	2343.25
660.025	2352.2
660.077	2363.54
660.128	2345.35
660.18	2333.82
660.231	2348.07
660.283	2346.47
660.335	2355.49
660.386	2336.58
660.438	2363.12
660.49	2392.41
660.541	2359.53
660.593	2338.17
660.644	2348.72
660.696	2360.47
660.748	2367.12
660.799	2292.1
660.851	2324.46
660.902	2339.7
660.954	2391.91
661.006	2355.81
661.057	2384.34
661.109	2355.57
661.16	2355.5
661.212	2377.77
661.264	2342.92
661.315	2333.52
661.367	2381.26
661.418	2327.44
661.47	2371.99
661.522	2326.77
661.573	2348.23
661.625	2355.01
661.676	2354.47
661.728	2311.77
661.78	2327.13
661.831	2354.06
661.883	2311.26
661.934	2335.86
661.986	2343.39
662.038	2351.75
662.089	2347.22
662.141	2359.3
662.192	2341.73
662.244	2346.17
662.296	2345.4
662.347	2330.13
662.399	2343.49
662.45	2354.02
662.502	2327.13
662.554	2366.46
662.605	2358.71
662.657	2324.68
662.708	2342.76
662.76	2365.73
662.811	2362.19
662.863	2314.47
662.915	2355.42
662.966	2375.44
663.018	2341.4
663.069	2306.72
663.121	2348.56
663.173	2380.45
663.224	2355.5
663.276	2341.22
663.327	2366.56
663.379	2360.45
663.43	2359.18
663.482	2361.63
663.534	2363.68
663.585	2337.41
663.637	2353.76
663.688	2286.07
663.74	2348.51
663.792	2341.69
663.843	2359.53
663.895	2369.91
663.946	2362.19
663.998	2364.42
664.049	2345.6
664.101	2346.13
664.153	2332.48
664.204	2339.94
664.256	2312.75
664.307	2322.25
664.359	2367.53
664.41	2346.15
664.462	2338.03
664.513	2346.85
664.565	2330.95
664.617	2356.8
664.668	2353.84
664.72	2333.97
664.771	2350.46
664.823	2375.61
664.874	2337.78
664.926	2354.91
664.978	2349.51
665.029	2359.13
665.081	2383.7
665.132	2376.12
665.184	2332.52
665.235	2345.95
665.287	2342.53
665.339	2332.11
665.39	2351.33
665.442	2365.15
665.493	2345.95
665.545	2353.88
665.596	2336.39
665.648	2356.52
665.699	2377.38
665.751	2366.12
665.802	2337.03
665.854	2340.42
665.906	2368.55
665.957	2331.42
666.009	2332.68
666.06	2332.96
666.112	2367.47
666.163	2367.65
666.215	2376.17
666.266	2360.47
666.318	2346.5
666.37	2348.51
666.421	2387.2
666.473	2352.83
666.524	2358.61
666.576	2354.26
666.627	2348.12
666.679	2346.44
666.73	2348.24
666.782	2341.12
666.833	2344.82
666.885	2344.29
666.937	2348.74
666.988	2346.33
667.04	2333.23
667.091	2341.7
667.143	2351.79
667.194	2354.75
667.246	2353.21
667.297	2346.33
667.349	2358
667.4	2361.42
667.452	2335.22
667.503	2347.64
667.555	2344.96
667.607	2345.45
667.658	2367.44
667.71	2379.77
667.761	2375.81
667.813	2362.18
667.864	2349.99
667.916	2329.84
667.967	2358.9
668.019	2364.16
668.07	2363.99
668.122	2361.78
668.173	2373.1
668.225	2362.98
668.276	2348.02
668.328	2349.35
668.379	2349.24
668.431	2345.44
668.482	2368.37
668.534	2351.3
668.586	2350.05
668.637	2351.62
668.689	2338.9
668.74	2369.69
668.792	2379.66
668.843	2374.8
668.895	2379.39
668.935	2353
668.987	2359.97
669.038	2346.41
669.09	2358.03
669.142	2374.86
669.194	2360.19
669.245	2398.42
669.297	2365.39
669.349	2385.45
669.401	2351.27
669.453	2339.29
669.504	2359.04
669.556	2366.67
669.608	2356.82
669.66	2375.28
669.711	2377.88
669.763	2406.35
669.815	2352.65
669.867	2374.08
669.918	2356.52
669.97	2394.57
670.022	2368.84
670.074	2393.77
670.125	2348.7
670.177	2363.69
670.229	2374.58
670.281	2364.37
670.332	2365.49
670.384	2369.43
670.436	2421.41
670.488	2371.93
670.539	2368.43
670.591	2384.71
670.643	2362.97
670.695	2389.58
670.747	2388.89
670.798	2366.24
670.85	2376.33
670.902	2386.6
670.953	2373.87
671.005	2361.21
671.057	2384.25
671.109	2393.51
671.161	2366.87
671.212	2369.44
671.264	2347.66
671.316	2382.44
671.367	2366.81
671.419	2362.8
671.471	2385.17
671.523	2367.92
671.575	2360.36
671.626	2404.37
671.678	2392.95
671.73	2388.92
671.781	2368.08
671.833	2351.31
671.885	2378.43
671.937	2406.46
671.988	2360
672.04	2421.5
672.092	2389.82
672.144	2371.93
672.195	2373.06
672.247	2396.29
672.299	2390.18
672.351	2373.45
672.402	2380.59
672.454	2417.85
672.506	2402.51
672.558	2412.19
672.609	2380
672.661	2377.23
672.713	2337.95
672.765	2357.31
672.816	2374.49
672.868	2364.26
672.92	2404.9
672.971	2386.69
673.023	2395.37
673.075	2353.92
673.127	2368.93
673.178	2371.76
673.23	2367.73
673.282	2392.21
673.334	2350.33
673.385	2364.67
673.437	2422.51
673.489	2393.73
673.54	2398.99
673.592	2409.28
673.644	2437.24
673.696	2418.67
673.747	2379.64
673.799	2398.98
673.851	2403.94
673.903	2443.13
673.954	2436.53
674.006	2401.73
674.058	2394.76
674.109	2402.14
674.161	2407.32
674.213	2407.23
674.265	2399.78
674.316	2414.97
674.368	2384.55
674.42	2416.09
674.471	2395.02
674.523	2427.85
674.575	2458.96
674.627	2444.08
674.678	2371.86
674.73	2414.4
674.782	2427.13
674.833	2431.5
674.885	2430.43
674.937	2427.99
674.989	2438.64
675.04	2406.84
675.092	2432.79
675.144	2447.59
675.195	2415.33
675.247	2413.31
675.299	2400.28
675.351	2465.79
675.402	2433.52
675.454	2462.1
675.506	2448.41
675.557	2432.64
675.609	2493.25
675.661	2499.23
675.713	2449.5
675.764	2476.22
675.816	2440.98
675.868	2447.08
675.919	2472.88
675.971	2436.66
676.023	2461.55
676.074	2465.8
676.126	2464.92
676.178	2494.13
676.23	2489.16
676.281	2479.04
676.333	2439.89
676.385	2482.85
676.436	2506.17
676.488	2477.56
676.54	2508.21
676.591	2487.79
676.643	2473.48
676.695	2460.08
676.747	2470.55
676.798	2486.19
676.85	2511.24
676.902	2467.45
676.953	2470.74
677.005	2489.82
677.057	2503.78
677.108	2440.39
677.16	2495.26
677.212	2487.29
677.263	2515.93
677.315	2496.24
677.367	2517.33
677.419	2496.32
677.47	2467.85
677.522	2506.54
677.574	2522.13
677.625	2513.6
677.677	2473.54
677.729	2472.38
677.78	2513.27
677.832	2511.98
677.884	2486.4
677.935	2510.3
677.987	2500.57
678.039	2516.29
678.091	2483.67
678.142	2506.98
678.194	2505.93
678.246	2529.9
678.297	2531.31
678.349	2486.94
678.401	2503.63
678.452	2505.59
678.504	2496.23
678.556	2532.69
678.607	2498.74
678.659	2502.96
678.711	2517.62
678.762	2507.55
678.814	2542.41
678.866	2522.8
678.917	2512.36
678.969	2461.69
679.021	2492.5
679.072	2485.53
679.124	2494.62
679.176	2540.73
679.227	2480.13
679.279	2497.4
679.331	2489.07
679.382	2453.15
679.434	2474.14
679.486	2502.59
679.537	2493.31
679.589	2494.73
679.641	2504.65
679.692	2489.27
679.744	2503.23
679.796	2521.27
679.847	2462.5
679.899	2504.68
679.951	2479.74
680.003	2499.07
680.054	2487.01
680.106	2498.06
680.157	2520.57
680.209	2496.74
680.261	2495.81
680.312	2493.65
680.364	2486.12
680.416	2472.27
680.467	2492.97
680.519	2520.99
680.571	2510.33
680.622	2457.9
680.674	2499.57
680.726	2495.33
680.777	2497.46
680.829	2491.41
680.881	2491.82
680.932	2476.78
680.984	2500.44
681.036	2517.82
681.087	2491.23
681.139	2485.15
681.191	2445.33
681.242	2520.68
681.294	2501.05
681.346	2499.19
681.397	2485.22
681.449	2488.46
681.501	2502.7
681.552	2522.69
681.604	2484.86
681.656	2527.02
681.707	2515.98
681.759	2497.25
681.81	2471.85
681.862	2509.47
681.914	2489.83
681.965	2506.6
682.017	2522.61
682.069	2493.37
682.12	2510.19
682.172	2533.58
682.224	2530.23
682.275	2529.03
682.327	2542.3
682.379	2513.85
682.43	2538.11
682.482	2530.88
682.533	2537.88
682.585	2495.79
682.637	2521.02
682.688	2519.2
682.74	2508.13
682.792	2522.23
682.843	2505.56
682.895	2508.99
682.947	2507.58
682.998	2533.38
683.05	2499.05
683.102	2525.95
683.153	2517.43
683.205	2520.25
683.256	2546.97
683.308	2557.13
683.36	2556.03
683.411	2487.45
683.463	2520.02
683.515	2554.81
683.566	2545.82
683.618	2512.66
683.669	2530.35
683.721	2548.75
683.773	2508.3
683.824	2534.37
683.876	2540.4
683.928	2543.29
683.979	2533.83
684.031	2534.08
684.082	2543.04
684.134	2492.76
684.186	2526.2
684.237	2538.72
684.289	2536.4
684.341	2455.37
684.392	2545.7
684.444	2522.94
684.495	2541.06
684.547	2506
684.599	2546.57
684.65	2486.88
684.702	2538.42
684.754	2526.13
684.805	2512.76
684.857	2480.35
684.908	2529.63
684.96	2504.15
685.012	2509.94
685.063	2511.3
685.115	2519.82
685.166	2522.91
685.218	2541.63
685.27	2504.59
685.321	2482.26
685.373	2553.47
685.424	2510.32
685.476	2459.98
685.528	2529.53
685.579	2485.74
685.631	2501.86
685.683	2490.62
685.734	2521.35
685.786	2541.52
685.837	2511.23
685.889	2530.4
685.941	2450.83
685.992	2454.39
686.044	2504.27
686.095	2504.67
686.147	2544.94
686.199	2517.73
686.25	2479.84
686.302	2527.05
686.353	2508.97
686.405	2520.32
686.457	2506.45
686.508	2498.91
686.56	2478.79
686.611	2516.57
686.663	2502.91
686.715	2533.54
686.766	2507.5
686.818	2417.35
686.869	2512.29
686.921	2492.37
686.973	2483.71
687.024	2466.27
687.076	2496.85
687.127	2504.05
687.179	2499.66
687.231	2487.01
687.282	2432.68
687.334	2489.9
687.385	2455.06
687.437	2484.36
687.489	2480.09
687.54	2505.09
687.592	2490.03
687.643	2455.87
687.695	2445.6
687.747	2452.97
687.798	2453.91
687.85	2468.44
687.901	2464.22
687.953	2482.19
688.004	2479.52
688.056	2439.51
688.108	2494.9
688.159	2505.46
688.211	2440.74
688.262	2446.03
688.314	2447.05
688.366	2471.05
688.417	2463.71
688.469	2457.51
688.52	2466.07
688.572	2487.26
688.623	2459.28
688.675	2456.34
688.727	2466.9
688.778	2474.25
688.83	2479.48
688.881	2456.48
688.933	2443.96
688.984	2430.37
689.036	2452.25
689.088	2458.28
689.139	2457.9
689.191	2472.12
689.242	2463.44
689.294	2444.59
689.346	2456.45
689.397	2455.12
689.449	2448.85
689.5	2492.94
689.552	2464.71
689.603	2484.4
689.655	2440.9
689.706	2474.65
689.758	2472.57
689.81	2459.95
689.861	2474.65
689.913	2397.24
689.964	2459.38
690.016	2476.53
690.067	2436.01
690.119	2485.57
690.171	2478.37
690.222	2409.18
690.274	2452.2
690.325	2451.3
690.377	2470.59
690.428	2471.34
690.48	2469.3
690.531	2447.58
690.583	2451.18
690.635	2468.39
690.686	2452.76
690.738	2450.47
690.789	2460.51
690.841	2470.34
690.892	2448.59
690.944	2439.67
690.996	2472.2
691.047	2458.76
691.099	2419.22
691.15	2463.13
691.202	2472.13
691.253	2419.59
691.305	2443.91
691.356	2432.09
691.408	2426.57
691.459	2448.63
691.511	2446.46
691.563	2448.56
691.614	2423.01
691.666	2444.91
691.717	2451.63
691.769	2461.22
691.82	2445.14
691.872	2414.13
691.923	2437.24
691.975	2441.39
692.026	2458.45
692.078	2442.84
692.13	2415.75
692.181	2427.02
692.233	2435.25
692.284	2484.94
692.336	2433.74
692.387	2456.72
692.439	2423.22
692.49	2440.58
692.542	2421.8
692.593	2424.4
692.645	2430.44
692.697	2409.13
692.748	2409.31
692.8	2420.2
692.851	2457.63
692.903	2393.55
692.954	2426.05
693.006	2373.94
693.057	2447.28
693.109	2407.46
693.16	2427.32
693.212	2399.4
693.263	2387.75
693.315	2414.79
693.366	2444.27
693.418	2365.17
693.47	2415.12
693.521	2393.5
693.573	2396.21
693.624	2398.68
693.676	2404.13
693.727	2425.4
693.779	2417.73
693.83	2396.14
693.882	2399.15
693.933	2394.82
693.985	2387.51
694.036	2378.31
694.088	2426.98
694.139	2424.53
694.191	2391.06
694.242	2390.54
694.294	2395.11
694.345	2393.01
694.397	2412.07
694.448	2374.36
694.5	2387.89
694.552	2423.87
694.603	2341.36
694.655	2390.36
694.706	2394.71
694.758	2398.22
694.809	2381.7
694.861	2405.99
694.912	2398.32
694.964	2423.77
695.015	2379.57
695.067	2396.17
695.118	2392.3
695.17	2395.88
695.221	2368.44
695.273	2389.27
695.324	2441.25
695.376	2395.76
695.427	2395.22
695.479	2410.67
695.53	2362.81
695.582	2378.2
695.633	2378.68
695.685	2371.84
695.736	2375.93
695.788	2374.85
695.839	2398.59
695.891	2380.45
695.942	2405.24
695.994	2391.21
696.045	2368.46
696.097	2362.84
696.148	2380.9
696.2	2378.56
696.251	2345.04
696.303	2396.74
696.354	2397.86
696.406	2394.69
696.457	2402.35
696.509	2361.44
696.56	2399.44
696.612	2373.73
696.663	2422.69
696.715	2351.53
696.766	2375.59
696.818	2421.28
696.869	2388.89
696.921	2378.15
696.972	2407.58
697.024	2399.09
697.075	2386.3
697.127	2401.75
697.178	2345.34
697.23	2353.99
697.281	2370.16
697.333	2358.05
697.384	2410.38
697.436	2392.2
697.487	2372.15
697.539	2315.2
697.59	2390.5
697.642	2391.43
697.693	2386.63
697.745	2377.1
697.796	2396.88
697.847	2371.62
697.899	2373.86
697.95	2398.29
698.002	2366.98
698.053	2384.12
698.105	2362.71
698.156	2369.59
698.208	2365.04
698.259	2380.97
698.311	2372.32
698.362	2429.57
698.414	2371.17
698.465	2350.31
698.517	2308.67
698.568	2367.38
698.62	2362.27
698.671	2382.52
698.723	2376.33
698.774	2355.82
698.826	2354.08
698.877	2370.04
698.928	2335.32
698.98	2374.57
699.031	2312.32
699.083	2361.54
699.134	2332.34
699.186	2357.18
699.237	2324.48
699.289	2381.16
699.34	2340.45
699.392	2343.77
699.443	2350.23
699.495	2345.47
699.546	2310.74
699.598	2353.23
699.649	2312.89
699.7	2353.2
699.752	2335.17
699.803	2331.73
699.855	2306.52
699.906	2362.17
699.958	2360.67
700.009	2306.25
700.061	2340.11
700.112	2339.45
700.164	2306.31
700.215	2352.22
700.266	2335.77
700.318	2321.21
700.369	2326.41
700.421	2313.04
700.472	2340.85
700.524	2323.98
700.575	2307.59
700.627	2319.07
700.678	2320.66
700.73	2307.68
700.781	2266.7
700.832	2343.21
700.884	2298.16
700.935	2281.73
700.987	2307.37
701.038	2280.6
701.09	2354.44
701.141	2281.09
701.193	2307.94
701.244	2293.82
701.295	2313.42
701.347	2313.87
701.398	2307.4
701.45	2316.24
701.501	2342.77
701.553	2270.63
701.604	2291.11
701.656	2301.98
701.707	2286.65
701.758	2339.57
701.81	2268.33
701.861	2348.73
701.913	2275.17
701.964	2320.16
702.016	2297.91
702.067	2306.21
702.119	2283.57
702.17	2266.35
702.221	2292.01
702.273	2292.61
702.324	2317.62
702.376	2290.24
702.427	2289.39
702.479	2307.23
702.53	2305.19
702.581	2312.83
702.633	2290.64
702.684	2308.99
702.736	2318.65
702.787	2309.9
702.839	2331.12
702.89	2273.61
702.941	2285.45
702.993	2302.82
703.044	2293.71
703.096	2276.73
703.147	2311.28
703.199	2322.75
703.25	2273.89
703.301	2311.14
703.353	2293.72
703.404	2288.66
703.456	2314.57
703.507	2313.94
703.558	2325.18
703.61	2304.08
703.661	2308.1
703.713	2300.97
703.764	2300.55
703.816	2305.91
703.867	2299.47
703.918	2294.45
703.97	2282.98
704.021	2304.79
704.073	2296.48
704.124	2323.39
704.175	2282.18
704.227	2281.77
704.278	2315.66
704.33	2285.09
704.381	2295.82
704.432	2322.39
704.484	2292.45
704.535	2287.15
704.587	2301.98
704.638	2285.57
704.69	2305.9
704.741	2317.26
704.792	2290.62
704.844	2318.75
704.895	2298.86
704.947	2304.74
704.998	2273.69
705.049	2300.88
705.101	2289.95
705.152	2296.94
705.204	2316.3
705.255	2305.36
705.306	2319.18
705.358	2248.7
705.409	2274.98
705.461	2312.63
705.512	2275.99
705.563	2279.94
705.615	2252.26
705.666	2296.74
705.718	2277.76
705.769	2273.16
705.82	2301.06
705.872	2259.68
705.923	2278.16
705.974	2304.67
706.026	2303.17
706.077	2288.49
706.129	2282.15
706.18	2289.72
706.231	2286.04
706.283	2273.16
706.334	2290.71
706.386	2248.81
706.437	2255.59
706.488	2310.15
706.54	2288.49
706.591	2271.55
706.643	2274.2
706.694	2284.96
706.745	2240.88
706.797	2273.21
706.848	2239.01
706.899	2307.58
706.951	2229.46
707.002	2270.31
707.054	2264.14
707.105	2284.27
707.156	2261.89
707.208	2247.39
707.259	2288.94
707.31	2247.81
707.362	2288.11
707.413	2289.51
707.465	2242.89
707.516	2268.73
707.567	2240.73
707.619	2270.1
707.67	2236.11
707.721	2212.09
707.773	2189
707.824	2248.47
707.876	2235.64
707.927	2267.76
707.978	2251.89
708.03	2235.09
708.081	2264.41
708.132	2255.92
708.184	2226.72
708.235	2259.54
708.287	2204.87
708.338	2214.52
708.389	2245.97
708.441	2231.34
708.492	2208.58
708.543	2250.16
708.595	2262.78
708.646	2247.56
708.697	2232.13
708.749	2222.3
708.8	2250.41
708.852	2229.23
708.903	2225.62
708.954	2251.2
709.006	2243.91
709.057	2215.15
709.108	2221.14
709.16	2199.54
709.211	2216.99
709.262	2223.79
709.314	2194.47
709.365	2251.32
709.416	2200.5
709.468	2240.55
709.519	2192.74
709.57	2151.81
709.622	2206.67
709.673	2234.07
709.725	2200.72
709.776	2209.29
709.827	2237.86
709.879	2179.03
709.93	2196.46
709.981	2206.91
710.033	2205.63
710.084	2242.29
710.135	2208.28
710.187	2230.97
710.238	2208.69
710.289	2213.27
710.341	2218.05
710.392	2222.88
710.443	2213.67
710.495	2227.38
710.546	2168.79
710.597	2179.61
710.649	2248.41
710.7	2183.75
710.751	2187.78
710.803	2218.73
710.854	2216.09
710.905	2187.87
710.957	2208.47
711.008	2241.9
711.059	2168.37
711.111	2205.7
711.162	2195.58
711.213	2196.19
711.265	2209.89
711.316	2237.32
711.367	2212.78
711.419	2183.29
711.47	2199.01
711.521	2209.41
711.573	2220.69
711.624	2208.5
711.675	2204.09
711.727	2200.56
711.778	2183.11
711.829	2211.14
711.881	2213.56
711.932	2211.99
711.983	2241.57
712.035	2226.14
712.086	2205.92
712.137	2209.44
712.189	2200.69
712.24	2237.06
712.291	2194.75
712.343	2214.23
712.394	2197.99
712.445	2199.92
712.496	2185.6
712.548	2193.55
712.599	2214.46
712.65	2196.17
712.702	2200.21
712.753	2192.57
712.804	2178.26
712.856	2197.42
712.907	2186.77
712.958	2195.32
713.01	2192.37
713.061	2200.22
713.112	2199.8
713.164	2181.87
713.215	2201.36
713.266	2184.43
713.317	2197.77
713.369	2180.07
713.42	2183.89
713.471	2198.79
713.523	2178.26
713.574	2173.43
713.625	2176.14
713.677	2158.71
713.728	2193.07
713.779	2175.76
713.831	2158.27
713.882	2168.68
713.933	2164.6
713.984	2178.89
714.036	2158.39
714.087	2151.27
714.138	2166.82
714.19	2156.94
714.241	2152.28
714.292	2157.56
714.343	2168.73
714.395	2154.8
714.446	2156.79
714.497	2155.48
714.549	2168.02
714.6	2167.66
714.651	2164.86
714.703	2155.25
714.754	2136.75
714.805	2157.45
714.856	2159.03
714.908	2150.77
714.959	2135.11
715.01	2136
715.062	2141.53
715.113	2149.6
715.164	2141.45
715.215	2136.9
715.267	2139.87
715.318	2143.11
715.369	2127.04
715.421	2113.55
715.472	2134.38
715.523	2131.61
715.574	2112.96
715.626	2122.15
715.677	2136.98
715.728	2133.2
715.779	2131.26
715.831	2147.18
715.882	2139.24
715.933	2126.19
715.985	2107.23
716.036	2105.17
716.087	2105.2
716.138	2114.37
716.19	2093.37
716.241	2107.72
716.292	2102.21
716.343	2066.01
716.395	2087.86
716.433	2098.98
716.485	2083.91
716.536	2119.22
716.588	2120.66
716.639	2118.7
716.691	2049.69
716.742	2073.6
716.794	2113.36
716.845	2055.12
716.897	2065.22
716.948	2110.71
717	2103.61
717.052	2041.53
717.103	2115.48
717.155	2057.35
717.206	2084.97
717.258	2097.81
717.309	2052.89
717.361	2091.14
717.412	2097.42
717.464	2063.29
717.515	2039.14
717.567	2049.59
717.618	2030.86
717.67	2071.21
717.721	2061.25
717.773	2092.94
717.824	2069.09
717.876	2057.27
717.927	2057.54
717.979	2083.55
718.03	2056.69
718.082	2068.13
718.133	2052.78
718.185	2055.04
718.237	2047.82
718.288	2016.2
718.34	2077.21
718.391	2050.54
718.443	2054.47
718.494	2056.75
718.546	2061.02
718.597	2087.15
718.649	2022.7
718.7	2068.31
718.752	2047.27
718.803	2082.21
718.855	2039.56
718.906	2064.06
718.958	2076.44
719.009	2031.93
719.061	2081.68
719.112	2047.02
719.164	2017.18
719.215	2044.31
719.267	2057.58
719.318	2045.77
719.37	2037.51
719.421	2040.34
719.473	2020.8
719.524	2062.39
719.576	2046.97
719.627	2013.14
719.679	2069.3
719.73	2058.37
719.782	2036.3
719.833	2061.68
719.885	2015.74
719.936	2054.7
719.988	2050.95
720.039	2038.23
720.091	2005.24
720.142	2037.25
720.194	2040.33
720.245	2025.84
720.297	2021.48
720.348	1984.66
720.4	1997.01
720.451	2025.89
720.503	2017.19
720.554	2038.67
720.606	1987.05
720.657	2023.4
720.709	2021.82
720.76	1996.18
720.812	1974.25
720.863	2043.14
720.915	2018.64
720.966	2025.63
721.018	1960.5
721.069	2036.71
721.121	2047.16
721.172	1998.23
721.224	2007.6
721.275	2003.36
721.327	1993.11
721.378	2016.02
721.43	2016.27
721.481	1979.66
721.532	2030.32
721.584	1981.72
721.635	1979.83
721.687	1985.46
721.738	2026.76
721.79	1999.7
721.841	2008.55
721.893	1948.97
721.944	1971.05
721.996	1995.76
722.047	1983.38
722.099	2001.38
722.15	1974.33
722.202	1994.22
722.253	1967.81
722.305	1977.03
722.356	1956.81
722.408	1968.66
722.459	1980.7
722.511	1992.92
722.562	1970.7
722.614	1967.7
722.665	1947.92
722.716	1966.44
722.768	1941.22
722.819	1959.55
722.871	1931.8
722.922	1946.59
722.974	1942.37
723.025	1973.03
723.077	1962.66
723.128	1983.03
723.18	1968.44
723.231	1959.97
723.283	1970.55
723.334	1944.93
723.386	1946.29
723.437	1930.96
723.488	1935.02
723.54	1935.2
723.591	1955.83
723.643	1956.93
723.694	1946.29
723.746	1940.78
723.797	1941.85
723.849	1912.34
723.9	1926.97
723.952	1949.7
724.003	1961.12
724.055	1953.31
724.106	1931.26
724.157	1947.81
724.209	1938.45
724.26	1936.8
724.312	1917.06
724.363	1897.31
724.415	1944.8
724.466	1950.8
724.518	1934.6
724.569	1925.97
724.621	1931.42
724.672	1916.08
724.723	1902.06
724.775	1943.86
724.826	1915.82
724.878	1917.71
724.929	1922.28
724.981	1886.69
725.032	1918.63
725.084	1924.7
725.135	1913.98
725.187	1915.03
725.238	1920.03
725.289	1939.34
725.341	1905.21
725.392	1924.37
725.444	1922.59
725.495	1932.45
725.547	1896.6
725.598	1911.55
725.65	1909.46
725.701	1900.74
725.752	1894.55
725.804	1893.52
725.855	1883.36
725.907	1881.13
725.958	1877.77
726.01	1886.4
726.061	1901.78
726.112	1897.72
726.164	1902.9
726.215	1880.58
726.267	1863.42
726.318	1888.14
726.37	1891.76
726.421	1878.18
726.473	1859.23
726.524	1899.36
726.575	1884.32
726.627	1886.49
726.678	1880.98
726.73	1861.26
726.781	1883.96
726.833	1871.25
726.884	1873.09
726.935	1862.93
726.987	1875.07
727.038	1893.69
727.09	1887.09
727.141	1854.02
727.193	1884.8
727.244	1846.76
727.295	1873.99
727.347	1874.68
727.398	1887.24
727.45	1842.2
727.501	1863.51
727.552	1879.17
727.604	1891.9
727.655	1904.42
727.707	1903.44
727.758	1891.74
727.81	1881.45
727.861	1882.07
727.912	1848.25
727.964	1872.41
728.015	1867.58
728.067	1845.65
728.118	1835.92
728.17	1871.84
728.221	1868.49
728.272	1828.31
728.324	1838.94
728.375	1850.65
728.427	1848.75
728.478	1845.57
728.529	1876.35
728.581	1835.68
728.632	1869.58
728.684	1810.17
728.735	1861.96
728.786	1835.2
728.838	1841.14
728.889	1806.39
728.941	1807.02
728.992	1813.02
729.044	1846.08
729.095	1846.04
729.146	1793.61
729.198	1796.75
729.249	1816.02
729.301	1781.93
729.352	1794.49
729.403	1840.24
729.455	1801.69
729.506	1841.58
729.558	1796.88
729.609	1819.43
729.66	1766.35
729.712	1806.35
729.763	1789.58
729.815	1809.54
729.866	1793.42
729.917	1840.51
729.969	1820.27
730.02	1814.08
730.072	1791.73
730.123	1805.57
730.174	1787.94
730.226	1763.45
730.277	1819.04
730.329	1809.39
730.38	1775.85
730.431	1759.96
730.483	1761.83
730.534	1756.67
730.586	1837.53
730.637	1785.45
730.688	1801.61
730.74	1791.66
730.791	1794.37
730.842	1777.64
730.894	1789.97
730.945	1768.61
730.997	1769.19
731.048	1772.27
731.099	1764.06
731.151	1783.73
731.202	1761.73
731.254	1774.8
731.305	1803.44
731.356	1773.66
731.408	1778.84
731.459	1800.79
731.51	1758.45
731.562	1777.57
731.613	1761.67
731.665	1763.89
731.716	1788.43
731.767	1811.44
731.819	1751.61
731.87	1761.66
731.922	1772.96
731.973	1760.35
732.024	1768.74
732.076	1750.57
732.127	1742.33
732.178	1769.31
732.23	1776.85
732.281	1739.68
732.333	1803.68
732.384	1756.87
732.435	1710.02
732.487	1743.2
732.538	1763.64
732.589	1767.07
732.641	1705.63
732.692	1736.95
732.744	1759.78
732.795	1747.43
732.846	1753.46
732.898	1714.52
732.949	1767.26
733	1712.95
733.052	1726.29
733.103	1755.09
733.154	1741.46
733.206	1743.21
733.257	1682.74
733.309	1739.35
733.36	1762.06
733.411	1738.16
733.463	1732.64
733.514	1731.35
733.565	1742.78
733.617	1723.12
733.668	1728.87
733.719	1720.51
733.771	1733.36
733.822	1708.11
733.873	1733.8
733.925	1724.26
733.976	1702.09
734.028	1716.77
734.079	1747.04
734.13	1727.75
734.182	1708.32
734.233	1715.61
734.284	1702.94
734.336	1667.54
734.387	1718.5
734.438	1732.76
734.49	1697.64
734.541	1700.93
734.592	1766.69
734.644	1697.94
734.695	1695.76
734.747	1702.05
734.798	1716.79
734.849	1715.87
734.901	1720.59
734.952	1711.09
735.003	1711.49
735.055	1704.75
735.106	1713.56
735.157	1706.66
735.209	1701.1
735.26	1694.02
735.311	1668.36
735.363	1706.57
735.414	1702.06
735.465	1687.58
735.517	1719.97
735.568	1704.14
735.619	1698.35
735.671	1679.94
735.722	1661.67
735.773	1703.2
735.825	1662.45
735.876	1684.3
735.927	1703.32
735.979	1645.47
736.03	1685.58
736.081	1685.63
736.133	1646.98
736.184	1640.79
736.235	1692.7
736.287	1679.14
736.338	1684.11
736.389	1653.73
736.441	1660.45
736.492	1677.29
736.543	1685.77
736.595	1675.94
736.646	1681.84
736.697	1662.31
736.749	1658.49
736.8	1676.03
736.851	1639.58
736.903	1705.36
736.954	1651.63
737.005	1638.98
737.057	1680.25
737.108	1680.26
737.159	1639.06
737.211	1653.38
737.262	1672.01
737.313	1659.38
737.365	1673.7
737.416	1633.86
737.467	1656.39
737.518	1661.66
737.57	1656.82
737.621	1667.53
737.672	1612.94
737.724	1662.14
737.775	1615.03
737.826	1661.83
737.878	1644.96
737.929	1643.8
737.98	1622.77
738.032	1641.38
738.083	1658.39
738.134	1625.54
738.186	1623.81
738.237	1646.14
738.288	1665.64
738.339	1641.24
738.391	1626.88
738.442	1615.44
738.493	1674.97
738.545	1657.93
738.596	1630.92
738.647	1622.29
738.699	1623.51
738.75	1559.44
738.801	1639.94
738.853	1619.78
738.904	1589.75
738.955	1644.81
739.006	1619.19
739.058	1617.73
739.109	1624.81
739.16	1599.33
739.212	1623.42
739.263	1620.55
739.314	1607.73
739.366	1584.97
739.417	1599.01
739.468	1586.13
739.519	1576.05
739.571	1609.85
739.622	1594.1
739.673	1616.64
739.725	1594
739.776	1638.07
739.827	1574.71
739.878	1595.04
739.93	1612.62
739.981	1601.84
740.032	1623.54
740.084	1602.52
740.135	1603.98
740.186	1606.67
740.237	1575.18
740.289	1570.54
740.34	1584.27
740.391	1612.15
740.443	1594.73
740.494	1574.59
740.545	1568.79
740.596	1600.04
740.648	1586.25
740.699	1578.35
740.75	1576.28
740.802	1565.72
740.853	1599.05
740.904	1559.81
740.956	1581.37
741.007	1584.27
741.058	1584.2
741.109	1586.93
741.161	1603.9
741.212	1579.82
741.263	1602.69
741.314	1598.68
741.366	1554.98
741.417	1605.05
741.468	1577
741.52	1584.47
741.571	1554.97
741.622	1558.17
741.673	1544.32
741.725	1556.07
741.776	1592.02
741.827	1568.19
741.878	1528.62
741.93	1588.6
741.981	1567.34
742.032	1590.12
742.083	1550.25
742.135	1557.41
742.186	1561.84
742.237	1574.98
742.289	1556.93
742.34	1531.83
742.391	1566.57
742.442	1558.47
742.494	1563.05
742.545	1553.21
742.596	1540.4
742.647	1546.09
742.699	1546.11
742.75	1563.34
742.801	1535.04
742.852	1566.75
742.904	1554.27
742.955	1563.22
743.006	1520.74
743.057	1526.78
743.109	1534.25
743.16	1537.47
743.211	1567.89
743.263	1541.2
743.314	1525.96
743.365	1537.89
743.416	1549.82
743.468	1553.13
743.519	1526.35
743.57	1522.44
743.621	1537.11
743.672	1517.36
743.724	1503.27
743.775	1504.89
743.826	1479.25
743.878	1539.63
743.929	1524.12
743.98	1540.25
744.031	1458.92
744.083	1525.37
744.134	1557.33
744.185	1518.79
744.236	1531.72
744.287	1531.54
744.339	1518.35
744.39	1518.11
744.441	1480.73
744.492	1509.61
744.544	1523
744.595	1500.73
744.646	1513.03
744.697	1496.5
744.749	1521.47
744.8	1439.79
744.851	1507.45
744.902	1484.31
744.954	1495.57
745.005	1513.98
745.056	1513.73
745.107	1533.73
745.159	1506.45
745.21	1505.24
745.261	1509.98
745.312	1510.56
745.363	1528.49
745.415	1472.98
745.466	1502.27
745.517	1479.52
745.568	1502.65
745.62	1479.52
745.671	1476.5
745.722	1497.99
745.773	1495.1
745.824	1516.84
745.876	1460.88
745.927	1478.43
745.978	1477.2
746.029	1477.32
746.081	1439.84
746.132	1468.55
746.183	1443.87
746.234	1458.08
746.285	1465.1
746.337	1476.49
746.388	1482.2
746.439	1456.32
746.49	1450.7
746.542	1446.63
746.593	1459.92
746.644	1434.32
746.695	1437.53
746.746	1466.62
746.798	1462.41
746.849	1466.68
746.9	1454.94
746.951	1460.37
747.003	1481.62
747.054	1462.57
747.105	1446.57
747.156	1426.49
747.207	1423.93
747.259	1443.16
747.31	1419.17
747.361	1461.4
747.412	1415.34
747.463	1449.72
747.515	1446.24
747.566	1456.96
747.617	1463.32
747.668	1452.55
747.719	1469.42
747.771	1439.12
747.822	1434.97
747.873	1466.93
747.924	1455.7
747.975	1425.63
748.027	1444.39
748.078	1438.54
748.129	1421.13
748.18	1415.26
748.231	1445.44
748.283	1428.17
748.334	1439.73
748.385	1438.33
748.436	1441.22
748.487	1464.22
748.539	1454.11
748.59	1446.93
748.641	1419.69
748.692	1419.98
748.743	1416.15
748.795	1437.01
748.846	1439.3
748.897	1399.82
748.948	1413.72
748.999	1443.41
749.05	1423.79
749.102	1428.5
749.153	1405.5
749.204	1415.55
749.255	1390.73
749.306	1375.97
749.358	1423.35
749.409	1405.78
749.46	1402.79
749.511	1411.52
749.562	1401.61
749.614	1404.82
749.665	1383.47
749.716	1414.13
749.767	1425.9
749.818	1402.87
749.869	1431.83
749.921	1439.08
749.972	1410.23
750.023	1397.35
750.074	1427.95
750.125	1413.77
750.177	1382.27
750.228	1388.45
750.279	1367.16
750.33	1389.37
750.381	1397.13
750.432	1409.21
750.484	1360.32
750.535	1392.53
750.586	1399.97
750.637	1379.75
750.688	1382.72
750.739	1388.64
750.791	1358.39
750.842	1389.23
750.893	1360.67
750.944	1374.32
750.995	1374.93
751.046	1344.98
751.098	1370.23
751.149	1391.05
751.2	1343.4
751.251	1371.37
751.302	1380.42
751.353	1406.97
751.404	1370.95
751.456	1371.4
751.507	1374.82
751.558	1423.48
751.609	1368.6
751.66	1392.52
751.711	1353.72
751.763	1360.27
751.814	1384.5
751.865	1359.13
751.916	1332.34
751.967	1365.6
752.018	1350.47
752.07	1363.09
752.121	1360.93
752.172	1348.41
752.223	1368.18
752.274	1346.83
752.325	1366.71
752.376	1332.17
752.428	1385.95
752.479	1343.91
752.53	1365.1
752.581	1350.76
752.632	1343.66
752.683	1332.08
752.734	1370.66
752.786	1353.21
752.837	1356.47
752.888	1356.82
752.939	1335.04
752.99	1360.53
753.041	1349.08
753.092	1328.78
753.144	1320.31
753.195	1335.53
753.246	1343.38
753.297	1351.21
753.348	1388.59
753.399	1350.39
753.45	1319.49
753.502	1334.39
753.553	1331.45
753.604	1340.32
753.655	1319.56
753.706	1285.5
753.757	1298.9
753.808	1336.13
753.859	1329.07
753.911	1299.94
753.962	1331.75
754.013	1322.15
754.064	1312.59
754.115	1332.7
754.166	1345.32
754.217	1292.41
754.269	1297.38
754.32	1330.56
754.371	1316.09
754.422	1337.33
754.473	1301.95
754.524	1285.91
754.575	1299.62
754.626	1323.74
754.678	1312.06
754.729	1298.91
754.78	1309.66
754.831	1292.15
754.882	1303.08
754.933	1308.12
754.984	1284.84
755.035	1331.81
755.086	1296.56
755.138	1313.56
755.189	1308.03
755.24	1285.92
755.291	1320.6
755.342	1332.77
755.393	1305.96
755.444	1318.1
755.495	1280.86
755.547	1317.12
755.598	1271.07
755.649	1282.08
755.7	1281.19
755.751	1287.87
755.802	1279.53
755.853	1296.68
755.904	1298.72
755.955	1260.03
756.006	1278.36
756.058	1292.08
756.109	1241.02
756.16	1278.64
756.211	1271.08
756.262	1305.61
756.313	1272.47
756.364	1258.95
756.415	1316.24
756.466	1287.94
756.518	1280.83
756.569	1288.87
756.62	1274.36
756.671	1247.75
756.722	1270.77
756.773	1293.7
756.824	1274.33
756.875	1283.58
756.926	1261.15
756.977	1258.36
757.029	1255.63
757.08	1218.21
757.131	1236.67
757.182	1294.42
757.233	1223.79
757.284	1274.04
757.335	1262.35
757.386	1264.27
757.437	1243.49
757.488	1296.82
757.539	1254.78
757.59	1259.63
757.642	1259.94
757.693	1245.11
757.744	1250.03
757.795	1255.02
757.846	1249.46
757.897	1277.29
757.948	1238.36
757.999	1253.99
758.05	1243.73
758.101	1237.93
758.152	1257.89
758.203	1233.77
758.255	1264.36
758.306	1255.51
758.357	1223.92
758.408	1227.35
758.459	1236.88
758.51	1253.97
758.561	1240.82
758.612	1237.22
758.663	1254.72
758.714	1219.11
758.765	1256.78
758.816	1251.56
758.867	1245.51
758.919	1246.18
758.97	1251.47
759.021	1243.07
759.072	1224.65
759.123	1237.41
759.174	1219.5
759.225	1196.96
759.276	1232.2
759.327	1228.1
759.378	1234.87
759.429	1207.39
759.48	1198.81
759.531	1224.73
759.582	1218.26
759.633	1209.24
759.685	1217.79
759.736	1209.51
759.787	1235.35
759.838	1240.92
759.889	1230.06
759.94	1202.54
759.991	1208.52
760.042	1211.36
760.093	1245.77
760.144	1212.48
760.195	1230.36
760.246	1246.79
760.297	1210.86
760.348	1210.29
760.399	1212.47
760.45	1199.68
760.501	1207.48
760.552	1189.69
760.603	1227.81
760.655	1209.87
760.706	1192.03
760.757	1196.1
760.808	1187.5
760.859	1199.98
760.91	1214.42
760.961	1174.12
761.012	1223.74
761.063	1183.67
761.114	1190.46
761.165	1215.39
761.216	1190.9
761.267	1186.5
761.318	1198.59
761.369	1200.52
761.42	1199.69
761.471	1216.54
761.522	1205.37
761.573	1190.9
761.624	1187.46
761.675	1190.86
761.726	1194.06
761.777	1179.22
761.828	1190.04
761.88	1172.63
761.931	1179.01
761.982	1175.26
762.033	1197.99
762.084	1180.38
762.135	1169.1
762.186	1184.36
762.237	1194.78
762.288	1195.77
762.339	1161.36
762.39	1177.95
762.441	1156.26
762.492	1193.5
762.543	1173.96
762.594	1180.5
762.645	1184.4
762.696	1159.67
762.747	1144.08
762.798	1161.11
762.849	1173.36
762.9	1162.82
762.951	1152.25
763.002	1161.2
763.053	1187.2
763.104	1160.36
763.155	1179.83
763.206	1148.7
763.257	1126.84
763.308	1146.37
763.359	1165.37
763.41	1162.32
763.461	1155.51
763.512	1163.27
763.563	1141.42
763.614	1147.17
763.665	1175.67
763.678	1183.84
763.729	1148.85
763.78	1131.36
763.832	1131.57
763.883	1129.03
763.934	1139.28
763.986	1139.97
764.037	1148.17
764.088	1135.44
764.139	1146.07
764.191	1122.01
764.242	1126.61
764.293	1160.02
764.345	1143.39
764.396	1134.8
764.447	1133.97
764.498	1128.07
764.55	1120.19
764.601	1101
764.652	1122.88
764.704	1138.66
764.755	1115.33
764.806	1123.9
764.857	1126.28
764.909	1092.13
764.96	1101.96
765.011	1071.83
765.062	1134.81
765.114	1120.15
765.165	1127.82
765.216	1089.95
765.268	1123.67
765.319	1154.56
765.37	1133.31
765.421	1118.31
765.473	1110.99
765.524	1108.15
765.575	1109.84
765.626	1109.87
765.678	1111.54
765.729	1127.64
765.78	1128.02
765.831	1114.22
765.883	1106.78
765.934	1100.87
765.985	1120.29
766.036	1095.01
766.088	1088.71
766.139	1123.77
766.19	1071.34
766.242	1073.16
766.293	1111.78
766.344	1102.76
766.395	1085.81
766.447	1099.11
766.498	1109.11
766.549	1104.6
766.6	1082.41
766.652	1100.11
766.703	1098.73
766.754	1086.32
766.805	1075.67
766.857	1089.14
766.908	1104.26
766.959	1093.71
767.01	1092.61
767.062	1092.95
767.113	1105.95
767.164	1091.62
767.215	1067.63
767.267	1086.97
767.318	1082.33
767.369	1079.4
767.42	1081.4
767.472	1107.59
767.523	1084.12
767.574	1086.43
767.625	1088.79
767.677	1055.74
767.728	1069.29
767.779	1061.8
767.83	1107.37
767.882	1080.29
767.933	1061.17
767.984	1066.22
768.035	1061.62
768.087	1053.88
768.138	1057.55
768.189	1051.65
768.24	1008.63
768.292	1065.86
768.343	1027.63
768.394	1066.98
768.445	1085.21
768.497	1093.65
768.548	1046.94
768.599	1042.4
768.65	1089.82
768.701	1048.17
768.753	1052.03
768.804	1042.98
768.855	1032.31
768.906	1067.15
768.958	1049.88
769.009	1042.28
769.06	1046
769.111	1043.16
769.163	1076.16
769.214	1066.79
769.265	1063.96
769.316	1049.7
769.367	1037.06
769.419	1061.95
769.47	1062.3
769.521	1008.65
769.572	992.552
769.624	1041.87
769.675	1022.52
769.726	1037.55
769.777	1037.89
769.828	1026.79
769.88	1033.71
769.931	1002.97
769.982	1050.95
770.033	1038.36
770.085	1042.27
770.136	1015.05
770.187	1014.12
770.238	1054.27
770.289	1048.3
770.341	1024.09
770.392	1027.73
770.443	1057.65
770.494	1015.07
770.546	1018.67
770.597	1033.88
770.648	1009.61
770.699	1026.63
770.75	995.828
770.802	1022.84
770.853	1043.26
770.904	1004.14
770.955	1004.68
771.006	1015.12
771.058	1033.79
771.109	991.1
771.16	1022.93
771.211	1014.96
771.263	1026.9
771.314	1005.69
771.365	1032.65
771.416	1001.54
771.467	1006.97
771.519	1004.08
771.57	1014.48
771.621	988.262
771.672	1020.25
771.723	1008.97
771.775	1001.03
771.826	1021.44
771.877	1013.58
771.928	1002.43
771.979	1026.37
772.031	1005.3
772.082	972.554
772.133	1008.35
772.184	1025.84
772.235	993.143
772.287	1012.39
772.338	979.679
772.389	978.782
772.44	987.878
772.491	961.547
772.543	1003.98
772.594	990.785
772.645	989.265
772.696	994.459
772.747	994.67
772.799	1011.84
772.85	981.998
772.901	974.149
772.952	1018.63
773.003	992.297
773.055	992.897
773.106	993.419
773.157	985.407
773.208	979.01
773.259	964.103
773.31	993.145
773.362	984.949
773.413	975.034
773.464	997.263
773.515	994.091
773.566	962.141
773.618	991.233
773.669	969.589
773.72	988.742
773.771	975.769
773.822	967.918
773.873	960.033
773.925	963.964
773.976	949.092
774.027	959.66
774.078	966.804
774.129	975.681
774.18	957.355
774.232	968.02
774.283	975.283
774.334	946.696
774.385	938.518
774.436	952.503
774.488	928.955
774.539	956.709
774.59	953.814
774.641	949.284
774.692	972.17
774.743	941.972
774.795	935.667
774.846	932.699
774.897	946.805
774.948	957.442
774.999	952.632
775.05	922.1
775.102	965.487
775.153	933.382
775.204	913.366
775.255	915.759
775.306	950.897
775.357	946.395
775.409	941.802
775.46	925.022
775.511	925.403
775.562	943.001
775.613	941.592
775.664	907.362
775.716	959.584
775.767	939.223
775.818	948.266
775.869	941.729
775.92	933.444
775.971	954.608
776.023	944.61
776.074	929.443
776.125	935.101
776.176	911.25
776.227	948.128
776.278	929.411
776.329	910.656
776.381	938.829
776.432	920.093
776.483	917.046
776.534	936.666
776.585	938.898
776.636	911.474
776.688	896.161
776.739	919.118
776.79	943.746
776.841	889.812
776.892	921.355
776.943	925.02
776.994	930.502
777.046	883.679
777.097	903.283
777.148	922.948
777.199	905.916
777.25	873.1
777.301	945.249
777.352	924.615
777.404	946.001
777.455	871.036
777.506	924.051
777.557	901.747
777.608	888.249
777.659	897.595
777.71	917.481
777.762	900.395
777.813	914.865
777.864	913.403
777.915	899.538
777.966	897.964
778.017	915.795
778.068	891.44
778.12	891.849
778.171	908.229
778.222	899.976
778.273	918.192
778.324	906.328
778.375	889.049
778.426	896.411
778.477	903.708
778.529	887.99
778.58	879.362
778.631	881.402
778.682	887.053
778.733	901.632
778.784	875.521
778.835	874.251
778.886	890.75
778.938	878.868
778.989	881.166
779.04	895.862
779.091	892.722
779.142	909.073
779.193	847.068
779.244	882.893
779.295	899.149
779.347	828.174
779.398	874.782
779.449	864.433
779.5	911.16
779.551	895.497
779.602	876.239
779.653	858.731
779.704	882.271
779.755	862.944
779.807	875.782
779.858	879.712
779.909	905.154
779.96	866.251
780.011	873.942
780.062	870.976
780.113	880.63
780.164	867.002
780.216	871.299
780.267	884.516
780.318	861.649
780.369	862.019
780.42	883.878
780.471	866.07
780.522	860.86
780.573	873.716
780.624	821.791
780.675	867.273
780.727	874.991
780.778	857.484
780.829	856.22
780.88	831.438
780.931	871.701
780.982	826.929
781.033	858.123
781.084	844.057
781.135	849.916
781.187	848.542
781.238	816.344
781.289	840.387
781.34	848.089
781.391	819.411
781.442	837.905
781.493	852.717
781.544	842.028
781.595	829.487
781.646	844.219
781.698	833.478
781.749	851.86
781.8	832.034
781.851	828.621
781.902	832.552
781.953	885.778
782.004	833.386
782.055	846.701
782.106	823.547
782.157	844.195
782.208	846.507
782.26	854.197
782.311	841.656
782.362	829.034
782.413	801.739
782.464	829.381
782.515	829.618
782.566	828.075
782.617	824.731
782.668	841.56
782.719	807.038
782.77	822.022
782.821	831.515
782.872	811.653
782.924	823.032
782.975	828.927
783.026	801.731
783.077	833.366
783.128	800.592
783.179	848.789
783.23	773.626
783.281	831.115
783.332	840.783
783.383	828.392
783.434	819.73
783.485	836.949
783.536	783.927
783.588	806.651
783.639	820.089
783.69	822.356
783.741	787.49
783.792	815.548
783.843	799.067
783.894	815.92
783.945	799.388
783.996	819.983
784.047	796.123
784.098	807.618
784.149	802.514
784.2	804.931
784.252	798.106
784.303	808.038
784.354	812.372
784.405	829.719
784.456	804.133
784.507	785.954
784.558	777.075
784.609	798.069
784.66	800.345
784.711	798.81
784.762	806.541
784.813	791.721
784.864	795.552
784.915	801.237
784.966	784.487
785.017	837.086
785.068	758.668
785.12	796.448
785.171	787.433
785.222	819.692
785.273	776.916
785.324	764.133
785.375	792.653
785.426	796.761
785.477	798.981
785.528	782.378
785.579	788.318
785.63	799.891
785.681	754.984
785.732	766.556
785.783	795.116
785.834	778.497
785.885	812.829
785.936	764.227
785.987	743.95
786.038	774.72
786.089	767.76
786.141	791.078
786.192	761.361
786.243	778.884
786.294	788.702
786.345	766.134
786.396	756.708
786.447	798.415
786.498	764.264
786.549	768.106
786.6	768.257
786.651	770.42
786.702	791.669
786.753	767.425
786.804	804.012
786.855	768.372
786.906	742.175
786.957	752.074
787.008	740.966
787.059	788.857
787.11	752.868
787.161	762.6
787.212	768.546
787.263	757.379
787.314	750.093
787.365	744.782
787.416	762.449
787.467	757.218
787.518	782.581
787.57	775.381
787.621	741.288
787.672	768.41
787.723	759.064
787.774	763.087
787.825	769.012
787.876	763.437
787.927	757.888
787.978	760.048
788.029	760.325
788.08	762.546
788.131	747.484
788.182	732.405
788.233	748.068
788.284	746.409
788.335	737.035
788.386	733.421
788.437	752.917
788.488	751.259
788.539	730.361
788.59	730.685
788.641	717.529
788.692	754.535
788.743	741.356
788.794	714.608
788.845	738.033
788.896	738.257
788.947	746.219
788.998	732.951
789.049	723.603
789.1	735.609
789.151	741.874
789.202	724.919
789.253	737.032
789.304	745.241
789.355	749.508
789.406	703.188
789.457	736.413
789.508	728.758
789.559	736.595
789.61	748.312
789.661	717.316
789.712	721.411
789.763	723.705
789.814	726.14
789.865	742.315
789.916	721.49
789.967	745.463
790.018	730.304
790.069	730.642
790.12	736.771
790.171	719.444
790.222	711.951
790.273	683.022
790.324	720.721
790.375	733.008
790.426	696.214
790.477	704.378
790.528	730.063
790.579	718.353
790.63	716.42
790.681	736.132
790.732	695.1
790.783	718.999
790.834	737.148
790.885	712.12
790.936	702.821
790.987	717.122
791.038	707.724
791.089	723.879
791.14	714.313
791.191	667.156
791.242	720.599
791.293	708.859
791.344	714.886
791.395	728.857
791.446	689.571
791.497	723.494
791.548	704.145
791.599	692.746
791.65	711.029
791.701	695.562
791.752	707.731
791.803	696.046
791.854	686.334
791.905	698.493
791.956	708.77
792.007	711.22
792.058	705.813
792.109	682.537
792.16	689.095
792.211	707.575
792.262	696.084
792.313	686.485
792.363	714.723
792.414	690.982
792.465	699.134
792.516	679.292
792.567	673.436
792.618	699.596
792.669	707.841
792.72	676.16
792.771	688.547
792.822	688.968
792.873	677.369
792.924	703.832
792.975	682.144
793.026	696.554
793.077	684.891
793.128	667.237
793.179	677.78
793.23	676.319
793.281	693.012
793.332	655.282
793.383	663.86
793.434	696.621
793.485	705.115
793.536	669.087
793.587	687.577
793.638	689.854
793.689	686.03
793.74	678.14
793.79	658.106
793.841	676.582
793.892	648.512
793.943	687.372
793.994	693.835
794.045	684.051
794.096	668.122
794.147	639.938
794.198	666.571
794.249	660.694
794.3	683.313
794.351	655.128
794.402	679.866
794.453	674.071
794.504	668.231
794.555	670.486
794.606	658.44
794.657	654.557
794.708	656.854
794.758	659.249
794.809	655.609
794.86	676.535
794.911	646.33
794.962	648.739
795.013	685.827
795.064	661.388
795.115	638.94
795.166	655.439
795.217	657.73
795.268	674.548
795.319	650.518
795.37	645.029
795.421	649.815
795.472	673.04
795.523	673.486
795.573	665.517
795.624	636.808
795.675	673.994
795.726	641.126
795.777	641.311
795.828	641.58
795.879	629.519
795.93	667.008
795.981	650.767
796.032	638.566
796.083	663.493
796.134	659.453
796.185	663.704
796.236	659.76
796.286	637.298
796.337	639.759
796.388	629.867
796.439	632.432
796.49	626.688
796.541	660.347
796.592	646.198
796.643	634.054
796.694	644.727
796.745	615.84
796.796	645.182
796.847	618.313
796.897	653.894
796.948	643.671
796.999	627.208
797.05	633.685
797.101	627.682
797.152	630.045
797.203	642.867
797.254	603.516
797.305	635.18
797.356	637.622
797.407	614.968
797.458	642.507
797.508	636.542
797.559	609.58
797.61	624.458
797.661	622.538
797.712	626.892
797.763	631.268
797.814	639.9
797.865	631.834
797.916	607.051
797.967	605.438
798.018	616.499
798.068	612.848
798.119	632.34
798.17	590.617
798.221	616.288
798.272	620.776
798.323	614.634
798.374	640.145
798.425	644.552
798.476	621.539
798.526	598.599
798.577	632.878
798.628	627.046
798.679	602.164
798.73	632.4
798.781	630.758
798.832	605.625
798.883	614.367
798.934	620.898
798.984	593.366
799.035	616.902
799.086	634.138
799.137	611.028
799.188	611.394
799.239	624.575
799.29	588.689
799.341	606.052
799.392	619.087
799.443	608.582
799.493	598.049
799.544	589.662
799.595	598.408
799.646	609.344
799.697	603.206
799.748	599.196
799.799	607.987
799.85	599.58
799.9	591.089
799.951	593.242
800.002	610.36
800.053	610.368
800.104	574.034
800.155	606.337
800.206	585.17
800.257	604.794
800.307	555.793
800.358	611.933
800.409	597.212
800.46	584.603
800.511	602.088
800.562	611.007
800.613	572.607
800.664	624.638
800.714	579.727
800.765	549.815
800.816	599.629
800.867	619.221
800.918	574.064
800.969	606.618
801.02	591.731
801.07	583.363
801.121	583.669
801.172	566.68
801.223	569.138
801.274	575.912
801.325	556.689
801.376	585.131
801.427	578.928
801.477	594.43
801.528	573.05
801.579	573.342
801.63	606.178
801.681	571.602
801.732	593.479
801.783	613.167
801.833	600.249
801.884	587.361
801.935	583.213
801.986	572.564
802.037	570.624
802.088	586.085
802.139	549.206
802.189	586.389
802.24	586.521
802.291	573.594
802.342	578.146
802.393	569.628
802.444	563.282
802.495	611.507
802.545	554.871
802.596	579.043
802.647	561.715
802.698	575.031
802.749	577.479
802.8	566.849
802.85	573.756
802.901	582.865
802.952	554.696
803.003	583.513
803.054	564.059
803.105	562.145
803.155	577.797
803.206	564.871
803.257	536.508
803.308	578.467
803.359	545.607
803.41	543.517
803.46	565.645
803.511	568.01
803.562	579.247
803.613	548.687
803.664	531.367
803.715	566.991
803.765	580.574
803.816	541.14
803.867	561.305
803.918	541.673
803.969	526.436
804.02	584.206
804.07	575.605
804.121	542.62
804.172	551.687
804.223	531.927
804.274	560.917
804.325	565.527
804.375	547.964
804.426	561.474
804.477	552.804
804.528	535.241
804.579	550.97
804.63	542.231
804.68	549.008
804.731	566.877
804.782	558.065
804.833	540.376
804.884	560.533
804.934	538.473
804.985	545.367
805.036	563.409
805.087	541.341
805.138	552.641
805.188	575.041
805.239	561.746
805.29	521.687
805.341	561.909
805.392	541.968
805.443	562.214
805.493	560.124
805.544	542.486
805.595	555.778
805.646	557.743
805.697	537.56
805.747	548.481
805.798	542.39
805.849	534.619
805.9	526.904
805.951	541.796
806.001	529.414
806.052	558.201
806.103	537.842
806.154	522.17
806.205	542.531
806.255	530.291
806.306	552.463
806.357	527.732
806.408	540.345
806.459	530.221
806.509	542.775
806.56	540.585
806.611	507.678
806.662	525.996
806.713	529.143
806.763	514.531
806.814	530.481
806.865	527.969
806.916	508.926
806.967	527.112
807.017	533.966
807.068	520.178
807.119	519.779
807.17	514.214
807.22	514.793
807.271	532.765
807.322	522.681
807.373	510.327
807.424	527.663
807.474	523.773
807.525	500.245
807.576	513.779
807.627	530.932
807.678	517.283
807.728	535.326
807.779	506.135
807.83	516.348
807.881	516.874
807.931	530.244
807.982	531.66
808.033	496.773
808.084	486.598
808.135	519.822
808.185	508.614
808.236	509.473
808.287	522.676
808.338	505.457
808.388	525.19
808.439	508.921
808.49	506.767
808.541	491.824
808.591	499.34
808.642	505.42
808.693	506.604
808.744	494.382
808.795	500.063
808.845	507.529
808.896	521.567
808.947	496.303
808.998	502.532
809.048	493.448
809.099	514.833
809.15	500.29
809.201	481.222
809.251	489.844
809.302	501.561
809.353	515.095
809.404	483.669
809.454	507.545
809.505	500.393
809.556	510.421
809.607	484.688
809.658	506.914
809.708	499.53
809.759	495.411
809.81	503.07
809.861	482.233
809.911	494.817
809.962	478.401
810.013	484.913
810.064	495.809
810.114	485.075
810.165	496.198
810.216	487.947
810.267	494.28
810.317	495.187
810.368	455.539
810.419	489.313
810.469	488.883
810.52	478.755
810.571	485.797
810.622	493.136
810.627	493.752
810.678	480.14
810.729	494.357
810.78	489.984
810.831	494.862
810.882	504.353
810.933	490.568
810.984	500.006
811.035	467.559
811.086	493.249
811.137	486.359
811.188	486.451
811.239	481.903
811.29	519.302
811.341	498.529
811.392	491.757
811.443	464.01
811.494	496.885
811.545	490.096
811.596	473.943
811.648	471.783
811.699	492.997
811.75	467.503
811.801	477.091
811.852	437.564
811.903	484.61
811.954	445.008
812.005	487.331
812.056	482.746
812.107	485.134
812.158	457.014
812.209	459.346
812.26	489.818
812.311	471.124
812.362	492.354
812.413	457.396
812.464	462.373
812.515	460.348
812.566	484.162
812.617	460.894
812.668	463.378
812.719	439.875
812.77	465.688
812.821	482.056
812.872	451.428
812.923	463.208
812.974	460.991
813.025	461.234
813.076	421.517
813.127	471.313
813.178	485.775
813.229	464.793
813.28	450.796
813.331	457.978
813.382	467.497
813.433	472.304
813.484	436.991
813.535	451.316
813.586	463.316
813.637	458.786
813.688	461.352
813.739	433.15
813.79	449.927
813.841	469.119
813.892	443.33
813.943	464.993
813.994	455.84
814.045	456.158
814.096	444.526
814.147	475.586
814.198	451.832
814.249	468.387
814.3	425.434
814.351	427.639
814.402	460.766
814.453	465.495
814.504	448.994
814.555	468.279
814.606	461.539
814.657	461.989
814.708	483.887
814.759	429.42
814.81	460.723
814.861	427.478
814.912	439.516
814.963	458.669
815.014	420.466
815.065	458.719
815.116	430.105
815.167	454.101
815.217	447.069
815.268	447.233
815.319	471.33
815.37	469.102
815.421	421.356
815.472	442.996
815.523	438.269
815.574	426.33
815.625	447.9
815.676	447.886
815.727	447.836
815.778	457.319
815.829	454.79
815.88	454.64
815.931	430.593
815.982	452.068
816.033	442.555
816.084	447.521
816.135	421.477
816.186	426.629
816.237	460.604
816.288	446.588
816.339	430.071
816.39	454.293
816.441	435.143
816.492	447.154
816.543	413.445
816.594	427.819
816.645	444.649
816.696	449.555
816.747	420.892
816.798	425.966
816.849	447.947
816.9	421.757
816.951	443.729
817.001	434.304
817.052	419.983
817.103	434.576
817.154	446.719
817.205	405.71
817.256	432.308
817.307	422.692
817.358	432.44
817.409	435.015
817.46	428.012
817.511	430.768
817.562	431.167
817.613	421.875
817.664	436.779
817.715	434.598
817.766	410.429
817.817	417.718
817.868	441.939
817.919	429.728
817.97	424.847
818.021	444.316
818.071	427.437
818.122	425.17
818.173	425.348
818.224	408.496
818.275	445.122
818.326	420.926
818.377	421.047
818.428	433.347
818.479	431.059
818.53	440.971
818.581	421.66
818.632	414.541
818.683	419.625
818.734	414.96
818.785	429.836
818.836	427.622
818.887	415.617
818.938	418.259
818.988	408.645
819.039	425.927
819.09	401.574
819.141	399.237
819.192	428.742
819.243	419.05
819.294	426.516
819.345	419.284
819.396	407.161
819.447	404.874
819.498	427.175
819.549	444.635
819.6	413
819.651	410.875
819.702	418.613
819.753	404.179
819.803	411.898
819.854	417.124
819.905	400.082
819.956	442.269
820.007	395.453
820.058	422.72
820.109	415.332
820.16	420.265
820.211	400.462
820.262	400.447
820.313	395.53
820.364	415.404
820.415	418.053
820.465	415.821
820.516	391.334
820.567	408.943
820.618	409.173
820.669	394.454
820.72	406.962
820.771	407.029
820.822	397.168
820.873	399.756
820.924	409.857
820.975	405.113
821.026	400.395
821.076	405.621
821.127	408.324
821.178	423.421
821.229	408.568
821.28	426.055
821.331	398.677
821.382	391.24
821.433	413.737
821.484	411.346
821.535	386.535
821.586	404.129
821.637	391.788
821.687	379.432
821.738	404.519
821.789	394.653
821.84	419.772
821.891	399.934
821.942	400.103
821.993	370.261
822.044	400.461
822.095	380.594
822.146	390.742
822.196	395.853
822.247	408.454
822.298	373.426
822.349	416.104
822.4	378.61
822.451	411.39
822.502	386.556
822.553	381.851
822.604	412.38
822.655	405.211
822.706	377.832
822.756	390.67
822.807	388.313
822.858	368.236
822.909	380.912
822.96	408.723
823.011	391.128
823.062	393.721
823.113	401.346
823.164	396.297
823.214	391.196
823.265	378.494
823.316	340.57
823.367	370.79
823.418	385.92
823.469	380.929
823.52	355.794
823.571	386.193
823.622	373.679
823.672	378.806
823.723	386.419
823.774	383.895
823.825	399.027
823.876	388.899
823.927	371.208
823.978	378.789
824.029	356.091
824.08	383.927
824.13	371.373
824.181	391.679
824.232	391.783
824.283	379.252
824.334	371.775
824.385	382.006
824.436	404.906
824.487	346.821
824.537	369.74
824.588	369.872
824.639	397.862
824.69	403.025
824.741	370.128
824.792	362.552
824.843	375.252
824.893	372.751
824.944	382.957
824.995	383.049
825.046	380.624
825.097	375.662
825.148	365.607
825.199	365.69
825.25	365.765
825.3	363.307
825.351	360.872
825.402	371.18
825.453	351.005
825.504	371.543
825.555	353.904
825.606	361.693
825.657	371.991
825.707	377.143
825.758	369.506
825.809	351.644
825.86	374.539
825.911	382.152
825.962	349.025
826.013	331.21
826.063	372.016
826.114	372.061
826.165	369.542
826.216	356.8
826.267	369.511
826.318	366.905
826.369	336.267
826.419	343.851
826.47	382.008
826.521	376.886
826.572	369.234
826.623	338.675
826.674	361.599
826.725	364.165
826.775	364.203
826.826	364.268
826.877	356.717
826.928	364.475
826.979	346.752
827.03	354.52
827.08	346.975
827.131	362.382
827.182	354.818
827.233	342.149
827.284	375.458
827.335	352.591
827.386	368.042
827.436	360.468
827.487	365.625
827.538	378.384
827.589	368.066
827.64	339.825
827.691	367.791
827.741	367.698
827.792	357.481
827.843	372.919
827.894	352.712
827.945	360.707
827.996	361.087
828.046	358.904
828.097	366.93
828.148	336.364
828.199	351.9
828.25	354.495
828.301	341.594
828.351	359.467
828.402	320.862
828.453	354.183
828.504	349.071
828.555	356.864
828.606	344.174
828.656	346.923
828.707	354.824
828.758	349.853
828.809	349.991
828.86	362.96
828.911	375.899
828.961	365.639
829.012	350.209
829.063	327.045
829.114	368.257
829.165	337.366
829.216	347.684
829.266	334.83
829.317	321.985
829.368	347.793
829.419	347.855
829.47	350.504
829.52	348.003
829.571	363.547
829.622	363.618
829.673	345.629
829.724	350.854
829.774	366.418
829.825	358.791
829.876	343.447
829.927	361.706
829.978	341.223
830.029	333.641
830.079	354.487
830.13	336.482
830.181	349.499
830.232	334.016
830.283	339.243
830.333	352.249
830.384	341.952
830.435	339.421
830.486	347.234
830.537	334.286
830.587	339.443
830.638	323.85
830.689	349.703
830.74	323.765
830.791	323.764
830.841	310.856
830.892	329.08
830.943	334.393
830.994	331.952
831.045	334.7
831.095	329.644
831.146	316.76
831.197	329.8
831.248	355.794
831.299	319.442
831.349	327.244
831.4	340.265
831.451	319.55
831.502	327.438
831.553	340.54
831.603	327.637
831.654	351.11
831.705	317.329
831.756	332.937
831.807	345.931
831.857	332.922
831.908	335.542
831.959	332.986
832.01	335.654
832.061	333.123
832.111	312.361
832.162	346.248
832.213	328.056
832.264	328.087
832.315	338.552
832.365	330.817
832.416	338.747
832.467	349.316
832.518	318.176
832.568	326.135
832.619	336.682
832.67	326.314
832.721	328.962
832.772	326.365
832.822	331.591
832.873	308.101
832.924	318.571
832.975	310.785
833.025	334.37
833.076	321.407
833.127	308.45
833.178	342.556
833.229	321.745
833.279	308.755
833.33	334.997
833.381	316.731
833.432	324.63
833.482	311.581
833.533	329.956
833.584	322.152
833.635	340.546
833.685	311.784
833.736	301.351
833.787	327.604
833.838	322.412
833.889	309.363
833.939	322.544
833.99	306.89
834.041	314.842
834.092	309.662
834.142	312.327
834.193	338.58
834.244	320.186
834.295	317.531
834.345	283.406
834.396	325.422
834.447	328.13
834.498	320.383
834.548	302.143
834.599	289.139
834.65	307.652
834.701	326.135
834.751	305.13
834.802	323.559
834.853	323.571
834.904	310.436
834.954	310.464
835.005	313.121
835.056	292.081
835.107	307.855
835.157	326.234
835.208	315.661
835.259	310.361
835.31	310.353
835.36	307.754
835.411	313.084
835.462	315.802
835.513	281.662
835.563	321.198
835.614	321.21
835.665	297.495
835.716	302.733
835.766	292.196
835.817	315.926
835.868	300.22
835.919	300.359
835.969	276.799
836.02	300.691
836.071	306.111
836.122	308.855
836.172	298.353
836.223	306.294
836.274	306.284
836.325	319.451
836.375	290.359
836.426	300.845
836.477	295.479
836.528	295.379
836.578	308.462
836.629	292.559
836.68	281.962
836.73	297.749
836.781	300.394
836.832	297.795
836.883	297.847
836.933	300.543
836.984	279.515
837.035	295.408
837.086	316.587
837.136	284.992
837.187	298.228
837.238	300.867
837.288	329.841
837.339	319.185
837.39	295.333
837.441	284.7
837.491	300.486
837.542	303.176
837.593	287.485
837.643	295.577
837.694	308.963
837.745	327.601
837.796	303.888
837.846	298.583
837.897	282.648
837.948	303.661
837.999	303.546
838.049	287.629
838.1	316.612
838.151	300.774
838.201	300.779
838.252	306.053
838.303	316.575
838.354	295.409
838.404	279.504
838.455	297.868
838.506	292.515
838.556	297.727
838.607	273.99
838.658	302.97
838.708	295.085
838.759	287.207
838.81	287.233
838.861	281.985
838.911	303.091
838.962	303.121
839.013	279.433
839.063	271.564
839.114	300.618
839.165	305.955
839.216	274.37
839.266	298.195
839.317	316.758
839.368	290.436
839.418	282.567
839.469	290.51
839.52	308.98
839.57	303.655
839.621	285.123
839.672	287.729
839.722	287.727
839.773	290.404
839.824	298.397
839.875	266.794
839.925	261.6
839.976	272.258
840.027	280.269
840.077	264.472
840.128	293.629
840.179	288.392
840.229	280.494
840.28	288.454
840.331	288.456
840.381	293.733
840.432	277.832
840.483	280.458
840.534	304.265
840.584	277.823
840.635	280.509
840.686	275.275
840.736	256.813
840.787	280.719
840.838	259.604
840.888	264.973
840.939	272.992
840.99	275.713
841.04	291.694
841.091	283.813
841.142	291.847
841.192	273.342
841.243	262.785
841.294	284.074
841.344	294.74
841.395	286.813
841.446	292.162
841.496	286.892
841.547	271.003
841.598	279.037
841.648	281.772
841.699	271.223
841.75	260.67
841.8	279.369
841.851	279.428
841.902	250.177
841.952	260.808
842.003	274.058
842.054	265.988
842.104	260.565
842.155	281.724
842.206	265.69
842.256	284.228
842.307	289.519
842.358	270.938
842.408	278.943
842.459	294.932
842.51	255.117
842.56	284.385
842.611	255.173
842.662	257.847
842.712	284.442
842.763	284.45
842.814	281.794
842.864	276.471
842.915	271.141
842.966	284.416
843.016	247.196
843.067	271.132
843.118	287.126
843.168	271.244
843.219	289.953
843.269	287.387
843.32	282.142
843.371	242.261
843.421	255.6
843.472	266.275
843.523	260.986
843.573	269.043
843.624	285.13
843.675	247.934
843.725	258.713
843.776	272.148
843.827	277.545
843.877	272.223
843.928	253.522
843.979	269.492
844.029	274.78
844.08	277.405
844.13	245.37
844.181	256.025
844.232	274.693
844.282	288.045
844.333	274.746
844.384	248.124
844.434	274.879
844.485	245.598
844.536	275.043
844.586	259.084
844.637	261.8
844.687	251.14
844.738	269.859
844.789	251.168
844.839	267.216
844.89	256.548
844.941	264.589
844.991	256.596
845.042	253.947
845.092	261.99
845.143	262.017
845.194	267.398
845.244	259.413
845.295	267.475
845.346	259.484
845.396	259.508
845.447	259.526
845.497	264.897
845.548	256.902
845.599	246.248
845.649	257.031
845.7	257.123
845.75	265.253
845.801	265.331
845.852	249.297
845.902	257.359
845.953	265.402
846.004	268.082
846.054	257.371
846.105	262.765
846.155	260.132
846.206	273.596
846.257	268.276
846.307	257.57
846.358	249.531
846.409	262.955
846.459	260.292
846.51	249.604
846.56	252.361
846.611	249.766
846.661	257.914
846.712	266.041
846.763	258.002
846.813	260.667
846.864	241.8
846.915	247.102
846.965	233.612
847.016	263.109
847.066	249.682
847.117	241.656
847.168	279.3
847.218	255.179
847.269	252.529
847.319	263.292
847.37	244.484
847.421	236.417
847.471	247.162
847.522	255.239
847.572	252.591
847.623	239.21
847.674	250.027
847.724	250.093
847.775	242.081
847.825	242.124
847.876	242.156
847.926	252.944
847.977	228.746
848.028	247.61
848.078	250.337
848.129	245.001
848.179	239.676
848.23	223.581
848.281	237.119
848.331	245.264
848.382	237.222
848.432	250.729
848.483	256.139
848.534	239.983
848.584	231.931
848.635	231.996
848.685	240.183
848.736	237.592
848.786	248.497
848.837	253.984
848.888	254.038
848.938	240.553
848.989	227.061
849.039	262.244
849.09	248.794
849.14	262.414
849.191	224.632
849.242	238.249
849.292	232.884
849.343	243.727
849.393	246.413
849.444	219.313
849.494	268.049
849.545	243.724
849.596	249.231
849.646	222.249
849.697	257.618
849.747	236.03
849.798	249.67
849.848	257.845
849.899	246.986
849.95	263.245
850	241.507
850.051	233.348
850.101	233.345
850.152	246.921
850.202	263.221
850.253	260.528
850.303	225.266
850.354	236.141
850.405	230.735
850.455	222.62
850.506	214.513
850.556	233.57
850.607	233.625
850.657	244.549
850.708	233.733
850.758	225.625
850.809	222.946
850.86	236.574
850.91	223
850.961	239.327
851.011	239.32
851.062	217.545
851.112	244.71
851.163	236.536
851.213	225.669
851.264	220.276
851.314	228.524
851.365	239.539
851.416	242.417
851.466	226.223
851.517	245.443
851.567	229.183
851.618	226.523
851.668	232.023
851.719	245.694
851.769	229.325
851.82	229.333
851.87	229.346
851.921	196.601
851.971	243.058
852.022	229.454
852.073	245.912
852.123	232.32
852.174	215.981
852.224	226.965
852.275	232.459
852.325	221.667
852.376	237.629
852.426	210.698
852.477	219.046
852.527	228.527
852.578	224.131
852.628	209.607
852.679	215.294
852.729	219.269
852.78	235.921
852.831	207.905
852.881	219.42
852.932	230.441
852.982	222.362
853.033	212.219
853.083	238.036
853.134	228.808
853.184	229.023
853.235	228.711
853.285	238.962
853.336	214.694
853.386	223.221
853.437	227.403
853.487	227.626
853.538	227.146
853.588	230.727
853.639	220.433
853.689	229.536
853.74	220.963
853.79	226.18
853.841	230.995
853.891	221.119
853.942	225.98
853.992	219.587
854.043	228.117
854.093	215.627
854.144	215.605
854.194	220.459
854.245	226.956
854.295	213.125
854.346	210.457
854.396	216.919
854.447	220.3
854.497	228.2
854.548	218.408
854.598	222.638
854.649	213.901
854.699	224.479
854.75	225.138
854.8	231.995
854.851	213.694
854.901	212.816
854.952	220.067
855.002	226.239
855.053	225.683
855.103	227.803
855.154	222.134
855.204	220.143
855.255	217.707
855.305	220.404
855.356	214.374
855.406	211.424
855.457	220.888
855.507	214.733
855.558	197.571
855.608	206.984
855.659	214.581
855.709	217.149
855.76	209.081
855.81	207.882
855.861	203.91
855.911	215.149
855.962	207.436
856.012	200.48
856.063	199.051
856.113	209.818
856.164	214.545
856.214	210.59
856.265	210.704
856.315	208.139
856.366	204.752
856.416	206.287
856.467	195.021
856.517	209.08
856.568	215.291
856.618	210.09
856.668	206.074
856.719	209.263
856.769	214.785
856.82	210.601
856.87	207.842
856.921	220.291
856.971	219.727
857.022	209.297
857.072	202.935
857.123	206.609
857.173	209.627
857.224	208.258
857.274	205.471
857.325	207.264
857.352	216.192
857.403	199.577
857.453	207.905
857.504	227.321
857.555	207.924
857.606	221.789
857.656	207.925
857.707	210.687
857.758	213.445
857.809	185.712
857.859	218.968
857.91	210.661
857.961	207.916
858.012	219.054
858.063	210.797
858.113	210.861
858.164	222.017
858.215	194.296
858.266	224.835
858.316	185.956
858.367	202.568
858.418	202.518
858.469	213.562
858.519	202.429
858.57	219.04
858.621	188.528
858.672	194.063
858.722	202.368
858.773	207.893
858.824	205.096
858.875	207.846
858.925	205.067
858.976	207.848
859.027	207.878
859.078	213.463
859.128	205.181
859.179	221.836
859.23	202.417
859.281	188.525
859.331	207.893
859.382	199.547
859.433	207.851
859.483	207.866
859.534	188.494
859.585	210.706
859.636	219.049
859.686	199.645
859.737	207.951
859.788	213.477
859.839	205.151
859.889	210.71
859.94	180.246
859.991	191.39
860.042	199.767
860.092	191.482
860.143	199.823
860.194	210.909
860.245	202.547
860.295	202.502
860.346	191.372
860.397	205.228
860.447	194.155
860.498	199.755
860.549	188.726
860.6	199.908
860.65	202.753
860.701	188.906
860.752	197.251
860.802	180.565
860.853	202.75
860.904	194.377
860.955	186.016
861.005	208.213
861.056	213.775
861.107	202.698
861.158	211.071
861.208	200.009
861.259	197.278
861.31	186.207
861.36	189.029
861.411	211.314
861.462	200.23
861.513	191.916
861.563	186.371
861.614	186.376
861.665	194.714
861.715	194.696
861.766	194.668
861.817	189.069
861.868	166.784
861.918	208.414
861.969	191.672
862.02	186.046
862.07	202.634
862.121	197.027
862.172	199.768
862.223	194.21
862.273	185.9
862.324	197.029
862.375	185.961
862.425	194.316
862.476	191.553
862.527	185.991
862.577	188.735
862.628	210.883
862.679	185.851
862.73	194.117
862.78	191.31
862.831	182.995
862.882	196.906
862.932	196.997
862.983	177.685
863.034	183.363
863.084	191.816
863.135	183.557
863.186	191.936
863.237	189.138
863.287	186.297
863.338	183.43
863.389	172.225
863.439	194.36
863.49	194.299
863.541	216.474
863.591	185.955
863.642	169.339
863.693	188.836
863.744	197.249
863.794	202.89
863.845	191.84
863.896	180.76
863.946	200.246
863.997	180.774
864.048	183.544
864.098	211.346
864.149	189.113
864.2	178.023
864.25	180.858
864.301	192.048
864.352	189.312
864.402	180.982
864.453	197.681
864.504	169.814
864.555	186.481
864.605	186.447
864.656	189.204
864.707	186.404
864.757	191.951
864.808	197.489
864.859	189.106
864.909	191.837
864.96	191.789
865.011	180.646
865.061	177.873
865.112	191.806
865.163	183.522
865.213	183.581
865.264	178.064
865.315	191.999
865.365	203.127
865.416	172.501
865.467	172.48
865.517	186.379
865.568	172.481
865.619	178.08
865.669	175.35
865.72	189.334
865.771	175.473
865.821	181.096
865.872	161.63
865.923	181.169
865.973	172.834
866.024	181.226
866.075	167.315
866.125	192.446
866.176	170.158
866.227	175.752
866.277	206.441
866.328	172.955
866.379	184.098
866.429	178.507
866.48	161.767
866.531	175.717
866.581	186.885
866.632	200.844
866.683	186.902
866.733	172.951
866.784	172.939
866.835	189.662
866.885	181.292
866.936	175.73
866.987	186.93
867.037	178.625
867.088	173.121
867.138	178.788
867.189	195.624
867.24	170.514
867.29	173.321
867.341	190.078
867.392	173.277
867.442	184.423
867.493	167.64
867.544	187.201
867.594	184.434
867.645	195.661
867.696	176.148
867.746	192.982
867.797	190.234
867.848	184.674
867.898	176.303
867.949	181.916
867.999	176.331
868.05	179.142
868.101	167.959
868.151	187.573
868.202	187.592
868.253	173.61
868.303	159.627
868.354	193.255
868.405	168.074
868.455	168.108
868.506	148.537
868.556	182.23
868.607	185.104
868.658	173.953
868.708	162.787
868.759	174.063
868.81	179.716
868.86	190.978
868.911	168.532
868.961	171.363
869.012	185.438
869.063	182.659
869.113	157.396
869.164	185.534
869.215	168.693
869.265	165.905
869.316	171.551
869.367	180.008
869.417	191.272
869.468	191.273
869.518	171.572
869.569	177.174
869.62	199.643
869.67	177.128
869.721	185.558
869.771	182.76
869.822	179.976
869.873	182.819
869.923	177.214
869.974	177.218
870.025	194.082
870.075	168.748
870.126	154.674
870.176	179.987
870.227	177.201
870.278	174.435
870.328	171.682
870.379	157.671
870.43	160.55
870.48	163.429
870.531	152.214
870.581	186.108
870.632	169.25
870.683	172.132
870.733	166.541
870.784	186.349
870.834	180.739
870.885	172.291
870.936	161.007
870.986	166.663
871.037	163.838
871.087	172.305
871.138	158.168
871.189	183.57
871.239	169.438
871.29	166.614
871.34	172.282
871.391	177.973
871.442	163.904
871.492	166.797
871.543	183.835
871.593	161.27
871.644	178.302
871.695	172.685
871.745	169.882
871.796	169.897
871.846	181.227
871.897	172.728
871.948	178.385
871.998	175.556
872.049	184.069
872.099	178.439
872.15	178.483
872.201	170.022
872.251	184.217
872.302	181.385
872.352	164.363
872.403	167.171
872.453	150.152
872.504	158.645
872.555	169.987
872.605	189.842
872.656	172.859
872.706	167.197
872.757	144.517
872.808	169.998
872.858	164.309
872.909	178.462
872.959	167.14
873.01	172.835
873.06	164.379
873.111	170.1
873.162	175.822
873.212	170.19
873.263	164.542
873.313	175.898
873.364	150.359
873.415	173.038
873.465	175.858
873.516	161.668
873.566	158.841
873.617	161.707
873.667	170.266
873.718	167.482
873.769	153.329
873.819	150.505
873.87	181.719
873.92	139.078
873.971	173.043
874.021	150.255
874.072	164.336
874.123	184.096
874.173	167.075
874.224	161.424
874.274	152.973
874.325	178.545
874.375	144.607
874.426	144.678
874.477	164.611
874.527	164.675
874.578	159.046
874.628	167.602
874.679	193.185
874.729	147.724
874.78	130.66
874.83	150.512
874.881	167.517
874.932	161.814
874.982	164.645
875.033	173.169
875.083	170.349
875.134	159.011
875.184	170.376
875.235	161.843
875.285	158.979
875.336	156.115
875.387	161.781
875.437	161.793
875.488	150.471
875.538	161.878
875.589	144.886
875.639	161.973
875.69	167.675
875.74	173.347
875.791	167.626
875.841	161.895
875.892	170.368
875.943	150.468
875.993	153.309
876.044	136.301
876.094	156.229
876.145	156.288
876.195	170.553
876.246	156.376
876.296	159.234
876.347	167.76
876.397	147.841
876.448	144.982
876.499	150.659
876.549	173.404
876.6	156.364
876.65	159.235
876.701	159.268
876.751	159.301
876.802	142.26
876.852	147.975
876.903	167.918
876.953	165.093
877.004	156.574
877.054	148.055
877.105	153.774
877.155	156.65
877.206	148.134
877.257	162.41
877.307	173.838
877.358	151.06
877.408	145.37
877.459	156.771
877.509	151.061
877.56	156.746
877.61	151.033
877.661	153.875
877.711	156.725
877.762	145.333
877.812	148.195
877.863	162.459
877.913	159.625
877.964	168.196
878.014	145.411
878.065	151.143
878.115	156.885
878.166	156.933
878.216	156.986
878.267	134.201
878.318	174.241
878.368	145.732
878.419	160.08
878.469	165.857
878.52	157.333
878.57	154.52
878.621	163.145
878.671	157.449
878.722	157.463
878.772	154.599
878.823	157.445
878.873	151.693
878.924	165.965
878.974	148.762
879.025	157.316
879.075	157.306
879.126	143.018
879.176	163.083
879.227	151.706
879.277	154.657
879.328	157.623
879.378	172.063
879.429	157.814
879.479	157.884
879.53	149.316
879.58	146.467
879.631	157.963
879.681	152.217
879.732	157.955
879.782	149.335
879.833	149.334
879.883	152.209
879.934	143.599
879.984	157.969
880.035	143.62
880.085	143.637
880.136	146.534
880.186	149.441
880.237	137.987
880.287	146.663
880.338	169.735
880.388	158.292
880.439	155.474
880.489	158.41
880.54	152.702
880.59	152.754
880.641	158.575
880.691	138.443
880.742	152.917
880.792	158.733
880.842	158.761
880.893	138.562
880.943	144.328
880.994	138.542
881.044	155.851
881.095	138.542
881.145	147.231
881.196	170.385
881.246	138.678
881.297	161.864
881.347	150.363
881.398	156.197
881.448	162.023
881.499	144.694
881.549	150.514
881.6	165.027
881.65	147.695
881.701	153.529
881.751	153.565
881.802	162.284
881.852	162.298
881.902	147.811
881.953	139.119
882.003	156.516
882.054	147.838
882.104	142.064
882.155	150.791
882.205	130.513
882.256	147.925
882.306	156.62
882.357	133.398
882.407	136.274
882.458	153.651
882.508	147.851
882.559	150.774
882.609	162.425
882.659	171.201
882.71	133.545
882.76	145.228
882.811	154.006
882.861	148.245
882.912	157.008
882.962	151.225
883.013	139.616
883.063	145.456
883.114	136.749
883.164	133.861
883.214	154.261
883.265	139.74
883.315	133.952
883.366	136.902
883.416	134.022
883.467	142.789
883.517	134.06
883.568	145.721
883.618	148.635
883.669	136.981
883.719	145.742
883.769	125.366
883.82	142.903
883.87	154.621
883.921	131.323
883.971	143.03
884.022	140.133
884.072	148.908
884.123	143.088
884.173	137.275
884.223	149
884.274	166.583
884.324	137.401
884.375	152.054
884.425	137.451
884.476	134.529
884.526	137.447
884.577	143.291
884.627	152.068
884.677	146.238
884.728	137.494
884.778	140.46
884.829	160.992
884.879	137.612
884.93	137.64
884.98	125.939
885.03	146.44
885.081	152.28
885.131	146.392
885.182	137.568
885.232	155.08
885.283	137.485
885.333	134.537
885.383	143.31
885.434	143.334
885.484	143.377
885.535	125.863
885.585	134.679
885.635	155.182
885.686	143.453
885.736	140.498
885.787	140.476
885.837	134.619
885.888	140.494
885.938	128.827
885.988	134.738
886.039	140.651
886.089	128.965
886.14	134.841
886.19	137.764
886.241	128.95
886.291	152.373
886.341	155.296
886.392	140.658
886.442	146.553
886.493	146.599
886.543	143.711
886.593	134.942
886.644	140.82
886.694	149.615
886.745	120.266
886.795	126.121
886.845	140.79
886.896	129.081
886.946	129.125
886.997	140.931
887.047	155.694
887.097	120.506
887.148	149.969
887.198	141.205
887.249	147.137
887.299	138.344
887.349	147.204
887.4	141.334
887.45	123.675
887.501	135.455
887.551	147.234
887.602	135.459
887.652	150.198
887.702	129.608
887.753	117.859
887.803	120.845
887.853	138.575
887.904	150.409
887.954	126.839
888.005	144.554
888.055	138.666
888.105	126.878
888.156	118.048
888.206	138.747
888.257	132.893
888.307	144.768
888.357	138.915
888.408	127.133
888.458	144.899
888.509	121.246
888.559	130.107
888.609	112.349
888.66	130.072
888.71	135.978
888.76	124.163
888.811	130.099
888.861	133.089
888.912	144.96
888.962	142.036
889.012	142.061
889.063	121.356
889.113	145.044
889.163	136.168
889.214	133.216
889.264	139.151
889.315	136.212
889.365	133.277
889.415	130.344
889.466	130.372
889.516	139.285
889.566	136.34
889.617	133.391
889.667	142.298
889.718	136.387
889.768	148.275
889.818	130.517
889.869	130.561
889.919	130.611
889.969	124.723
890.02	124.768
890.07	139.664
890.12	127.806
890.171	115.933
890.221	112.969
890.272	133.786
890.322	151.637
890.372	133.82
890.423	113.036
890.473	142.846
890.523	133.996
890.574	137.068
890.624	122.257
890.674	131.292
890.725	140.324
890.775	137.396
890.826	116.517
890.876	125.491
890.926	131.466
890.977	113.532
891.027	122.49
891.077	122.494
891.128	149.403
891.178	128.518
891.228	119.59
891.279	128.606
891.329	125.659
891.379	128.685
891.43	131.7
891.48	131.709
891.53	116.742
891.581	122.728
891.631	143.691
891.681	131.742
891.732	119.808
891.782	125.864
891.832	125.944
891.883	132.033
891.933	135.124
891.983	120.177
892.034	123.231
892.084	132.279
892.134	117.257
892.185	120.265
892.235	129.29
892.286	132.316
892.336	129.35
892.386	126.406
892.437	117.452
892.487	117.532
892.537	132.685
892.587	132.755
892.638	120.735
892.688	123.792
892.738	135.909
892.789	132.933
892.839	114.854
892.889	127.005
892.94	133.12
892.99	124.099
893.04	118.083
893.091	109.017
893.141	133.243
893.191	127.173
893.242	121.101
893.292	124.116
893.342	124.113
893.393	124.12
893.443	118.08
893.493	124.156
893.544	127.21
893.594	130.27
893.644	112.124
893.695	121.254
893.745	127.361
893.795	112.237
893.846	127.445
893.896	115.34
893.946	130.548
893.996	124.507
894.047	115.428
894.097	127.618
894.147	121.579
894.198	133.773
894.248	118.592
894.298	115.555
894.349	121.628
894.399	112.494
894.449	103.37
894.5	145.952
894.55	121.664
894.6	115.634
894.65	124.829
894.701	115.755
894.751	134.093
894.801	121.949
894.852	106.745
894.902	118.994
894.952	112.95
895.003	116.074
895.053	125.321
895.103	128.462
895.153	134.659
895.204	116.353
895.254	101.082
895.304	107.239
895.355	113.392
895.405	131.804
895.455	119.563
895.505	119.583
895.556	141.073
895.606	119.63
895.656	122.725
895.707	119.686
895.757	110.504
895.807	132.019
895.858	122.832
895.908	116.712
895.958	119.808
896.008	135.202
896.059	116.799
896.109	104.536
896.159	135.321
896.21	126.127
896.26	110.772
896.31	116.951
896.36	135.445
896.411	126.235
896.461	129.338
896.511	117.036
896.561	135.523
896.612	129.36
896.662	110.873
896.712	123.187
896.763	120.117
896.813	138.632
896.863	126.369
896.913	111.03
896.964	126.544
897.014	132.81
897.064	120.522
897.115	108.197
897.165	123.665
897.215	126.744
897.265	123.626
897.316	117.415
897.366	129.744
897.416	132.808
897.466	108.084
897.517	114.25
897.567	142.037
897.617	101.904
897.667	132.815
897.718	108.151
897.768	98.941
897.818	120.672
897.868	105.28
897.919	102.25
897.969	111.595
898.019	117.815
898.069	117.802
898.12	105.365
898.17	120.799
898.22	123.827
898.27	108.296
898.321	114.447
898.371	126.812
898.421	123.751
898.471	114.535
898.522	102.237
898.572	127.145
898.622	124.165
898.672	118.057
898.723	115.021
898.773	127.5
898.823	111.965
898.873	121.294
898.924	108.849
898.974	130.621
899.024	124.416
899.074	108.885
899.125	118.243
899.175	121.371
899.225	130.705
899.275	108.901
899.326	93.3129
899.376	115.042
899.426	105.679
899.476	114.985
899.527	121.21
899.577	127.468
899.627	124.428
899.677	108.949
899.728	115.26
899.778	124.691
899.828	121.646
899.878	109.22
899.928	93.6477
899.979	115.524
