#Acq. time (s)=	5
#Accumulations=	2
#Range (nm)=	520...900
#Windows=	8
#Auto scanning=	Off
#Autofocus=	Off
#AutoExposure=	Off
#Spike filter=	Multiple accum.
#Delay time (s)=	0
#Binning=	1
#Readout mode=	Signal
#DeNoise=	Off
#ICS correction=	On
#Dark correction=	Off
#Inst. Process=	Off
#Detector temperature (°C)=	-59.98
#Instrument=	LabRAM HR Evol
#Detector=	Syncerity OE
#Objective=	x50_VIS
#Grating=	600 (500nm)
#ND Filter=	10%
#Laser=	514nm_Edge
#Hole=	199.981
#Range=	Auto
#StageXY=	Marzhauser
#StageZ=	Marzhauser
#X (µm)=	3719.7
#Y (µm)=	3064.1
#Z (µm)=	-33.5
#Full time(mm:ss)=	2:04
#Project=	
#Sample=	
#Site=	
#Title=	PL_M1_011123
#Remark=	
#Date=	11.11.2023 11:36
#Acquired=	11.11.2023 11:36:51
520.044	37.836
520.097	46.7412
520.149	37.6708
520.201	39.3828
520.254	30.3731
520.306	41.0212
520.359	37.3982
520.411	37.3547
520.464	40.8806
520.516	44.4197
520.569	40.8685
520.621	39.1085
520.674	30.2423
520.726	40.955
520.778	28.521
520.831	39.2592
520.883	37.5122
520.936	39.3288
520.988	35.7726
521.041	37.572
521.093	35.7861
521.146	33.9952
521.198	33.9909
521.25	46.5051
521.303	39.3397
521.355	42.8978
521.408	39.298
521.46	48.1871
521.513	37.4381
521.565	48.0768
521.617	30.2345
521.67	42.6387
521.722	40.8271
521.775	37.2529
521.827	39.0083
521.88	40.7667
521.932	44.2997
521.984	40.7492
522.037	35.4347
522.089	37.2168
522.142	39.012
522.194	39.0464
522.247	37.3123
522.299	40.9139
522.352	42.7413
522.404	41.0016
522.456	42.8209
522.509	37.4958
522.561	33.9474
522.614	42.9081
522.666	37.5673
522.719	34.0078
522.771	42.9748
522.823	44.7749
522.876	30.4454
522.928	44.7563
522.981	37.5679
523.033	42.8867
523.086	35.6852
523.138	37.4012
523.19	37.3265
523.243	35.4786
523.295	38.9576
523.348	37.1345
523.4	31.7973
523.453	52.958
523.505	31.7568
523.557	37.0272
523.61	35.2378
523.662	38.7279
523.715	33.4182
523.767	36.9118
523.82	36.9023
523.872	45.6992
523.924	42.2138
523.977	38.7377
524.029	44.0766
524.082	40.6048
524.134	38.8897
524.186	35.3974
524.239	35.4387
524.291	42.5753
524.344	44.4004
524.396	37.3396
524.449	39.1621
524.501	40.986
524.553	35.6741
524.606	41.058
524.658	37.5102
524.711	42.8844
524.763	39.3141
524.815	39.3061
524.868	32.1436
524.92	41.0418
524.973	35.6558
525.025	39.1828
525.078	32.0284
525.13	26.6688
525.182	40.8673
525.235	42.6276
525.287	37.2923
525.34	40.8425
525.392	46.172
525.444	30.1909
525.497	39.0707
525.549	40.8434
525.602	40.8377
525.654	44.3828
525.706	40.8307
525.759	40.838
525.811	37.305
525.864	40.8924
525.916	33.821
525.969	33.8704
526.021	37.4962
526.073	39.3466
526.126	30.4523
526.178	44.8483
526.231	41.3157
526.283	34.1725
526.335	34.2128
526.388	43.2643
526.44	39.6994
526.493	41.5405
526.545	45.1849
526.597	43.3998
526.65	45.2221
526.702	34.3723
526.755	39.7957
526.807	37.976
526.859	45.1888
526.912	39.7424
526.964	37.9102
527.017	41.4922
527.069	45.0724
527.121	34.2383
527.174	41.4322
527.226	45.0251
527.279	45.0179
527.331	37.8087
527.383	35.9997
527.436	43.1854
527.488	44.9662
527.54	37.7541
527.593	37.7364
527.645	43.1087
527.698	44.8886
527.75	39.4917
527.802	35.897
527.855	39.4883
527.907	30.521
527.96	34.1269
528.012	32.3515
528.064	44.9682
528.117	34.2064
528.169	43.2495
528.222	39.6856
528.274	41.535
528.326	36.1613
528.379	39.8315
528.431	39.891
528.484	39.9531
528.536	41.8326
528.588	41.8903
528.641	41.9395
528.693	40.1546
528.745	43.8401
528.798	31.0758
528.85	40.2436
528.903	47.5926
528.955	43.9571
529.007	40.3095
529.06	49.4746
529.112	43.9655
529.164	45.7706
529.217	36.5873
529.269	38.3832
529.322	43.8296
529.374	38.3209
529.426	51.0554
529.479	40.0812
529.531	52.782
529.584	38.1777
529.636	43.5778
529.688	47.1531
529.741	45.2936
529.793	47.0698
529.845	41.6184
529.898	45.2242
529.95	50.6408
530.003	47.0134
530.055	43.3848
530.107	41.563
530.16	43.3553
530.212	41.5381
530.264	37.9224
530.317	43.3448
530.369	45.167
530.422	41.5784
530.474	36.1843
530.526	43.4641
530.579	36.2613
530.631	49.0145
530.683	39.993
530.736	47.3359
530.788	40.1189
530.841	49.3216
530.893	31.1081
530.945	36.6576
530.998	38.5449
531.05	47.7758
531.102	40.4585
531.155	44.1621
531.207	46.0239
531.259	44.2055
531.312	46.0777
531.364	47.9612
531.417	46.1623
531.469	42.5133
531.521	40.7042
531.574	44.4401
531.626	48.1716
531.678	42.6308
531.731	38.9359
531.783	44.5122
531.835	44.5302
531.888	46.4102
531.94	44.5824
531.992	50.1899
532.045	50.2229
532.097	53.973
532.15	46.5478
532.202	46.5619
532.254	40.9853
532.307	50.316
532.359	42.8814
532.411	54.103
532.464	41.0783
532.516	44.8566
532.568	43.0315
532.621	50.5634
532.673	50.6027
532.726	48.7546
532.778	43.1409
532.83	45.0189
532.883	45.0144
532.935	46.8826
532.987	43.1258
533.04	46.8714
533.092	44.9941
533.144	41.2423
533.197	44.9872
533.249	44.9801
533.301	35.6023
533.354	37.4695
533.406	48.7056
533.458	50.5793
533.511	44.9632
533.563	52.4612
533.615	39.3444
533.668	41.2079
533.72	43.0606
533.773	41.1615
533.825	48.61
533.877	54.1816
533.93	46.6809
533.982	50.39
534.034	48.4988
534.087	50.3312
534.139	50.2864
534.191	52.0893
534.244	50.1631
534.296	40.8198
534.348	50.0399
534.401	59.2577
534.453	49.9764
534.505	55.5233
534.558	49.9775
534.61	51.841
534.662	44.4466
534.715	53.7188
534.767	55.5842
534.819	53.7475
534.872	44.5002
534.924	51.9492
534.976	59.4178
535.029	53.8959
535.081	48.3638
535.133	57.7092
535.186	55.8789
535.238	55.8965
535.29	50.3125
535.343	52.1768
535.395	55.9062
535.447	50.325
535.5	55.938
535.552	54.1042
535.604	56.0083
535.657	54.1804
535.709	50.4788
535.761	54.2534
535.814	52.4171
535.866	56.2021
535.918	52.4995
535.971	45.0421
536.023	50.7201
536.075	58.2798
536.128	52.6632
536.18	56.4235
536.232	45.1155
536.285	56.3428
536.337	58.156
536.389	52.4716
536.442	54.3009
536.494	59.8908
536.546	48.6563
536.599	54.2771
536.651	54.2847
536.703	52.4101
536.755	52.3894
536.808	59.8264
536.86	48.5543
536.912	46.6261
536.965	46.5672
537.017	65.1255
537.069	55.7723
537.122	52.0101
537.174	55.6736
537.226	55.6146
537.279	51.8446
537.331	53.6278
537.383	51.7149
537.436	49.8149
537.488	58.9919
537.54	55.2748
537.593	57.0979
537.645	47.8766
537.697	55.2263
537.75	60.7229
537.802	55.1689
537.854	55.1267
537.906	56.9168
537.959	53.2028
538.011	56.8363
538.063	49.4836
538.116	54.9762
538.168	56.8181
538.22	53.1723
538.273	56.8674
538.325	62.4032
538.377	56.9236
538.43	62.4549
538.482	51.4458
538.534	60.6413
538.586	49.6201
538.639	58.8147
538.691	66.1766
538.743	55.1601
538.796	60.6954
538.848	55.1981
538.9	60.7405
538.953	60.7592
539.005	57.087
539.057	57.0874
539.109	51.5536
539.162	49.6955
539.214	57.0321
539.266	47.81
539.319	64.3303
539.371	56.9568
539.423	55.1043
539.476	60.6035
539.528	55.0873
539.58	56.9181
539.633	60.5839
539.685	56.9045
539.737	56.8942
539.789	56.881
539.842	60.5335
539.894	62.3473
539.946	60.4916
539.999	49.4743
540.051	58.614
540.103	56.7618
540.155	60.4043
540.208	56.7284
540.26	60.378
540.312	49.3985
540.365	56.7255
540.417	58.5769
540.469	58.6106
540.521	62.3188
540.574	56.8634
540.626	66.0792
540.678	62.4376
540.731	58.7783
540.783	62.4537
540.835	58.7764
540.888	62.4494
540.94	64.2962
540.992	58.8068
541.044	62.5165
541.097	64.3962
541.149	58.9135
541.201	71.8405
541.254	70.0307
541.306	53.4654
541.358	64.5501
541.41	60.8812
541.463	68.2791
541.515	53.5255
541.567	68.2951
541.62	66.4472
541.672	62.7527
541.724	64.6011
541.776	62.7692
541.829	62.7959
541.881	66.5282
541.933	62.8706
541.985	64.7517
542.038	75.8707
542.09	57.3615
542.142	64.7371
542.195	70.2383
542.247	57.2494
542.299	75.6433
542.351	64.5102
542.404	60.7675
542.456	64.3956
542.508	66.1859
542.56	67.9808
542.613	69.7811
542.665	62.4088
542.717	71.5609
542.77	64.2008
542.822	69.6811
542.874	78.8213
542.926	67.7946
542.979	73.2561
543.031	54.9132
543.083	67.6901
543.135	65.8285
543.188	62.148
543.24	73.1011
543.292	67.6212
543.344	65.8132
543.397	78.6523
543.449	67.7247
543.501	71.4381
543.554	73.3167
543.606	71.5135
543.658	73.356
543.71	73.3438
543.763	60.4863
543.815	76.9489
543.867	69.5951
543.919	64.0886
543.972	73.2459
544.024	60.4406
544.076	60.4606
544.128	67.8147
544.181	73.3406
544.233	67.8642
544.285	67.8878
544.337	73.4182
544.39	77.1172
544.442	77.1444
544.494	71.6563
544.547	73.5115
544.599	80.8764
544.651	77.2088
544.703	68.0226
544.755	64.3494
544.808	66.19
544.86	79.0587
544.912	69.8592
544.965	79.0373
545.017	80.8569
545.069	79.0014
545.121	78.9879
545.174	80.8166
545.226	84.4834
545.278	80.7976
545.33	80.7688
545.383	77.0482
545.435	86.1412
545.487	78.7232
545.539	84.1224
545.591	76.7365
545.644	85.8186
545.696	87.6179
545.748	82.134
545.8	71.1781
545.853	78.4615
545.905	72.9524
545.957	74.7202
546.009	71.0094
546.062	83.6737
546.114	83.6
546.166	79.9069
546.218	85.3051
546.271	81.6339
546.323	81.5937
546.375	85.1756
546.427	81.507
546.48	88.7072
546.532	92.2912
546.584	83.2236
546.636	88.6469
546.689	86.8479
546.741	86.8689
546.793	88.7071
546.845	81.4953
546.898	79.7144
546.95	90.618
547.002	83.3959
547.054	87.0433
547.106	88.8679
547.159	94.3075
547.211	85.227
547.263	94.2714
547.315	94.2472
547.368	88.7917
547.42	94.2195
547.472	88.7889
547.524	97.8693
547.577	94.2748
547.629	90.6826
547.681	96.1564
547.733	105.253
547.785	88.9328
547.838	92.5671
547.89	90.7525
547.942	108.905
547.994	90.7606
548.047	74.435
548.099	98.0572
548.151	92.6306
548.203	99.9133
548.255	107.187
548.308	107.177
548.36	112.6
548.412	107.113
548.464	83.4761
548.517	94.3221
548.569	106.976
548.621	105.128
548.673	94.2331
548.725	105.097
548.778	99.6632
548.83	103.298
548.882	99.6843
548.934	94.25
548.987	115.984
549.039	96.011
549.091	99.5668
549.143	108.519
549.195	102.985
549.248	115.514
549.3	110.004
549.352	93.7159
549.404	108.094
549.456	115.275
549.509	113.45
549.561	115.21
549.613	106.148
549.665	111.458
549.718	111.36
549.77	109.472
549.822	116.575
549.874	100.393
549.926	114.713
549.979	116.498
550.031	98.5671
550.083	118.254
550.135	94.9198
550.187	118.122
550.24	114.443
550.292	117.905
550.344	112.44
550.396	110.567
550.448	117.637
550.501	121.173
550.553	128.309
550.605	122.997
550.657	128.388
550.709	128.418
550.762	124.851
550.814	131.949
550.866	130.101
550.918	140.708
550.97	131.727
551.023	126.329
551.075	129.846
551.127	140.483
551.179	127.999
551.231	136.834
551.284	145.644
551.336	142.009
551.388	149.033
551.44	152.53
551.492	147.196
551.545	161.406
551.597	159.673
551.649	156.162
551.701	165.053
551.753	175.689
551.806	191.618
551.858	196.885
551.91	200.386
551.962	216.322
552.014	214.556
552.067	228.771
552.119	274.927
552.171	298.032
552.223	353.074
552.275	404.589
552.327	573.304
552.38	980.125
552.432	2108.68
552.484	4221.52
552.536	7451.51
552.588	13189.6
552.641	20577.4
552.693	16517.2
552.745	7946.99
552.797	3084.39
552.849	1196.73
552.901	692.088
552.954	475.405
553.006	386.636
553.058	313.91
553.11	297.974
553.162	255.453
553.215	241.332
553.267	211.254
553.319	207.814
553.371	206.161
553.423	204.501
553.475	185.024
553.528	186.847
553.58	174.382
553.632	176.103
553.684	172.45
553.736	161.679
553.788	158.035
553.841	168.625
553.893	159.734
553.945	161.536
553.997	163.368
554.049	154.552
554.102	165.269
554.154	165.305
554.206	156.429
554.258	167.087
554.31	151.074
554.362	158.162
554.414	168.797
554.467	166.984
554.519	163.383
554.571	161.548
554.623	161.482
554.675	170.291
554.727	152.507
554.78	161.34
554.832	164.861
554.884	143.562
554.936	161.239
554.988	159.398
555.04	153.997
555.093	169.821
555.145	159.109
555.197	150.186
555.249	169.539
555.301	164.162
555.353	183.478
555.406	176.299
555.458	162.056
555.51	184.769
555.562	168.75
555.614	158.036
555.666	164.904
555.719	175.296
555.771	166.441
555.823	169.891
555.875	166.365
555.927	176.865
555.979	178.608
556.031	168.077
556.084	183.776
556.136	176.685
556.188	178.319
556.24	174.707
556.292	185.088
556.344	181.536
556.396	162.326
556.449	176.318
556.501	179.861
556.553	179.91
556.605	195.66
556.657	174.692
556.709	190.381
556.762	202.551
556.814	181.544
556.866	191.971
556.918	188.453
556.97	191.939
557.022	179.744
557.074	202.481
557.127	179.859
557.179	186.939
557.231	187.05
557.283	194.166
557.335	194.287
557.387	201.405
557.439	201.51
557.492	192.84
557.544	198.191
557.596	193.021
557.648	184.343
557.7	200.259
557.752	195.111
557.804	204.032
557.856	186.565
557.909	211.34
557.961	204.419
558.013	208.065
558.065	201.131
558.117	204.788
558.169	192.557
558.221	201.521
558.273	210.477
558.326	203.473
558.378	201.711
558.43	205.189
558.482	199.772
558.534	212.01
558.586	210.134
558.638	203.024
558.691	195.984
558.743	204.887
558.795	199.679
558.847	213.893
558.899	210.382
558.951	215.646
559.003	217.315
559.055	229.536
559.108	206.428
559.16	229.178
559.212	220.167
559.264	223.465
559.316	212.667
559.368	215.92
559.42	222.674
559.472	224.186
559.525	197.747
559.577	204.625
559.629	229.017
559.681	223.692
559.733	218.345
559.785	219.933
559.837	235.404
559.889	228.142
559.941	224.35
559.994	234.467
560.046	228.977
560.098	223.537
560.15	207.747
560.202	233.498
560.254	233.252
560.306	217.428
560.358	223.998
560.41	245.999
560.463	228.422
560.515	224.645
560.567	226.059
560.619	236.067
560.671	237.537
560.723	230.472
560.775	226.816
560.827	243.589
560.879	234.794
560.932	244.732
560.984	232.622
561.036	244.342
561.088	228.965
561.14	249.229
561.192	237.272
561.244	232.071
561.296	226.842
561.348	243.594
561.4	234.98
561.453	255.149
561.505	251.726
561.557	251.754
561.609	251.832
561.661	255.306
561.713	260.453
561.765	253.723
561.817	257.107
561.869	257.093
561.921	282.459
561.974	250.343
562.026	257.156
562.078	260.597
562.13	255.568
562.182	247.126
562.234	255.585
562.286	267.419
562.338	279.27
562.39	277.622
562.442	255.706
562.494	262.617
562.547	271.255
562.599	264.635
562.651	280.054
562.703	261.499
562.755	281.977
562.807	287.164
562.859	290.658
562.911	282.262
562.963	282.377
563.015	285.902
563.067	265.595
563.12	277.626
563.172	284.541
563.224	288.031
563.276	298.317
563.328	293.233
563.38	298.348
563.432	301.733
563.484	294.874
563.536	294.828
563.588	299.893
563.64	304.953
563.692	315.109
563.744	311.606
563.797	309.762
563.849	297.679
563.901	314.498
563.953	316.024
564.005	320.992
564.057	305.643
564.109	292.047
564.161	315.832
564.213	326.02
564.265	334.456
564.317	317.352
564.369	323.934
564.421	311.807
564.474	313.211
564.526	334.897
564.578	321.052
564.63	332.543
564.682	325.434
564.734	333.462
564.786	334.706
564.838	314.097
564.89	310.334
564.942	306.628
564.994	323.081
565.046	309.458
565.098	319.291
565.15	319.085
565.202	327.183
565.255	308.518
565.307	333.135
565.359	331.023
565.411	315.605
565.463	316.826
565.515	334.641
565.567	317.707
565.619	347.141
565.671	331.97
565.723	316.859
565.775	338.075
565.827	327.962
565.879	349.153
565.931	345.611
565.983	338.758
566.035	353.247
566.087	336.501
566.139	349.302
566.192	362.093
566.244	358.519
566.296	335.349
566.348	359.638
566.4	354.49
566.452	339.542
566.504	353.954
566.556	342.248
566.608	353.356
566.66	343.31
566.712	365.834
566.764	347.755
566.816	344.367
566.868	355.652
566.92	353.992
566.972	365.369
567.024	355.671
567.076	354.117
567.128	381.819
567.18	385.151
567.232	364.085
567.285	360.874
567.337	359.274
567.389	357.679
567.441	367.489
567.493	370.835
567.545	377.474
567.597	384.14
567.649	376.156
567.701	386.065
567.753	369.882
567.805	378.121
567.857	386.368
567.909	378.336
567.961	370.332
568.013	388.46
568.065	390.28
568.117	395.223
568.169	399.904
568.221	391.709
568.273	387.029
568.325	391.489
568.377	395.39
568.429	397.02
568.481	412.323
568.533	398.102
568.585	399.638
568.637	399.91
568.69	392.144
568.742	416.271
568.794	418.242
568.846	401.114
568.898	418.491
568.95	415.218
569.002	427.283
569.054	396.224
569.106	404.907
569.158	415.441
569.21	419.256
569.262	408.146
569.314	415.721
569.366	407.18
569.418	438.217
569.47	428.92
569.522	422.048
569.574	425.437
569.626	426.627
569.678	438.012
569.73	441.448
569.782	429.806
569.834	437.297
569.886	436.028
569.938	435.811
569.99	457.028
570.042	447.57
570.094	442.632
570.146	444.088
570.198	428.083
570.25	453.149
570.302	459.684
570.354	457.219
570.406	459.292
570.458	460.262
570.51	458.39
570.562	469.485
570.614	478.762
570.666	471.528
570.718	476.435
570.77	475.392
570.822	468.518
570.874	484.7
570.926	483.319
570.978	488.21
571.03	493.687
571.082	491.495
571.134	485.809
571.186	496.058
571.238	502.108
571.29	503.541
571.342	507.998
571.394	504.426
571.446	515.415
571.498	515.587
571.55	526.22
571.602	531.557
571.654	540.689
571.706	538.857
571.758	562.46
571.81	552.381
571.862	559.614
571.914	558.187
571.966	548.962
572.018	562.093
572.07	567.389
572.122	572.053
572.174	584.664
572.226	592.533
572.278	589.022
572.33	596.419
572.382	621.401
572.434	620.708
572.486	624.231
572.538	631.225
572.59	621.495
572.642	626.663
572.694	620.291
572.746	640.434
572.798	645.071
572.85	670.037
572.902	667.086
572.954	676.073
573.006	706.441
573.058	679.071
573.11	693.74
573.162	697.779
573.214	713.509
573.266	699.907
573.312	749.881
573.364	751.412
573.416	759.155
573.469	746.82
573.521	804.087
573.573	793.323
573.625	787.169
573.677	790.224
573.73	827.183
573.782	848.544
573.834	831.18
573.886	855.53
573.938	883.073
573.991	878.421
574.043	880.224
574.095	917.807
574.147	926.176
574.199	937.581
574.252	945.646
574.304	996.659
574.356	1000.81
574.408	989.157
574.46	1040.69
574.513	1024.35
574.565	1043.69
574.617	1057
574.669	1093.49
574.721	1122.25
574.774	1126.32
574.826	1147.24
574.878	1160.4
574.93	1179.7
574.982	1192.87
575.035	1210.68
575.087	1243.84
575.139	1264.7
575.191	1306.97
575.243	1261.92
575.296	1267.46
575.348	1344.96
575.4	1323.01
575.452	1305.64
575.504	1326.39
575.556	1357.67
575.609	1375.08
575.661	1375.69
575.713	1396.26
575.765	1403.35
575.817	1381.76
575.87	1436.51
575.922	1415.11
575.974	1433.15
576.026	1444.83
576.078	1418.18
576.131	1383.8
576.183	1398.09
576.235	1415.52
576.287	1401.26
576.339	1387.21
576.391	1391.51
576.444	1374.62
576.496	1348.62
576.548	1337.73
576.6	1351.01
576.652	1324.78
576.705	1310.6
576.757	1305.45
576.809	1286.64
576.861	1279.94
576.913	1255.12
576.965	1266.65
577.018	1229.9
577.07	1214.39
577.122	1188.4
577.174	1156.44
577.226	1198.49
577.279	1156.06
577.331	1146.87
577.383	1112.05
577.435	1125.52
577.487	1114.83
577.539	1067.91
577.592	1051.09
577.644	1074.91
577.696	1068.49
577.748	1016.84
577.8	1026.96
577.852	1025.04
577.905	1017.15
577.957	1012.33
578.009	984.974
578.061	963.65
578.113	970.871
578.165	967.535
578.218	977.691
578.27	953.296
578.322	933.42
578.374	901.557
578.426	946.174
578.478	903.773
578.531	903.286
578.583	910.197
578.635	879.613
578.687	913.284
578.739	870.693
578.791	868.447
578.844	876.641
578.896	871.421
578.948	842.397
579	874.387
579.052	845.387
579.104	855.003
579.157	846.759
579.209	848.841
579.261	852.325
579.313	840.951
579.365	848.737
579.417	835.844
579.47	853.927
579.522	848.515
579.574	846.173
579.626	848.381
579.678	809.655
579.73	823.852
579.782	858.592
579.835	815.655
579.887	837.087
579.939	833.526
579.991	819.648
580.043	853.904
580.095	842.884
580.148	824.65
580.2	818.184
580.252	820.555
580.304	807.007
580.356	815.309
580.408	845.387
580.46	842.015
580.513	812.51
580.565	829.452
580.617	829.034
580.669	859.121
580.721	828.444
580.773	828.258
580.826	826.661
580.878	839.549
580.93	824.931
580.982	850.835
581.034	839.123
581.086	844.788
581.138	824.43
581.191	850.361
581.243	841.591
581.295	837.187
581.347	828.5
581.399	848.805
581.451	822.905
581.503	851.995
581.556	876.725
581.608	850.727
581.66	831.847
581.712	862.064
581.764	840.195
581.816	851.666
581.868	843.031
581.92	866.354
581.973	833.345
582.025	853.84
582.077	872.771
582.129	864.023
582.181	855.111
582.233	888.055
582.285	864.597
582.338	867.268
582.39	884.532
582.442	873.023
582.494	864.481
582.546	889.197
582.598	893.615
582.65	874.793
582.703	878.995
582.755	904.787
582.807	872.723
582.859	882.575
582.911	883.81
582.963	886.562
583.015	905.262
583.067	887.897
583.12	892.164
583.172	920.895
583.224	893.236
583.276	914.555
583.328	918.505
583.38	900.826
583.432	927.836
583.484	930.332
583.537	912.607
583.589	907.711
583.641	932.82
583.693	940.468
583.745	916.429
583.797	933.983
583.849	912.977
583.901	949.399
583.953	910.255
584.006	928.44
584.058	908.11
584.11	956.228
584.162	924.238
584.214	940.527
584.266	940.916
584.318	982.395
584.37	948.471
584.423	950.135
584.475	963.246
584.527	959.494
584.579	951.647
584.631	969.35
584.683	981.438
584.735	948.359
584.787	963.242
584.839	976.638
584.892	970.226
584.944	1003.14
584.996	1021.88
585.048	985.765
585.1	969.358
585.152	1013.3
585.204	1005.47
585.256	1018.78
585.308	1012.62
585.361	991.201
585.413	1006.17
585.465	1002.96
585.517	1002.47
585.569	1014.48
585.621	1052.93
585.673	1034.21
585.725	1019.79
585.777	1023.65
585.83	1062.52
585.882	1029.18
585.934	1026.63
585.986	1028.34
586.038	1052.37
586.09	1051.26
586.142	1050.03
586.194	1058.43
586.246	1054.2
586.298	1035.99
586.351	1049.92
586.403	1047.27
586.455	1060.14
586.507	1059.23
586.559	1061.19
586.611	1110.61
586.663	1087.25
586.715	1067.85
586.767	1111.14
586.819	1071.84
586.872	1087.05
586.924	1093.98
586.976	1098.3
587.028	1080.44
587.08	1092.06
587.132	1084.15
587.184	1106.95
587.236	1086.25
587.288	1096.2
587.34	1080.83
587.392	1107.39
587.445	1070.93
587.497	1121.29
587.549	1100.28
587.601	1124.06
587.653	1048.41
587.705	1123.88
587.757	1119.48
587.809	1116.44
587.861	1109.2
587.913	1100.61
587.965	1114.47
588.018	1135.39
588.07	1118.6
588.122	1139.55
588.174	1108.69
588.226	1101.47
588.278	1082.91
588.33	1120.06
588.382	1094.22
588.434	1099.01
588.486	1121.89
588.538	1087.7
588.59	1127.41
588.642	1122.67
588.695	1147.21
588.747	1134.23
588.799	1139.3
588.851	1120.7
588.903	1118.7
588.955	1140.22
589.007	1129.74
589.059	1164.9
589.111	1148.68
589.163	1117.13
589.215	1132.48
589.267	1154.6
589.319	1165.66
589.372	1132.76
589.424	1126.24
589.476	1154.31
589.528	1123.48
589.58	1157.3
589.632	1160.91
589.684	1160.29
589.736	1133.49
589.788	1096.97
589.84	1120.61
589.892	1107.26
589.944	1159.54
589.996	1138.17
590.048	1133.37
590.101	1113.73
590.153	1132.37
590.205	1114.23
590.257	1105.58
590.309	1136.29
590.361	1136.94
590.413	1137.57
590.465	1151.88
590.517	1112.09
590.569	1132.28
590.621	1122.83
590.673	1118.92
590.725	1129.96
590.777	1149.03
590.829	1120.37
590.881	1113.22
590.933	1139.77
590.986	1092.9
591.038	1140.88
591.09	1127.91
591.142	1117.81
591.194	1122.8
591.246	1118.52
591.298	1115.76
591.35	1125.23
591.402	1091.38
591.454	1087.19
591.506	1085.6
591.558	1077.17
591.61	1090.36
591.662	1088.72
591.714	1099.31
591.766	1077.55
591.818	1085.53
591.87	1102.95
591.923	1102.81
591.975	1118.85
592.027	1083.64
592.079	1074.12
592.131	1110.51
592.183	1070
592.235	1084.79
592.287	1090.06
592.339	1088.53
592.391	1077.52
592.443	1075.97
592.495	1062.35
592.547	1096.01
592.599	1104.15
592.651	1077.3
592.703	1107.09
592.755	1077.51
592.807	1091.01
592.859	1084.21
592.911	1042.3
592.963	1102.8
593.015	1083.72
593.068	1098.28
593.12	1071.02
593.172	1081.42
593.224	1079.64
593.276	1073.79
593.328	1096.16
593.38	1067.42
593.432	1064.25
593.484	1087.96
593.536	1071.39
593.588	1084.41
593.64	1104.2
593.692	1073.1
593.744	1074.29
593.796	1086.29
593.848	1071.52
593.9	1096.96
593.952	1064.66
594.004	1079.18
594.056	1093.58
594.108	1085.11
594.16	1095.35
594.212	1074.81
594.264	1050.31
594.316	1106.14
594.368	1087.09
594.42	1081.43
594.472	1097.15
594.524	1064.75
594.576	1083.12
594.628	1086.8
594.68	1091.83
594.732	1124.85
594.784	1113.78
594.837	1103.93
594.889	1109.93
594.941	1115.78
594.993	1117.54
595.045	1098.04
595.097	1098.63
595.149	1084.83
595.201	1083.28
595.253	1058.07
595.305	1100.75
595.357	1126.24
595.409	1097.21
595.461	1102.56
595.513	1121.01
595.565	1115.41
595.617	1124.34
595.669	1146.53
595.721	1138.3
595.773	1138.16
595.825	1123.57
595.877	1146.16
595.929	1148.75
595.981	1125.94
596.033	1089.64
596.085	1136.63
596.137	1133.08
596.189	1133.42
596.241	1150.95
596.293	1156.62
596.345	1137.31
596.397	1111.54
596.449	1163.65
596.501	1139.43
596.553	1156.19
596.605	1141.5
596.657	1166.43
596.709	1149.33
596.761	1175.7
596.813	1188.85
596.865	1146.63
596.917	1138.58
596.969	1147.6
597.021	1172.44
597.073	1165.76
597.125	1140.7
597.177	1152.48
597.229	1149.72
597.281	1150.79
597.333	1139.9
597.385	1151.29
597.437	1152.18
597.489	1165
597.541	1166.17
597.593	1176.72
597.645	1128.28
597.697	1159.99
597.749	1141.7
597.801	1196.82
597.853	1158.47
597.905	1135.77
597.957	1178.67
598.009	1190.13
598.061	1183.42
598.113	1186.12
598.165	1192.97
598.217	1163.17
598.269	1172.73
598.321	1193.99
598.373	1183.53
598.425	1184.74
598.477	1183.25
598.529	1197.55
598.581	1194.91
598.633	1189.77
598.685	1193.92
598.737	1154.7
598.789	1210
598.841	1204.76
598.893	1221.8
598.945	1202.11
598.997	1229.9
599.049	1189.62
599.101	1224.5
599.153	1216.16
599.205	1234.17
599.257	1225.73
599.309	1215.74
599.361	1223.96
599.413	1212.2
599.465	1233.3
599.517	1218.77
599.569	1221.44
599.62	1233.44
599.672	1207.3
599.724	1249.9
599.776	1204.15
599.828	1221.82
599.88	1224.97
599.932	1217.46
599.984	1234.94
600.036	1257.56
600.088	1220.52
600.14	1242.91
600.192	1209.77
600.244	1228.29
600.296	1250.92
600.348	1245.94
600.4	1225.18
600.452	1225.57
600.504	1229.85
600.556	1231.32
600.608	1231.27
600.66	1227.08
600.712	1245.29
600.764	1203.93
600.816	1236.73
600.868	1259.06
600.92	1214.08
600.972	1235.36
601.024	1246.13
601.076	1246.33
601.128	1225.29
601.18	1258.45
601.232	1220.09
601.284	1245.2
601.335	1225.26
601.387	1215.82
601.439	1247.27
601.491	1267.95
601.543	1254.08
601.595	1232.13
601.647	1231.21
601.699	1259.23
601.751	1233.18
601.803	1265.11
601.855	1235.22
601.907	1212
601.959	1249.32
602.011	1244.68
602.063	1236.24
602.115	1259.4
602.167	1255.08
602.219	1235.01
602.271	1242.33
602.323	1244.15
602.375	1253.53
602.427	1250.87
602.478	1218.03
602.53	1220.49
602.582	1232.21
602.634	1238.95
602.686	1244.65
602.738	1242.75
602.79	1272.17
602.842	1239.23
602.894	1245.2
602.946	1256.24
602.998	1232.12
603.05	1263.68
603.102	1222.62
603.154	1251.53
603.206	1241.65
603.258	1239.62
603.31	1237.67
603.362	1244.79
603.413	1210.61
603.465	1246.1
603.517	1232.54
603.569	1253.79
603.621	1239
603.673	1239.77
603.725	1250.98
603.777	1225.02
603.829	1249.39
603.881	1267.42
603.933	1249.44
603.985	1266.13
604.037	1256.97
604.089	1264.37
604.141	1265.23
604.193	1257.05
604.244	1251.52
604.296	1215.34
604.348	1241.02
604.4	1269.47
604.452	1247.91
604.504	1225.08
604.556	1266.48
604.608	1231.97
604.66	1238.6
604.712	1274.86
604.764	1250.77
604.816	1296.28
604.868	1249.15
604.92	1279.26
604.971	1248.73
605.023	1256.73
605.075	1259.51
605.127	1257.13
605.179	1294.82
605.231	1255.28
605.283	1249.4
605.335	1275.86
605.387	1285.52
605.439	1296.35
605.491	1272.09
605.543	1245.06
605.594	1241.23
605.646	1259.4
605.698	1271.27
605.75	1300.17
605.802	1240.01
605.854	1248.55
605.906	1290.79
605.958	1262.9
606.01	1261.97
606.062	1273.7
606.114	1248.84
606.166	1291.23
606.217	1272.62
606.269	1283.89
606.321	1268.09
606.373	1275.77
606.425	1260.28
606.477	1269.42
606.529	1265.56
606.581	1278.42
606.633	1284.68
606.685	1270.1
606.737	1251.57
606.789	1256.34
606.84	1259.84
606.892	1262.12
606.944	1278.7
606.996	1275.95
607.048	1270.64
607.1	1293.77
607.152	1279.35
607.204	1271.31
607.256	1257.98
607.308	1279.37
607.359	1265.77
607.411	1295.94
607.463	1256.46
607.515	1280.18
607.567	1284.67
607.619	1273.83
607.671	1260.53
607.723	1285.86
607.775	1289.32
607.827	1270.89
607.878	1275.54
607.93	1307.11
607.982	1277.01
608.034	1280.25
608.086	1288.56
608.138	1286.54
608.19	1276.75
608.242	1261.8
608.294	1300.58
608.345	1306.17
608.397	1260.81
608.449	1302.52
608.501	1266.5
608.553	1259.96
608.605	1270.04
608.657	1260.88
608.709	1301.35
608.761	1284.26
608.812	1291.28
608.864	1321.19
608.916	1286.16
608.968	1266.54
609.02	1304.32
609.072	1307.87
609.124	1305.18
609.176	1311.47
609.228	1312.72
609.279	1313.99
609.331	1308.89
609.383	1298.7
609.435	1315.2
609.487	1321.52
609.539	1297.32
609.591	1316.38
609.643	1324.01
609.694	1280.8
609.746	1345.73
609.798	1319.08
609.85	1296.22
609.902	1352.16
609.954	1331.69
610.006	1328.91
610.058	1303.13
610.109	1333.16
610.161	1309.72
610.213	1319.26
610.265	1349.07
610.317	1325.59
610.369	1314.87
610.421	1346.06
610.473	1322.86
610.524	1342.84
610.576	1319.85
610.628	1308.33
610.68	1328.5
610.732	1341.06
610.784	1347.27
610.836	1339.53
610.887	1344.47
610.939	1376.05
610.991	1341.86
611.043	1359.62
611.095	1347.01
611.147	1362.21
611.199	1383.63
611.25	1320.1
611.302	1305.79
611.354	1334.36
611.406	1346.37
611.458	1340.62
611.51	1368.95
611.562	1343
611.614	1361.29
611.665	1341.79
611.717	1368.99
611.769	1379.79
611.821	1374.14
611.873	1354.56
611.925	1332.4
611.977	1378.15
612.028	1347.24
612.08	1342.85
612.132	1344.87
612.184	1373.34
612.236	1357.84
612.288	1362.28
612.339	1355.18
612.391	1379.14
612.443	1354.04
612.495	1368.93
612.547	1383.9
612.599	1374.15
612.651	1369.75
612.702	1378.15
612.754	1368.04
612.806	1385.41
612.858	1366.49
612.91	1377.27
612.962	1384.04
613.013	1405.52
613.065	1372.11
613.117	1400.9
613.169	1399.91
613.221	1385.38
613.273	1389.57
613.325	1364.02
613.376	1383.08
613.428	1377.25
613.48	1391.13
613.532	1366.57
613.584	1381.55
613.635	1364.43
613.687	1416.49
613.739	1393.33
613.791	1380.1
613.843	1390.29
613.895	1389.35
613.947	1409.29
613.998	1384.96
614.05	1412.3
614.102	1406.59
614.154	1439.1
614.206	1420.26
614.258	1412.63
614.309	1397.75
614.361	1436.87
614.413	1404.89
614.465	1451.34
614.517	1432.78
614.568	1411.73
614.62	1429.84
614.672	1479.71
614.724	1454.77
614.776	1438.33
614.828	1427.98
614.879	1433.54
614.931	1412.26
614.983	1449.76
615.035	1459.25
615.087	1446.82
615.139	1417.31
615.19	1445.18
615.242	1476.62
615.294	1453.02
615.346	1469.66
615.398	1485.06
615.449	1489.49
615.501	1484.19
615.553	1477.67
615.605	1479.63
615.657	1470.56
615.709	1468.73
615.76	1480.28
615.812	1489.4
615.864	1446.28
615.916	1472.56
615.968	1485.5
616.019	1504.18
616.071	1476.45
616.123	1480.55
616.175	1508.47
616.227	1532.73
616.278	1498.99
616.33	1504.55
616.382	1511.54
616.434	1500.1
616.486	1486.54
616.537	1488.38
616.589	1486.76
616.641	1507.09
616.693	1512.58
616.745	1517.38
616.797	1527.92
616.848	1497.82
616.9	1508.71
616.952	1482.59
617.004	1495.95
617.056	1493.91
617.107	1489.44
617.159	1483.79
617.211	1486.18
617.263	1503.74
617.315	1491.67
617.366	1509.29
617.418	1501.25
617.47	1507.13
617.522	1520.01
617.573	1506.51
617.625	1504.72
617.677	1504.09
617.729	1498.26
617.781	1527.35
617.832	1505.21
617.884	1532.03
617.936	1525.05
617.988	1504.9
618.04	1504.52
618.091	1517.25
618.143	1540.43
618.195	1507
618.247	1528.31
618.299	1560.6
618.35	1535.27
618.402	1496.18
618.454	1538.89
618.506	1540.11
618.557	1521.48
618.609	1542.97
618.661	1554.96
618.713	1537.48
618.765	1550.18
618.816	1536.8
618.868	1539.31
618.92	1554.02
618.972	1531.58
619.023	1532.73
619.075	1555.25
619.127	1541.69
619.179	1528.23
619.231	1541.27
619.282	1549.98
619.334	1545.58
619.386	1528.43
619.438	1548.32
619.49	1533.69
619.541	1561.1
619.593	1552.02
619.645	1550.79
619.697	1540.29
619.748	1542.38
619.8	1563.55
619.852	1535.3
619.904	1551.68
619.955	1534.1
620.007	1558.24
620.059	1573.18
620.111	1555.67
620.162	1556.51
620.214	1557.94
620.266	1563.29
620.318	1559.05
620.37	1564.75
620.421	1579.88
620.473	1565.13
620.525	1572.53
620.577	1585.8
620.628	1562.28
620.68	1564.02
620.732	1561.46
620.784	1577.99
620.835	1570.13
620.887	1567.22
620.939	1567.06
620.991	1564.77
621.042	1567.19
621.094	1566.3
621.146	1573.59
621.198	1569.6
621.249	1588.49
621.269	1602.77
621.321	1586.5
621.373	1574.79
621.425	1578.33
621.477	1560.85
621.529	1593.92
621.581	1550.96
621.633	1558.56
621.685	1590.89
621.737	1599.95
621.789	1571.71
621.841	1575.21
621.893	1548.38
621.945	1590.68
621.997	1558.09
622.049	1605.07
622.101	1574.7
622.153	1630.8
622.205	1601.24
622.257	1564.43
622.309	1589.42
622.361	1573.28
622.413	1568.75
622.465	1582.92
622.517	1571.53
622.569	1581.27
622.621	1582.97
622.673	1606.86
622.725	1563.17
622.776	1588.18
622.828	1585.18
622.88	1561.24
622.932	1578.06
622.984	1574.03
623.036	1601.48
623.088	1553.47
623.14	1584.5
623.192	1569
623.244	1583.58
623.296	1613.09
623.348	1553.13
623.4	1595.17
623.452	1623.28
623.504	1584.27
623.556	1587.09
623.608	1603.91
623.66	1595.31
623.712	1608.66
623.764	1581.43
623.816	1611.82
623.868	1601.59
623.92	1560.07
623.972	1595.8
624.024	1624.55
624.076	1581.95
624.128	1631.56
624.18	1605.36
624.232	1579.35
624.284	1613.26
624.336	1573.77
624.388	1579.17
624.44	1593.77
624.492	1614.03
624.544	1608.87
624.596	1594.33
624.648	1595.65
624.699	1634.62
624.751	1605.93
624.803	1604.76
624.855	1613.95
624.907	1614.1
624.959	1628.05
625.011	1620.36
625.063	1597.89
625.115	1576.6
625.167	1588.4
625.219	1594.54
625.271	1612.14
625.323	1610.48
625.375	1607.76
625.427	1622.15
625.479	1597.87
625.531	1636.09
625.583	1626.46
625.635	1620.16
625.687	1639.93
625.739	1624.46
625.791	1609.02
625.843	1619.72
625.895	1604.38
625.946	1620.84
625.998	1638.47
626.05	1624.42
626.102	1625.17
626.154	1618.1
626.206	1626.98
626.258	1613.32
626.31	1632.55
626.362	1630.28
626.414	1632.52
626.466	1661.86
626.518	1634.5
626.57	1640.98
626.622	1655.23
626.674	1618.4
626.726	1640.25
626.778	1639.4
626.83	1634.09
626.882	1657.22
626.934	1640.02
626.985	1627.7
627.037	1646.17
627.089	1653.48
627.141	1672.03
627.193	1668.88
627.245	1682.35
627.297	1689.85
627.349	1693.76
627.401	1671.66
627.453	1669.99
627.505	1663.98
627.557	1689.71
627.609	1680.57
627.661	1693.96
627.713	1677.93
627.765	1673.01
627.817	1718.67
627.868	1695.51
627.92	1690.43
627.972	1709.09
628.024	1687.3
628.076	1716.21
628.128	1696.71
628.18	1680.54
628.232	1691.33
628.284	1681.89
628.336	1695.03
628.388	1706.08
628.44	1708.32
628.492	1709.58
628.544	1733.39
628.596	1721.2
628.647	1744.89
628.699	1715.64
628.751	1735.81
628.803	1707.63
628.855	1701.99
628.907	1752.62
628.959	1739.21
629.011	1734.79
629.063	1738.2
629.115	1747.15
629.167	1729.06
629.219	1716.55
629.271	1670.29
629.322	1727.42
629.374	1724.93
629.426	1786.41
629.478	1752.29
629.53	1716.96
629.582	1737.69
629.634	1741.51
629.686	1759.88
629.738	1749.06
629.79	1759.52
629.842	1759.88
629.894	1749.03
629.945	1756.13
629.997	1780.08
630.049	1754.94
630.101	1741.14
630.153	1757.68
630.205	1759.76
630.257	1769.65
630.309	1766.05
630.361	1776.85
630.413	1785.28
630.465	1783.57
630.517	1785.22
630.568	1786.94
630.62	1792.15
630.672	1776.3
630.724	1794.04
630.776	1795.09
630.828	1787.18
630.88	1786.97
630.932	1795.51
630.984	1794.93
631.036	1777.44
631.088	1796.57
631.14	1828.93
631.191	1816.74
631.243	1787.95
631.295	1814.89
631.347	1809.77
631.399	1815.94
631.451	1806.72
631.503	1777.62
631.555	1864.04
631.607	1826.1
631.659	1829.23
631.71	1766.85
631.762	1845.38
631.814	1806.22
631.866	1804.7
631.918	1860.71
631.97	1840.02
632.022	1862.42
632.074	1862.57
632.126	1831.78
632.178	1829.98
632.229	1850.6
632.281	1853.88
632.333	1868.53
632.385	1871.2
632.437	1842.89
632.489	1875.33
632.541	1820.1
632.593	1878.69
632.645	1854.1
632.696	1896.97
632.748	1890.07
632.8	1919.76
632.852	1898.6
632.904	1882.97
632.956	1914.83
633.008	1900.07
633.06	1900.62
633.112	1884.45
633.164	1914.65
633.215	1902.94
633.267	1934.49
633.319	1877.92
633.371	1890.01
633.423	1952.99
633.475	1957.48
633.527	1934.27
633.579	1977.14
633.63	1906.14
633.682	1928.84
633.734	1952.59
633.786	1925.63
633.838	1945.08
633.89	1943.65
633.942	1964.29
633.994	1952.89
634.046	1965.63
634.097	1980.46
634.149	1967.73
634.201	1950.68
634.253	1977.9
634.305	1983.42
634.357	1980.48
634.409	1966.81
634.461	1986.32
634.512	2012.47
634.564	1982.28
634.616	1999.27
634.668	2012.71
634.72	2014.87
634.772	2013.49
634.824	2039.47
634.876	1990.37
634.927	2016.16
634.979	2035.39
635.031	2029.46
635.083	2038.09
635.135	2089.93
635.187	2042.85
635.239	2094.94
635.291	2091.88
635.342	2074.28
635.394	2092.77
635.446	2100.04
635.498	2092.87
635.55	2092.33
635.602	2100.72
635.654	2112.57
635.705	2133.36
635.757	2166.34
635.809	2166.29
635.861	2165.07
635.913	2217.65
635.965	2210.74
636.017	2190.62
636.068	2191.49
636.12	2220.03
636.172	2185.02
636.224	2243.67
636.276	2254.01
636.328	2229.03
636.38	2284.04
636.431	2303.38
636.483	2303.53
636.535	2308.81
636.587	2332.63
636.639	2359.89
636.691	2385.35
636.743	2389.43
636.794	2408.34
636.846	2446.33
636.898	2445.01
636.95	2482.04
637.002	2480.35
637.054	2549.63
637.106	2556.91
637.157	2603.32
637.209	2592.39
637.261	2627.51
637.313	2676.99
637.365	2680.62
637.417	2729.45
637.469	2685.3
637.52	2740.98
637.572	2824.06
637.624	2819.42
637.676	2884.9
637.728	2874.81
637.78	2860.46
637.831	2931.74
637.883	2916.63
637.935	2964.1
637.987	3019.33
638.039	3031.8
638.091	3039.81
638.143	3054.22
638.194	3100.19
638.246	3140.37
638.298	3075
638.35	3093.72
638.402	3095.77
638.454	3121.81
638.505	3105.22
638.557	3075.71
638.609	3088.04
638.661	3131.29
638.713	3077.51
638.765	3068.79
638.816	3037.25
638.868	3024.33
638.92	3027.72
638.972	3034.17
639.024	3051.23
639.076	3012.19
639.127	3013.3
639.179	2945.49
639.231	2931.34
639.283	2910.95
639.335	2892.05
639.387	2904.08
639.438	2884.68
639.49	2906.8
639.542	2840.41
639.594	2801.16
639.646	2785.83
639.698	2793.4
639.749	2790.1
639.801	2745.33
639.853	2773.63
639.905	2759.17
639.957	2707.32
640.008	2743.59
640.06	2738.22
640.112	2714.35
640.164	2653.67
640.216	2646.82
640.268	2654.64
640.319	2634.6
640.371	2622.56
640.423	2619.43
640.475	2595.55
640.527	2607.47
640.578	2590.65
640.63	2542.8
640.682	2596.1
640.734	2596.63
640.786	2606.75
640.838	2549.16
640.889	2569.16
640.941	2544.62
640.993	2543.2
641.045	2468.88
641.097	2536.34
641.148	2540.42
641.2	2499.57
641.252	2527.14
641.304	2556.72
641.356	2528.57
641.408	2522.43
641.459	2539.52
641.511	2503.63
641.563	2488.66
641.615	2543.4
641.667	2506.46
641.718	2527.96
641.77	2492.47
641.822	2504.61
641.874	2515.6
641.926	2519.14
641.977	2468.65
642.029	2503.34
642.081	2500.31
642.133	2504
642.185	2492.5
642.236	2478.72
642.288	2485.4
642.34	2488.59
642.392	2507.9
642.444	2498.79
642.495	2471.15
642.547	2490.28
642.599	2441
642.651	2495.04
642.703	2508.87
642.754	2477
642.806	2483.04
642.858	2459.59
642.91	2458.78
642.962	2506.71
643.013	2482.99
643.065	2462.6
643.117	2471.58
643.169	2464.37
643.221	2503.77
643.272	2471.63
643.324	2456.74
643.376	2514.29
643.428	2488.45
643.479	2524.35
643.531	2459.86
643.583	2472.42
643.635	2480.98
643.687	2483.34
643.738	2472.9
643.79	2499.16
643.842	2476.5
643.894	2475.1
643.946	2516.54
643.997	2481.99
644.049	2521.83
644.101	2497.94
644.153	2470.99
644.205	2517.65
644.256	2509.54
644.308	2491.9
644.36	2531.51
644.412	2528.05
644.463	2544.05
644.515	2519.19
644.567	2532.19
644.619	2521.6
644.671	2494.9
644.722	2573.84
644.774	2538.39
644.826	2528.7
644.878	2525.42
644.929	2527.54
644.981	2561.02
645.033	2539.55
645.085	2525.61
645.136	2561.11
645.188	2557.56
645.24	2532.23
645.292	2528.4
645.344	2585.03
645.395	2561.14
645.447	2532.24
645.499	2565.09
645.551	2555.02
645.602	2588.12
645.654	2606.07
645.706	2564.64
645.758	2591.24
645.81	2545.69
645.861	2523.02
645.913	2567.55
645.965	2629.52
646.017	2567.05
646.068	2636.3
646.12	2611.02
646.172	2606.95
646.224	2587.34
646.275	2621.55
646.327	2602.52
646.379	2559.62
646.431	2597.9
646.482	2595.22
646.534	2591.7
646.586	2603.56
646.638	2613.46
646.689	2589.93
646.741	2642.06
646.793	2658.38
646.845	2645.33
646.896	2615.96
646.948	2600.66
647	2612.51
647.052	2572.61
647.104	2627.98
647.155	2633.56
647.207	2624.86
647.259	2646.11
647.31	2628.06
647.362	2649.73
647.414	2639.95
647.466	2616.25
647.518	2674.88
647.569	2609.72
647.621	2595.62
647.673	2665.9
647.724	2676.83
647.776	2685.44
647.828	2633.36
647.88	2654.4
647.931	2699.01
647.983	2671.32
648.035	2693.42
648.087	2651.1
648.138	2646.84
648.19	2706.45
648.242	2647.58
648.294	2712.69
648.345	2716.15
648.397	2678.37
648.449	2713.65
648.501	2704.48
648.552	2711.29
648.604	2702.9
648.656	2722.45
648.708	2717.21
648.759	2717.38
648.811	2721.96
648.863	2723.46
648.915	2689.66
648.966	2704.48
649.018	2718.37
649.07	2709.7
649.121	2727.8
649.173	2732.77
649.225	2714.93
649.277	2718.45
649.328	2736.97
649.38	2750.23
649.432	2743.26
649.484	2717.15
649.535	2758.77
649.587	2749.86
649.639	2730.03
649.69	2765.77
649.742	2789.47
649.794	2760.51
649.846	2783.1
649.897	2809.09
649.949	2767.84
650.001	2780.44
650.053	2772.9
650.104	2827.63
650.156	2818.11
650.208	2770.02
650.259	2772.3
650.311	2797.14
650.363	2804.94
650.415	2804.33
650.466	2841.42
650.518	2831.51
650.57	2857.09
650.621	2853.72
650.673	2835.19
650.725	2833.6
650.777	2859.64
650.828	2831.68
650.88	2875.4
650.932	2865.27
650.984	2832.6
651.035	2849.43
651.087	2864.36
651.139	2887.06
651.19	2865.99
651.242	2861.1
651.294	2878.72
651.345	2898.35
651.397	2850.16
651.449	2898.56
651.501	2896.56
651.552	2905.54
651.604	2905.17
651.656	2929.81
651.707	2964.28
651.759	2957.8
651.811	2926.27
651.863	2928.74
651.914	2898.53
651.966	2910.01
652.018	3018.22
652.069	2928.63
652.121	2953.28
652.173	2889.99
652.224	2948.43
652.276	2943.54
652.328	2983.92
652.38	2973.81
652.431	2977.79
652.483	2928.07
652.535	2989.39
652.586	2993.65
652.638	3003.14
652.69	2984.26
652.741	3001.54
652.793	3001.06
652.845	2998.04
652.897	2993.8
652.948	3023.1
653	3005.38
653.052	3023.66
653.103	3068.18
653.155	3042.86
653.207	3051.9
653.258	3051.97
653.31	2989.06
653.362	3038.74
653.413	3072.94
653.465	3038.05
653.517	3047.3
653.568	3045.98
653.62	3050.31
653.672	3072.1
653.724	3119.81
653.775	3069.8
653.827	3057.23
653.879	3103.43
653.93	3094.63
653.982	3142.53
654.034	3099.35
654.085	3104.67
654.137	3137.12
654.189	3174.15
654.24	3129.88
654.292	3132.53
654.344	3143.31
654.395	3122.52
654.447	3100.24
654.499	3163.24
654.55	3190.99
654.602	3151.76
654.654	3159.78
654.705	3154.11
654.757	3195.28
654.809	3158.48
654.86	3188.54
654.912	3229.1
654.964	3200.66
655.016	3150.29
655.067	3225.78
655.119	3227.34
655.17	3230.26
655.222	3196.07
655.274	3207.38
655.326	3264.02
655.377	3255.54
655.429	3232.93
655.481	3265.2
655.532	3278.2
655.584	3228.71
655.635	3241.91
655.687	3285.12
655.739	3281.24
655.79	3283.21
655.842	3298.3
655.894	3346.34
655.945	3318.01
655.997	3316.75
656.049	3305.42
656.1	3337.01
656.152	3375.8
656.204	3340.69
656.255	3352.39
656.307	3345.42
656.359	3387.23
656.41	3370.96
656.462	3386.17
656.514	3376.8
656.565	3369.32
656.617	3394.47
656.669	3409.22
656.72	3447.48
656.772	3422.91
656.824	3427.19
656.875	3429.68
656.927	3405.01
656.979	3468.06
657.03	3440.67
657.082	3433.58
657.134	3465.77
657.185	3462.2
657.237	3498.68
657.288	3467.17
657.34	3467.87
657.392	3498.59
657.443	3483.32
657.495	3528.01
657.547	3512.47
657.598	3504.61
657.65	3543.7
657.702	3479.72
657.753	3585.17
657.805	3548.13
657.857	3565.03
657.908	3537.46
657.96	3584.95
658.011	3557.34
658.063	3559.48
658.115	3590.43
658.166	3563.33
658.218	3551.17
658.27	3631.26
658.321	3640.17
658.373	3614.84
658.425	3626.35
658.476	3606.83
658.528	3612.69
658.579	3674.88
658.631	3647.98
658.683	3678.58
658.734	3651.86
658.786	3697.38
658.838	3650.32
658.889	3687.18
658.941	3674.1
658.992	3673.98
659.044	3688.03
659.096	3659.87
659.147	3716.17
659.199	3737.5
659.251	3695.87
659.302	3722.26
659.354	3710.97
659.406	3702.46
659.457	3737.34
659.509	3706.67
659.56	3753.59
659.612	3755.25
659.664	3691.37
659.715	3705.07
659.767	3681.1
659.818	3698.53
659.87	3752.19
659.922	3700.48
659.973	3677.83
660.025	3691.75
660.077	3718.85
660.128	3757.03
660.18	3737.09
660.231	3757.97
660.283	3760.96
660.335	3751.09
660.386	3708.91
660.438	3720.48
660.49	3744.13
660.541	3722.44
660.593	3751.5
660.644	3754.98
660.696	3771.44
660.748	3725.53
660.799	3729.84
660.851	3716.16
660.902	3755.42
660.954	3745.53
661.006	3760.81
661.057	3738.78
661.109	3741.13
661.16	3734.05
661.212	3737.71
661.264	3738.3
661.315	3761.15
661.367	3709.94
661.418	3721.15
661.47	3719.72
661.522	3706.78
661.573	3725.69
661.625	3707.81
661.676	3727.04
661.728	3697.78
661.78	3699.14
661.831	3690.94
661.883	3698.44
661.934	3760.57
661.986	3753.85
662.038	3722.55
662.089	3727.75
662.141	3749.41
662.192	3760.23
662.244	3694.19
662.296	3683.98
662.347	3722.34
662.399	3759.01
662.45	3689.29
662.502	3682.96
662.554	3728.31
662.605	3723.46
662.657	3718.44
662.708	3724.55
662.76	3678.87
662.811	3677.65
662.863	3707.33
662.915	3697.04
662.966	3695.12
663.018	3624.69
663.069	3704.92
663.121	3663.96
663.173	3684.18
663.224	3706.11
663.276	3678.47
663.327	3649.83
663.379	3690.68
663.43	3684.07
663.482	3670.52
663.534	3724.02
663.585	3704.28
663.637	3669.96
663.688	3681.61
663.74	3696.61
663.792	3676.07
663.843	3705.73
663.895	3690
663.946	3677.88
663.998	3671.91
664.049	3656.34
664.101	3656.49
664.153	3678.17
664.204	3705.79
664.256	3643.13
664.307	3625.55
664.359	3645.54
664.41	3697.64
664.462	3684.67
664.513	3655.89
664.565	3673.25
664.617	3637.96
664.668	3693.75
664.72	3683.77
664.771	3644.07
664.823	3653.13
664.874	3663.13
664.926	3638.64
664.978	3651.72
665.029	3645.95
665.081	3640.4
665.132	3656.38
665.184	3630.5
665.235	3652.11
665.287	3660.52
665.339	3676.18
665.39	3651.4
665.442	3631.46
665.493	3663.16
665.545	3640.78
665.596	3640.77
665.648	3681.03
665.699	3669.19
665.751	3676.78
665.802	3679.74
665.854	3645.14
665.906	3646.31
665.957	3656.3
666.009	3665.69
666.06	3652.68
666.112	3663.31
666.163	3669.71
666.215	3650.38
666.266	3673.4
666.318	3693.9
666.37	3662.32
666.421	3667.43
666.473	3662.38
666.524	3643
666.576	3654.35
666.627	3662.78
666.679	3655.62
666.73	3661.7
666.782	3647.8
666.833	3659.14
666.885	3656.29
666.937	3663.17
666.988	3675.81
667.04	3655.3
667.091	3661.64
667.143	3649.89
667.194	3680.98
667.246	3667.04
667.297	3655.87
667.349	3643.07
667.4	3657.75
667.452	3660.35
667.503	3645.28
667.555	3614.49
667.607	3626.87
667.658	3675.41
667.71	3668.01
667.761	3672.24
667.813	3668.32
667.864	3665.99
667.916	3643.71
667.967	3645.08
668.019	3653.39
668.07	3647.16
668.122	3638.79
668.173	3638.47
668.225	3665.41
668.276	3681.67
668.328	3618.69
668.379	3629.08
668.431	3641.87
668.482	3643.98
668.534	3649.17
668.586	3640.93
668.637	3698.59
668.689	3681.73
668.74	3667.39
668.792	3654.27
668.843	3653
668.895	3660.67
668.935	3648.18
668.987	3643.06
669.038	3677.99
669.09	3626.7
669.142	3649.37
669.194	3671.75
669.245	3734.36
669.297	3653.52
669.349	3671.6
669.401	3681.43
669.453	3704.22
669.504	3696.32
669.556	3655.59
669.608	3698.94
669.66	3655.56
669.711	3687.29
669.763	3692.32
669.815	3666.32
669.867	3718.41
669.918	3689.47
669.97	3644.82
670.022	3713.76
670.074	3670.94
670.125	3709.41
670.177	3652.69
670.229	3686.44
670.281	3711.68
670.332	3698.71
670.384	3679.93
670.436	3677.38
670.488	3679.49
670.539	3695.81
670.591	3730.72
670.643	3693.85
670.695	3652.74
670.747	3702.15
670.798	3706.51
670.85	3782.58
670.902	3697.07
670.953	3732.62
671.005	3672.64
671.057	3671.47
671.109	3724.76
671.161	3652.73
671.212	3686.49
671.264	3704.17
671.316	3672.32
671.367	3669.81
671.419	3691.54
671.471	3639.08
671.523	3697.07
671.575	3680.99
671.626	3709.26
671.678	3632.93
671.73	3691.88
671.781	3688.92
671.833	3682.64
671.885	3720.16
671.937	3713.46
671.988	3716.06
672.04	3684.11
672.092	3732.98
672.144	3719.24
672.195	3686.88
672.247	3743.74
672.299	3678
672.351	3703.21
672.402	3720.72
672.454	3735.73
672.506	3732.58
672.558	3767.99
672.609	3738.5
672.661	3697.68
672.713	3735.5
672.765	3731.54
672.816	3704.45
672.868	3680.17
672.92	3731.67
672.971	3683.39
673.023	3743.28
673.075	3737.29
673.127	3704.44
673.178	3740.88
673.23	3706.16
673.282	3741.79
673.334	3721.61
673.385	3739.98
673.437	3737.27
673.489	3736.17
673.54	3812.6
673.592	3714.17
673.644	3744.65
673.696	3776.45
673.747	3721.49
673.799	3790.44
673.851	3763.09
673.903	3732.64
673.954	3756.96
674.006	3761.27
674.058	3802.58
674.109	3749.32
674.161	3766.36
674.213	3807.05
674.265	3774.05
674.316	3778.12
674.368	3816.11
674.42	3752.74
674.471	3803.13
674.523	3753.73
674.575	3818.4
674.627	3754.8
674.678	3783.63
674.73	3809.82
674.782	3780.47
674.833	3824.17
674.885	3843.72
674.937	3835.89
674.989	3835.83
675.04	3849.92
675.092	3819.72
675.144	3849.59
675.195	3825.38
675.247	3820.3
675.299	3820.88
675.351	3860.97
675.402	3820.87
675.454	3874.62
675.506	3899.51
675.557	3862.51
675.609	3858.55
675.661	3849.5
675.713	3860.13
675.764	3861.54
675.816	3856.79
675.868	3854.13
675.919	3839.11
675.971	3893.48
676.023	3876.57
676.074	3855.59
676.126	3896.83
676.178	3849
676.23	3876.87
676.281	3901.71
676.333	3938.09
676.385	3895.68
676.436	3938.57
676.488	3898.36
676.54	3895.53
676.591	3909.24
676.643	3949.86
676.695	3871.5
676.747	3946.2
676.798	3969.76
676.85	3936.98
676.902	3922.03
676.953	3950.05
677.005	3937.51
677.057	3934.52
677.108	3907.55
677.16	3984.24
677.212	3947.82
677.263	3902.83
677.315	3969.86
677.367	3930.77
677.419	3975.43
677.47	3968.51
677.522	3963.61
677.574	4022.8
677.625	3954.89
677.677	3995.31
677.729	3901.09
677.78	3968.81
677.832	3955.37
677.884	3907.05
677.935	3990.35
677.987	3957.92
678.039	3942.57
678.091	4004.45
678.142	3963.06
678.194	3962.61
678.246	3999.7
678.297	3987.58
678.349	3968.55
678.401	3979.83
678.452	3995.44
678.504	3988.27
678.556	3992.32
678.607	4010.66
678.659	4014.46
678.711	4012.75
678.762	4008.27
678.814	3942.64
678.866	4021.04
678.917	4020.63
678.969	3975.68
679.021	4023.91
679.072	4039.78
679.124	4021.16
679.176	4004.79
679.227	4011.48
679.279	4013.56
679.331	4001.5
679.382	3983.87
679.434	4027.32
679.486	4010.88
679.537	3991.61
679.589	4042.1
679.641	4002.18
679.692	4024.29
679.744	3989.4
679.796	4006.9
679.847	4015.89
679.899	4014.43
679.951	4042.58
680.003	3989.06
680.054	4017.64
680.106	3994.8
680.157	4003.32
680.209	4022.07
680.261	4000.63
680.312	4009.33
680.364	4022.01
680.416	3996.89
680.467	4017.84
680.519	4010.57
680.571	4038.89
680.622	4023.35
680.674	4036.08
680.726	4002.97
680.777	4010.76
680.829	4026.11
680.881	4050.12
680.932	4019.16
680.984	4048.87
681.036	4065
681.087	4062.05
681.139	4029.38
681.191	4051.24
681.242	4024.56
681.294	4033.92
681.346	4012.21
681.397	4040.95
681.449	4017.66
681.501	4010.97
681.552	3978.17
681.604	4067.36
681.656	4068.36
681.707	4108.46
681.759	4035.7
681.81	4060.9
681.862	4005.59
681.914	4053.88
681.965	4036.91
682.017	4057.74
682.069	4091.66
682.12	4070.24
682.172	4042.11
682.224	4043.39
682.275	4048.94
682.327	4096.97
682.379	4128.12
682.43	4071.57
682.482	4077.88
682.533	4080.56
682.585	4090.06
682.637	4081.6
682.688	4086.56
682.74	4082.33
682.792	4048.44
682.843	4046.25
682.895	4064.4
682.947	4103.87
682.998	4076.25
683.05	4090.29
683.102	4101.16
683.153	4063.02
683.205	4046.54
683.256	4109.05
683.308	4089.54
683.36	4107.76
683.411	4070.09
683.463	4129.55
683.515	4093.33
683.566	4050.78
683.618	4125.85
683.669	4103.46
683.721	4133.75
683.773	4074.68
683.824	4121.61
683.876	4154.65
683.928	4098.92
683.979	4062.27
684.031	4057.45
684.082	4131.53
684.134	4070.33
684.186	4115.92
684.237	4089.34
684.289	4097.99
684.341	4053.92
684.392	4140.29
684.444	4095.72
684.495	4117.18
684.547	4086.64
684.599	4078.5
684.65	4143.06
684.702	4081.18
684.754	4104.31
684.805	4123.23
684.857	4064.29
684.908	4140.45
684.96	4103.91
685.012	4097.43
685.063	4061.16
685.115	4108.63
685.166	4061.25
685.218	4120.83
685.27	4045.8
685.321	4049.56
685.373	4094.38
685.424	4069.03
685.476	4084.91
685.528	4073.72
685.579	4060.6
685.631	4059.08
685.683	4061.71
685.734	4044.25
685.786	4099.22
685.837	4032.26
685.889	4008.48
685.941	4033.2
685.992	4075.93
686.044	4071.4
686.095	4104.67
686.147	4085.16
686.199	4066.45
686.25	3986.47
686.302	4034.65
686.353	4058.53
686.405	4037.14
686.457	4036.82
686.508	4043.9
686.56	4068.92
686.611	4079.31
686.663	4069.86
686.715	4034.32
686.766	4047.35
686.818	3985.79
686.869	4075.63
686.921	4047.34
686.973	4043.79
687.024	4044.89
687.076	4028.6
687.127	4092.86
687.179	4037.26
687.231	4048.09
687.282	4031.02
687.334	4033.37
687.385	4004.68
687.437	4031.83
687.489	4025.43
687.54	4077.6
687.592	4013
687.643	4065.5
687.695	4029.53
687.747	3970.22
687.798	3988.26
687.85	4048.12
687.901	4057.86
687.953	3980.08
688.004	4027.26
688.056	3999.63
688.108	4013.17
688.159	3971.51
688.211	4045.95
688.262	3963.42
688.314	3968.61
688.366	4034.4
688.417	4017.64
688.469	3979.08
688.52	4027.5
688.572	4016.43
688.623	4028.37
688.675	4010.91
688.727	4004.79
688.778	3951.48
688.83	4010.07
688.881	4010.09
688.933	3989.23
688.984	3978.78
689.036	3987
689.088	4017.98
689.139	4016.32
689.191	4010.39
689.242	4001.52
689.294	3977.43
689.346	3934.09
689.397	3964.59
689.449	3978.85
689.5	3975.51
689.552	3972.02
689.603	3990.13
689.655	4055.94
689.706	4016.46
689.758	3961.98
689.81	3931.52
689.861	3988.15
689.913	4016.71
689.964	3995.18
690.016	4019.91
690.067	4056.16
690.119	4003.13
690.171	4016.99
690.222	3949.92
690.274	3985.62
690.325	3964.88
690.377	3990.7
690.428	3964.64
690.48	4036.76
690.531	3989.65
690.583	3982.63
690.635	3986.02
690.686	3996.39
690.738	3978.86
690.789	3949.23
690.841	3912.96
690.892	3996.73
690.944	3968.16
690.996	3970.7
691.047	3990.74
691.099	3997.57
691.15	3977.12
691.202	3964.92
691.253	3969.23
691.305	3992.11
691.356	3989.31
691.408	3947.27
691.459	3970.95
691.511	3983.17
691.563	3985.93
691.614	3923.88
691.666	3969.53
691.717	3996.63
691.769	3924.59
691.82	3937.03
691.872	3949.33
691.923	3943.68
691.975	3947.78
692.026	3975.5
692.078	3934.62
692.13	3937.52
692.181	3944.96
692.233	3967.49
692.284	3980.57
692.336	3954.29
692.387	3923.52
692.439	3888.2
692.49	3923.84
692.542	3938.21
692.593	3918.79
692.645	3907.21
692.697	3945.02
692.748	3894.9
692.8	3901.29
692.851	3912.82
692.903	3970.78
692.954	3922.61
693.006	3897.23
693.057	3896.9
693.109	3921.85
693.16	3936.14
693.212	3877.18
693.263	3917.79
693.315	3892.87
693.366	3957.95
693.418	3900.72
693.47	3928.84
693.521	3858.62
693.573	3896.91
693.624	3923.08
693.676	3891.23
693.727	3924.2
693.779	3902.53
693.83	3889.33
693.882	3916.75
693.933	3924.13
693.985	3866.76
694.036	3925.06
694.088	3864.16
694.139	3917.7
694.191	3881.47
694.242	3895.18
694.294	3872.16
694.345	3890.38
694.397	3848.41
694.448	3920.58
694.5	3880.46
694.552	3883.11
694.603	3912.59
694.655	3907.04
694.706	3896.47
694.758	3883.09
694.809	3897.91
694.861	3874.59
694.912	3850.35
694.964	3922.32
695.015	3872.15
695.067	3881.6
695.118	3868.36
695.17	3873.23
695.221	3908.14
695.273	3885.38
695.324	3848.79
695.376	3860.44
695.427	3882.72
695.479	3912.38
695.53	3901.2
695.582	3841.79
695.633	3828.62
695.685	3895.13
695.736	3890.14
695.788	3885.44
695.839	3835.81
695.891	3910.82
695.942	3887.95
695.994	3870.26
696.045	3909.41
696.097	3865.58
696.148	3892.79
696.2	3871.62
696.251	3860.27
696.303	3880.29
696.354	3874.54
696.406	3803.02
696.457	3876.16
696.509	3817.63
696.56	3881.26
696.612	3894.21
696.663	3898.59
696.715	3857.5
696.766	3898.65
696.818	3849.78
696.869	3879.92
696.921	3854.73
696.972	3892.5
697.024	3924.99
697.075	3868.49
697.127	3899.99
697.178	3843.27
697.23	3867.81
697.281	3864.99
697.333	3846.94
697.384	3861.84
697.436	3889.24
697.487	3861.56
697.539	3825.53
697.59	3896.72
697.642	3855.18
697.693	3860.2
697.745	3858.13
697.796	3855.61
697.847	3880.34
697.899	3869.04
697.95	3825.19
698.002	3867.35
698.053	3861.42
698.105	3845.45
698.156	3835.59
698.208	3891.09
698.259	3839.06
698.311	3837.12
698.362	3818.37
698.414	3844.75
698.465	3866.89
698.517	3859.52
698.568	3830.32
698.62	3785.8
698.671	3808.51
698.723	3819.1
698.774	3806.57
698.826	3816.14
698.877	3812.57
698.928	3834.47
698.98	3777.02
699.031	3808.99
699.083	3819.98
699.134	3816.55
699.186	3782.09
699.237	3842.47
699.289	3810.96
699.34	3823.4
699.392	3729.49
699.443	3814.29
699.495	3824.78
699.546	3822.88
699.598	3782.18
699.649	3791.14
699.7	3812.35
699.752	3746.64
699.803	3774.02
699.855	3763.26
699.906	3778.37
699.958	3733.12
700.009	3803.99
700.061	3737.76
700.112	3773.84
700.164	3788.22
700.215	3786.31
700.266	3790.24
700.318	3707.53
700.369	3800.14
700.421	3758.42
700.472	3770.26
700.524	3728.94
700.575	3743.5
700.627	3743.13
700.678	3792.44
700.73	3722.28
700.781	3803.56
700.832	3767.21
700.884	3771.14
700.935	3755.16
700.987	3742.87
701.038	3724.69
701.09	3734.75
701.141	3726.58
701.193	3769.12
701.244	3741.91
701.295	3685.4
701.347	3697.57
701.398	3759.85
701.45	3742.72
701.501	3767.56
701.553	3768.62
701.604	3733.91
701.656	3719.42
701.707	3759.08
701.758	3701.11
701.81	3751.98
701.861	3756.65
701.913	3779.86
701.964	3730.29
702.016	3739.74
702.067	3749.92
702.119	3780.68
702.17	3719.05
702.221	3734.4
702.273	3740.16
702.324	3736.51
702.376	3731.11
702.427	3698.58
702.479	3706.71
702.53	3738.8
702.581	3739.82
702.633	3739.44
702.684	3775.15
702.736	3740.78
702.787	3709.01
702.839	3780.93
702.89	3727.14
702.941	3774.67
702.993	3761.86
703.044	3768.64
703.096	3759.73
703.147	3733.01
703.199	3737.07
703.25	3735.91
703.301	3764.96
703.353	3730.73
703.404	3749.79
703.456	3742.57
703.507	3712.01
703.558	3725.15
703.61	3763.18
703.661	3768.76
703.713	3699.01
703.764	3711.16
703.816	3731.49
703.867	3738.02
703.918	3767.24
703.97	3745.87
704.021	3775.51
704.073	3760.5
704.124	3789.39
704.175	3733.26
704.227	3766.64
704.278	3758.64
704.33	3810.71
704.381	3756.3
704.432	3762.34
704.484	3742.07
704.535	3727.62
704.587	3752.28
704.638	3769.12
704.69	3788.1
704.741	3763.45
704.792	3700.74
704.844	3702.84
704.895	3760.96
704.947	3729.68
704.998	3748.8
705.049	3711.89
705.101	3738.83
705.152	3751.19
705.204	3717.53
705.255	3743.4
705.306	3735.64
705.358	3731.33
705.409	3775.5
705.461	3706.07
705.512	3745.97
705.563	3762.29
705.615	3678.12
705.666	3752.95
705.718	3768.75
705.769	3708.31
705.82	3709.52
705.872	3675.24
705.923	3723.38
705.974	3717.35
706.026	3686.89
706.077	3701.24
706.129	3703.82
706.18	3689.87
706.231	3698.78
706.283	3684.8
706.334	3686.3
706.386	3699.83
706.437	3701.63
706.488	3706.72
706.54	3771.22
706.591	3698.12
706.643	3684.59
706.694	3707.78
706.745	3741.27
706.797	3663.67
706.848	3694.31
706.899	3713.19
706.951	3636.76
707.002	3662.05
707.054	3675.79
707.105	3677.99
707.156	3707.53
707.208	3684.12
707.259	3681.1
707.31	3675.64
707.362	3696.53
707.413	3695.79
707.465	3636.81
707.516	3699.73
707.567	3654.96
707.619	3704.27
707.67	3679.76
707.721	3663.85
707.773	3640.67
707.824	3670.13
707.876	3682.44
707.927	3674.35
707.978	3654
708.03	3650.11
708.081	3660.29
708.132	3687.84
708.184	3656.79
708.235	3715.3
708.287	3680.53
708.338	3677.82
708.389	3669.26
708.441	3636.43
708.492	3642.61
708.543	3655.5
708.595	3693.42
708.646	3613.6
708.697	3605.93
708.749	3638.28
708.8	3648.73
708.852	3662.89
708.903	3616.64
708.954	3668.84
709.006	3645.92
709.057	3648.95
709.108	3615.54
709.16	3642.1
709.211	3647.71
709.262	3629.81
709.314	3619.38
709.365	3616.41
709.416	3615.18
709.468	3626.18
709.519	3641.49
709.57	3641.7
709.622	3688.15
709.673	3624.31
709.725	3611.77
709.776	3610.27
709.827	3632.48
709.879	3634.4
709.93	3600.71
709.981	3620.03
710.033	3614.78
710.084	3614.96
710.135	3658.88
710.187	3640.37
710.238	3631.38
710.289	3616.98
710.341	3592.45
710.392	3621.32
710.443	3624.48
710.495	3629.5
710.546	3675.79
710.597	3628.81
710.649	3640.9
710.7	3566.01
710.751	3612.22
710.803	3666.89
710.854	3600.85
710.905	3637.14
710.957	3644.32
711.008	3641.06
711.059	3613.56
711.111	3617.9
711.162	3594.77
711.213	3626.86
711.265	3673.37
711.316	3603.01
711.367	3598.31
711.419	3581.97
711.47	3623.24
711.521	3639.2
711.573	3654.85
711.624	3597.33
711.675	3600.52
711.727	3602.12
711.778	3605.54
711.829	3598.2
711.881	3623.01
711.932	3605.99
711.983	3626.11
712.035	3589.83
712.086	3588.91
712.137	3615.14
712.189	3608.28
712.24	3603.98
712.291	3588.79
712.343	3589.06
712.394	3607.56
712.445	3597.35
712.496	3599.09
712.548	3586.01
712.599	3596.24
712.65	3602.96
712.702	3603.5
712.753	3560.51
712.804	3596.08
712.856	3576.96
712.907	3612.04
712.958	3584.68
713.01	3583.8
713.061	3588.32
713.112	3566.6
713.164	3590.58
713.215	3579.03
713.266	3568.47
713.317	3557.61
713.369	3576.43
713.42	3538.36
713.471	3566.07
713.523	3563
713.574	3548.01
713.625	3561.79
713.677	3551.4
713.728	3553.8
713.779	3524.79
713.831	3535.1
713.882	3570.66
713.933	3536.38
713.984	3536.17
714.036	3535.58
714.087	3529.62
714.138	3534.27
714.19	3513.42
714.241	3537.04
714.292	3509.56
714.343	3525.86
714.395	3537.44
714.446	3518.3
714.497	3546.2
714.549	3517.23
714.6	3527.87
714.651	3517.05
714.703	3503.08
714.754	3513.96
714.805	3519.82
714.856	3498.7
714.908	3515.7
714.959	3509.83
715.01	3460.47
715.062	3481.35
715.113	3491.71
715.164	3470.95
715.215	3469.28
715.267	3487.54
715.318	3490.54
715.369	3467.98
715.421	3439.59
715.472	3448.09
715.523	3464.71
715.574	3470.64
715.626	3480.57
715.677	3461.82
715.728	3457.41
715.779	3446.84
715.831	3451.63
715.882	3434.57
715.933	3431.89
715.985	3442.98
716.036	3468.62
716.087	3419.05
716.138	3408.23
716.19	3419.49
716.241	3424.19
716.292	3449.21
716.343	3411.17
716.395	3422.44
716.433	3458.79
716.485	3419.02
716.536	3348
716.588	3410.64
716.639	3418.75
716.691	3374.59
716.742	3416.06
716.794	3385.28
716.845	3390.94
716.897	3439.17
716.948	3386.93
717	3355.49
717.052	3449.07
717.103	3356.86
717.155	3346.87
717.206	3417.78
717.258	3388.12
717.309	3394.94
717.361	3390.44
717.412	3344.11
717.464	3308.86
717.515	3331.54
717.567	3355.88
717.618	3374.54
717.67	3356.65
717.721	3370.72
717.773	3369.84
717.824	3351.36
717.876	3363.2
717.927	3389.47
717.979	3365.16
718.03	3363.03
718.082	3300.88
718.133	3381.92
718.185	3361.45
718.237	3324.31
718.288	3351.7
718.34	3363.28
718.391	3354.98
718.443	3304.21
718.494	3376.38
718.546	3384.73
718.597	3308.26
718.649	3331.57
718.7	3368.42
718.752	3320.17
718.803	3335.5
718.855	3310.58
718.906	3391.4
718.958	3341.38
719.009	3306.38
719.061	3339.61
719.112	3340.53
719.164	3263.01
719.215	3316.87
719.267	3343.09
719.318	3294.37
719.37	3293.85
719.421	3341.68
719.473	3297.49
719.524	3289.61
719.576	3330.68
719.627	3273.85
719.679	3312.12
719.73	3290.9
719.782	3314.76
719.833	3351.16
719.885	3342.48
719.936	3286.01
719.988	3343.13
720.039	3313.54
720.091	3319.93
720.142	3302.22
720.194	3237.94
720.245	3267.68
720.297	3285.06
720.348	3280.15
720.4	3265.55
720.451	3312.81
720.503	3257.19
720.554	3278.24
720.606	3286.56
720.657	3251.8
720.709	3287.35
720.76	3239.53
720.812	3278.64
720.863	3315.22
720.915	3241.95
720.966	3307.43
721.018	3261.6
721.069	3215.53
721.121	3267.87
721.172	3252.02
721.224	3193.46
721.275	3254.19
721.327	3262.37
721.378	3272.24
721.43	3265.83
721.481	3242.78
721.532	3249.79
721.584	3214.42
721.635	3234.52
721.687	3257.02
721.738	3213.6
721.79	3211.21
721.841	3238.61
721.893	3258.9
721.944	3199.3
721.996	3208.52
722.047	3175.46
722.099	3219.83
722.15	3235.61
722.202	3241.89
722.253	3233.65
722.305	3217.47
722.356	3157.76
722.408	3220.98
722.459	3170.65
722.511	3220.42
722.562	3144.93
722.614	3221.84
722.665	3214.07
722.716	3182.96
722.768	3243.92
722.819	3181.71
722.871	3182.47
722.922	3143.79
722.974	3199.2
723.025	3167.64
723.077	3175.98
723.128	3203.46
723.18	3152.08
723.231	3161.96
723.283	3135.38
723.334	3118.84
723.386	3154.99
723.437	3133.31
723.488	3178.68
723.54	3149.37
723.591	3172.59
723.643	3065.42
723.694	3165.3
723.746	3138.96
723.797	3111.59
723.849	3082.14
723.9	3160.13
723.952	3117.73
724.003	3120.78
724.055	3160.1
724.106	3146.52
724.157	3126.31
724.209	3120.12
724.26	3135.83
724.312	3115.38
724.363	3118.21
724.415	3074.41
724.466	3140.43
724.518	3070.24
724.569	3095.54
724.621	3114.11
724.672	3133.87
724.723	3088.9
724.775	3085.56
724.826	3112.24
724.878	3100.23
724.929	3052.04
724.981	3102.52
725.032	3098.63
725.084	3101.34
725.135	3083.42
725.187	3102.01
725.238	3136.31
725.289	3099.04
725.341	3073.34
725.392	3074.83
725.444	3081.36
725.495	3074.71
725.547	3047.08
725.598	3087.18
725.65	3080.19
725.701	3103.07
725.752	3070.97
725.804	3067.5
725.855	3061.44
725.907	3063.37
725.958	2998.95
726.01	3047.26
726.061	3029.25
726.112	3031.11
726.164	3023.95
726.215	3058.73
726.267	3029.21
726.318	3092.66
726.37	3099.54
726.421	3057.63
726.473	3053.61
726.524	3075.79
726.575	3099.33
726.627	3034.95
726.678	3040.63
726.73	3067.84
726.781	3049.4
726.833	2996.9
726.884	3044.75
726.935	3078
726.987	3011.76
727.038	3017.99
727.09	3016.16
727.141	3051.57
727.193	3055.49
727.244	3051.81
727.295	3064.35
727.347	3015.73
727.398	3024.11
727.45	3053.43
727.501	2982.15
727.552	3047.82
727.604	3027.57
727.655	2984.25
727.707	3051.65
727.758	3004.05
727.81	3026.09
727.861	2980.28
727.912	2997.88
727.964	3017.56
728.015	2988.4
728.067	3009.41
728.118	2970.26
728.17	3023.74
728.221	3024.33
728.272	2964.94
728.324	3011.38
728.375	3014.22
728.427	2983.12
728.478	2996.68
728.529	3033.52
728.581	2974.69
728.632	3004.05
728.684	2940.18
728.735	2960.41
728.786	2974.06
728.838	2962.12
728.889	2948.98
728.941	2979.46
728.992	2945.82
729.044	2958.1
729.095	2965.67
729.146	2915.13
729.198	2943.12
729.249	2965.2
729.301	2907.94
729.352	2953.47
729.403	2943.57
729.455	2953.58
729.506	2945.16
729.558	2931.75
729.609	2891.05
729.66	2903.63
729.712	2930.85
729.763	2945.04
729.815	2936.55
729.866	2915.17
729.917	2866.08
729.969	2859.83
730.02	2899.5
730.072	2956.35
730.123	2954.58
730.174	2932.5
730.226	2873.21
730.277	2910.46
730.329	2871.22
730.38	2920.04
730.431	2896.3
730.483	2884.63
730.534	2907.44
730.586	2928.96
730.637	2874.48
730.688	2870.36
730.74	2880.54
730.791	2907.69
730.842	2875.11
730.894	2871.47
730.945	2861.8
730.997	2854.38
731.048	2913.38
731.099	2919.2
731.151	2888.8
731.202	2911.6
731.254	2838.57
731.305	2813.26
731.356	2818.88
731.408	2887.47
731.459	2842.99
731.51	2855.74
731.562	2885.22
731.613	2885.27
731.665	2892.22
731.716	2876.61
731.767	2810.32
731.819	2841.81
731.87	2867.42
731.922	2866.17
731.973	2847.95
732.024	2826.91
732.076	2832.59
732.127	2835.67
732.178	2846.04
732.23	2800.61
732.281	2839.61
732.333	2860.62
732.384	2821.38
732.435	2858
732.487	2814.43
732.538	2833.93
732.589	2825.07
732.641	2825.83
732.692	2857.37
732.744	2821.27
732.795	2813.35
732.846	2836.52
732.898	2793.67
732.949	2831.27
733	2852.09
733.052	2816.5
733.103	2854.14
733.154	2751.9
733.206	2821.61
733.257	2789.51
733.309	2815.15
733.36	2774.39
733.411	2798.57
733.463	2790.29
733.514	2773.55
733.565	2790.7
733.617	2792.3
733.668	2785.41
733.719	2861.86
733.771	2808.4
733.822	2839.79
733.873	2785.1
733.925	2726.31
733.976	2809.02
734.028	2783.03
734.079	2795.27
734.13	2769.21
734.182	2792.47
734.233	2756.02
734.284	2804.26
734.336	2757.53
734.387	2760.36
734.438	2737.88
734.49	2792.12
734.541	2741.88
734.592	2813.67
734.644	2726.9
734.695	2769.08
734.747	2757.32
734.798	2744.02
734.849	2761.85
734.901	2752.66
734.952	2790.28
735.003	2728.45
735.055	2702.02
735.106	2730.9
735.157	2752.55
735.209	2751.32
735.26	2774.09
735.311	2758.34
735.363	2748.13
735.414	2767.63
735.465	2737.34
735.517	2746.84
735.568	2755.02
735.619	2713.67
735.671	2718
735.722	2688.49
735.773	2687.62
735.825	2750.87
735.876	2783
735.927	2698.58
735.979	2722.07
736.03	2745.3
736.081	2699.85
736.133	2739.28
736.184	2670.2
736.235	2747.26
736.287	2689.18
736.338	2717.86
736.389	2688.55
736.441	2665.23
736.492	2683.37
736.543	2698.93
736.595	2727.48
736.646	2715.07
736.697	2682.98
736.749	2690.78
736.8	2674.54
736.851	2703.74
736.903	2667.46
736.954	2675.02
737.005	2696.58
737.057	2733.61
737.108	2719.4
737.159	2702.4
737.211	2691.18
737.262	2662.99
737.313	2654.73
737.365	2642.09
737.416	2636.35
737.467	2650.22
737.518	2699.31
737.57	2679.9
737.621	2633.39
737.672	2665.04
737.724	2650.06
737.775	2648.2
737.826	2700.64
737.878	2676.78
737.929	2619.01
737.98	2642.15
738.032	2692.08
738.083	2686.37
738.134	2613.65
738.186	2642.94
738.237	2632.4
738.288	2593.52
738.339	2638.47
738.391	2655.2
738.442	2625.27
738.493	2567.06
738.545	2609.57
738.596	2630.75
738.647	2599.35
738.699	2634.48
738.75	2617.03
738.801	2615.11
738.853	2572.09
738.904	2587.25
738.955	2646.42
739.006	2632.06
739.058	2613.58
739.109	2644.75
739.16	2581.03
739.212	2600.87
739.263	2565.4
739.314	2627.61
739.366	2589.21
739.417	2642.83
739.468	2556.21
739.519	2561.61
739.571	2525.92
739.622	2548.3
739.673	2570.77
739.725	2580.7
739.776	2579.57
739.827	2599.97
739.878	2588.05
739.93	2596.07
739.981	2557.27
740.032	2556.54
740.084	2581.05
740.135	2586.79
740.186	2549.68
740.237	2516.61
740.289	2548.59
740.34	2604.55
740.391	2542.88
740.443	2550.71
740.494	2578.53
740.545	2534.41
740.596	2565.73
740.648	2549.33
740.699	2547.47
740.75	2509
740.802	2561.32
740.853	2559.61
740.904	2547.65
740.956	2542.4
741.007	2585.08
741.058	2560.83
741.109	2545.05
741.161	2556.31
741.212	2522.31
741.263	2536.76
741.314	2568.4
741.366	2539.1
741.417	2521.2
741.468	2551.61
741.52	2555.04
741.571	2531.45
741.622	2522.08
741.673	2545.42
741.725	2521.86
741.776	2532.43
741.827	2496.01
741.878	2543.44
741.93	2519.55
741.981	2454.21
742.032	2491.24
742.083	2518.26
742.135	2508.36
742.186	2524.29
742.237	2506.29
742.289	2505.62
742.34	2446.65
742.391	2466.03
742.442	2556.58
742.494	2482.91
742.545	2485.99
742.596	2520.27
742.647	2533.08
742.699	2464.66
742.75	2487.66
742.801	2496.58
742.852	2452.86
742.904	2493.4
742.955	2468.31
743.006	2496.01
743.057	2509.41
743.109	2477.09
743.16	2470.53
743.211	2465.47
743.263	2443.33
743.314	2475.57
743.365	2467.78
743.416	2485.72
743.468	2512.21
743.519	2498.57
743.57	2457.67
743.621	2442.47
743.672	2435.8
743.724	2477.74
743.775	2420.72
743.826	2435.31
743.878	2431.3
743.929	2434.57
743.98	2417.93
744.031	2394.24
744.083	2430.83
744.134	2465.89
744.185	2401.65
744.236	2479.18
744.287	2444.44
744.339	2438.25
744.39	2407.73
744.441	2430.58
744.492	2376.35
744.544	2398.62
744.595	2432.77
744.646	2445.56
744.697	2420.85
744.749	2397.25
744.8	2427.93
744.851	2402.14
744.902	2386.11
744.954	2397.22
745.005	2403.96
745.056	2394.95
745.107	2394.74
745.159	2383.29
745.21	2442.6
745.261	2424.6
745.312	2396.76
745.363	2417.96
745.415	2395.93
745.466	2344.87
745.517	2372.71
745.568	2398.77
745.62	2394.32
745.671	2388.32
745.722	2376.62
745.773	2393.89
745.824	2391.22
745.876	2349.8
745.927	2404.97
745.978	2393.79
746.029	2347.86
746.081	2381
746.132	2382.25
746.183	2358.9
746.234	2347.04
746.285	2382.76
746.337	2342.21
746.388	2346.45
746.439	2347.97
746.49	2356.85
746.542	2337.08
746.593	2362.1
746.644	2333.84
746.695	2296.88
746.746	2357.84
746.798	2332.07
746.849	2346.41
746.9	2335.97
746.951	2325.35
747.003	2326.2
747.054	2312.73
747.105	2302.42
747.156	2324.17
747.207	2331.9
747.259	2335.58
747.31	2339.32
747.361	2345.74
747.412	2293.98
747.463	2345.51
747.515	2338.78
747.566	2317.3
747.617	2288.59
747.668	2284.63
747.719	2278.25
747.771	2322.73
747.822	2298.54
747.873	2301.89
747.924	2287.94
747.975	2259.42
748.027	2273.86
748.078	2291.01
748.129	2283.6
748.18	2293.5
748.231	2296.29
748.283	2309.26
748.334	2277.66
748.385	2243.16
748.436	2296.44
748.487	2302.16
748.539	2274.75
748.59	2287.73
748.641	2264.88
748.692	2298.47
748.743	2280.53
748.795	2304.69
748.846	2264.23
748.897	2222.4
748.948	2270.03
748.999	2272.75
749.05	2247.71
749.102	2254.08
749.153	2286.11
749.204	2257.06
749.255	2265.36
749.306	2269.19
749.358	2267.25
749.409	2266.87
749.46	2204.59
749.511	2249.47
749.562	2271.48
749.614	2292.22
749.665	2256.63
749.716	2257.11
749.767	2242.97
749.818	2279.3
749.869	2230.18
749.921	2214.31
749.972	2225.99
750.023	2233.44
750.074	2236.68
750.125	2242.93
750.177	2255.05
750.228	2238.31
750.279	2263.64
750.33	2254.29
750.381	2259.46
750.432	2250.1
750.484	2215.96
750.535	2219.34
750.586	2215.28
750.637	2229.94
750.688	2231.5
750.739	2169.3
750.791	2252.37
750.842	2199.25
750.893	2181.14
750.944	2232.9
750.995	2207.73
751.046	2170.88
751.098	2194.99
751.149	2214.62
751.2	2173.01
751.251	2183.71
751.302	2166.73
751.353	2215.33
751.404	2224.7
751.456	2218.15
751.507	2195.63
751.558	2186.26
751.609	2210.48
751.66	2215.77
751.711	2171.5
751.763	2182.87
751.814	2143.26
751.865	2143.3
751.916	2133.21
751.967	2127.53
752.018	2156.94
752.07	2171.55
752.121	2188.93
752.172	2159.21
752.223	2174.98
752.274	2154.05
752.325	2169.96
752.376	2165.34
752.428	2165.09
752.479	2197.12
752.53	2172.95
752.581	2141.16
752.632	2151.93
752.683	2133.1
752.734	2185.08
752.786	2153.03
752.837	2140.24
752.888	2146.7
752.939	2110.37
752.99	2115.39
753.041	2136.66
753.092	2156.49
753.144	2124.62
753.195	2122.35
753.246	2176.33
753.297	2129.67
753.348	2094.73
753.399	2129.24
753.45	2099.92
753.502	2169.68
753.553	2113.44
753.604	2106.01
753.655	2098.56
753.706	2100.05
753.757	2061.66
753.808	2100.47
753.859	2105.47
753.911	2106.29
753.962	2126.64
754.013	2124.94
754.064	2112.91
754.115	2100.83
754.166	2107.92
754.217	2091.06
754.269	2114.19
754.32	2105.98
754.371	2060.48
754.422	2084.92
754.473	2087
754.524	2112.88
754.575	2117.84
754.626	2078.03
754.678	2114.21
754.729	2093.76
754.78	2085.32
754.831	2084.45
754.882	2083.73
754.933	2111.51
754.984	2105.05
755.035	2116.55
755.086	2051.76
755.138	2081.05
755.189	2083.26
755.24	2101.78
755.291	2073.74
755.342	2021.61
755.393	2068.27
755.444	2059.53
755.495	2059.86
755.547	2072.32
755.598	2043
755.649	2037.83
755.7	2017.8
755.751	2038.37
755.802	2061.97
755.853	2047.94
755.904	2074.34
755.955	2008.84
756.006	2042.37
756.058	2017.08
756.109	2059.34
756.16	2056.35
756.211	2023.19
756.262	2066.71
756.313	2039.56
756.364	1986.95
756.415	2023.25
756.466	2038.73
756.518	2015.31
756.569	2011.61
756.62	2015.48
756.671	2022.32
756.722	2030.52
756.773	1985.79
756.824	2013.3
756.875	2024.16
756.926	1986.76
756.977	2039.94
757.029	1990.6
757.08	2028.84
757.131	2017.32
757.182	2020.92
757.233	2033.6
757.284	2022.13
757.335	2009.17
757.386	1991.67
757.437	1992.3
757.488	2018.62
757.539	2016.13
757.59	2001.49
757.642	2003.48
757.693	1985.82
757.744	1992.48
757.795	1988.63
757.846	1971.23
757.897	1959.93
757.948	1989.57
757.999	1996.37
758.05	2010.63
758.101	1933.61
758.152	1977.99
758.203	1987.4
758.255	1967.97
758.306	1906.07
758.357	1924.83
758.408	1899.58
758.459	1980.84
758.51	2019.19
758.561	1968.18
758.612	1935.89
758.663	1986.26
758.714	1965.18
758.765	1991.67
758.816	1978.14
758.867	1966.16
758.919	1938.99
758.97	1940.16
759.021	1938.22
759.072	1935.81
759.123	1950.33
759.174	1937.5
759.225	1934.83
759.276	1935.69
759.327	1936.92
759.378	1957.51
759.429	1959.75
759.48	1949.5
759.531	1935.23
759.582	1941.19
759.633	1946.97
759.685	1933.76
759.736	1934.36
759.787	1966.64
759.838	1925.14
759.889	1919.29
759.94	1940.63
759.991	1941.43
760.042	1947.73
760.093	1921.58
760.144	1903.65
760.195	1920.93
760.246	1915.92
760.297	1881.51
760.348	1925.37
760.399	1885.8
760.45	1934.96
760.501	1871.09
760.552	1887.86
760.603	1911.27
760.655	1900.09
760.706	1902.67
760.757	1888.65
760.808	1887.85
760.859	1884.99
760.91	1887.24
760.961	1894.43
761.012	1891.81
761.063	1905.52
761.114	1895.17
761.165	1877.6
761.216	1860.31
761.267	1878.31
761.318	1867.47
761.369	1877.01
761.42	1866.39
761.471	1842.84
761.522	1870.57
761.573	1863.25
761.624	1848.58
761.675	1857.41
761.726	1864.13
761.777	1849.06
761.828	1883.96
761.88	1845.69
761.931	1868.29
761.982	1848.91
762.033	1879.78
762.084	1836.52
762.135	1819.68
762.186	1863.05
762.237	1874.22
762.288	1848.84
762.339	1825.7
762.39	1844.61
762.441	1825.7
762.492	1859.21
762.543	1845.56
762.594	1835.52
762.645	1838.2
762.696	1875.75
762.747	1829.22
762.798	1821.4
762.849	1844.62
762.9	1854.59
762.951	1828.29
763.002	1830.85
763.053	1813.42
763.104	1795.21
763.155	1806.37
763.206	1845.34
763.257	1819.61
763.308	1810.66
763.359	1792.67
763.41	1772.18
763.461	1823.25
763.512	1802.7
763.563	1769.05
763.614	1779.55
763.665	1797.04
763.678	1800.95
763.729	1784.65
763.78	1765.49
763.832	1792.58
763.883	1788.81
763.934	1785.34
763.986	1751.73
764.037	1790.08
764.088	1811.97
764.139	1757.73
764.191	1771.27
764.242	1761.61
764.293	1716.38
764.345	1756.88
764.396	1753.49
764.447	1809.94
764.498	1783.74
764.55	1775.87
764.601	1815
764.652	1735.64
764.704	1757.74
764.755	1731.44
764.806	1727.74
764.857	1771.68
764.909	1744.24
764.96	1766.94
765.011	1757.36
765.062	1759.99
765.114	1730.86
765.165	1716.25
765.216	1746.46
765.268	1736.15
765.319	1743.72
765.37	1686.5
765.421	1765.5
765.473	1779.18
765.524	1741.61
765.575	1732.24
765.626	1749.75
765.678	1757.81
765.729	1740.69
765.78	1722.22
765.831	1713.44
765.883	1693.57
765.934	1737.22
765.985	1736.13
766.036	1704.58
766.088	1728.57
766.139	1714.31
766.19	1704.91
766.242	1713.24
766.293	1723.42
766.344	1714.69
766.395	1704.44
766.447	1732.41
766.498	1720.31
766.549	1704.78
766.6	1697.05
766.652	1713.23
766.703	1715.16
766.754	1683.79
766.805	1721.4
766.857	1688.88
766.908	1685.19
766.959	1687.8
767.01	1696.6
767.062	1660.26
767.113	1703.81
767.164	1659.06
767.215	1689.62
767.267	1720.23
767.318	1704.48
767.369	1714.54
767.42	1659
767.472	1691.88
767.523	1692.84
767.574	1682.68
767.625	1662.93
767.677	1659.25
767.728	1686.06
767.779	1678.9
767.83	1703.77
767.882	1673.64
767.933	1643.37
767.984	1693.69
768.035	1653.74
768.087	1636.5
768.138	1663.02
768.189	1625.13
768.24	1661.66
768.292	1674
768.343	1653.91
768.394	1656.34
768.445	1642.4
768.497	1672.06
768.548	1687.1
768.599	1668.16
768.65	1616.89
768.701	1663.11
768.753	1639.74
768.804	1653.82
768.855	1654.95
768.906	1656.04
768.958	1650.52
769.009	1652.99
769.06	1617.88
769.111	1608.74
769.163	1630.55
769.214	1663.8
769.265	1625.31
769.316	1625.98
769.367	1607.04
769.419	1632.14
769.47	1639.21
769.521	1633.13
769.572	1613.92
769.624	1632.31
769.675	1614.76
769.726	1593.97
769.777	1643.6
769.828	1596.68
769.88	1618.55
769.931	1599.51
769.982	1608.4
770.033	1607.58
770.085	1608.54
770.136	1599.76
770.187	1607.46
770.238	1616.77
770.289	1602.9
770.341	1598.69
770.392	1581.12
770.443	1586.48
770.494	1608.3
770.546	1556.02
770.597	1599.47
770.648	1593.59
770.699	1554.81
770.75	1582.1
770.802	1569.78
770.853	1569.02
770.904	1604.64
770.955	1559.16
771.006	1578.16
771.058	1563.95
771.109	1604.32
771.16	1543.52
771.211	1563.9
771.263	1582.65
771.314	1586.53
771.365	1567.24
771.416	1541.33
771.467	1575.25
771.519	1521.09
771.57	1578.27
771.621	1578.89
771.672	1577.81
771.723	1580.06
771.775	1580.66
771.826	1517.99
771.877	1548.7
771.928	1531.16
771.979	1545.4
772.031	1539.69
772.082	1537.37
772.133	1556.85
772.184	1544.61
772.235	1527.4
772.287	1521.94
772.338	1521.52
772.389	1544.56
772.44	1565.82
772.491	1521.33
772.543	1574.08
772.594	1535.8
772.645	1527.64
772.696	1516.09
772.747	1521.46
772.799	1521.97
772.85	1544.58
772.901	1528.64
772.952	1529.63
773.003	1513.76
773.055	1524.81
773.106	1503.64
773.157	1507.69
773.208	1509.94
773.259	1527.34
773.31	1537.94
773.362	1501.12
773.413	1528.57
773.464	1540.76
773.515	1495.37
773.566	1548.23
773.618	1545.31
773.669	1466.25
773.72	1504.31
773.771	1501.84
773.822	1480.74
773.873	1512.26
773.925	1496.1
773.976	1455.96
774.027	1509.25
774.078	1462.12
774.129	1476.29
774.18	1475.21
774.232	1479.3
774.283	1479.98
774.334	1477.19
774.385	1513.57
774.436	1461.19
774.488	1492.48
774.539	1510.23
774.59	1480.29
774.641	1481.23
774.692	1441.14
774.743	1457.49
774.795	1485.76
774.846	1440.2
774.897	1461.37
774.948	1467.05
774.999	1483.02
775.05	1433.81
775.102	1460.26
775.153	1471.41
775.204	1460.35
775.255	1451.1
775.306	1452.19
775.357	1480.79
775.409	1421.33
775.46	1456.56
775.511	1443.35
775.562	1466.31
775.613	1425.35
775.664	1436.22
775.716	1467.9
775.767	1439.1
775.818	1432.78
775.869	1462.8
775.92	1418.35
775.971	1489.95
776.023	1448.98
776.074	1406.3
776.125	1467.71
776.176	1444.11
776.227	1406.56
776.278	1410.62
776.329	1400.74
776.381	1437.8
776.432	1447.1
776.483	1393.84
776.534	1415.45
776.585	1423.15
776.636	1402.94
776.688	1426.19
776.739	1442.33
776.79	1413
776.841	1408
776.892	1434.38
776.943	1431.16
776.994	1428.05
777.046	1416.33
777.097	1395.98
777.148	1400.15
777.199	1395.6
777.25	1347.27
777.301	1430.13
777.352	1416.69
777.404	1419
777.455	1442.38
777.506	1392.21
777.557	1436.83
777.608	1399.08
777.659	1394.7
777.71	1404.34
777.762	1348.83
777.813	1395.17
777.864	1411.46
777.915	1392.44
777.966	1399.77
778.017	1393.06
778.068	1361.82
778.12	1401.23
778.171	1387.91
778.222	1388.79
778.273	1366.69
778.324	1388.64
778.375	1396.32
778.426	1352.57
778.477	1363.52
778.529	1344.37
778.58	1358.85
778.631	1378.74
778.682	1354.48
778.733	1323.22
778.784	1391.26
778.835	1372.56
778.886	1375.16
778.938	1370.68
778.989	1350.17
779.04	1363.35
779.091	1379.98
779.142	1359.16
779.193	1384.49
779.244	1395.54
779.295	1330.03
779.347	1319.74
779.398	1321.97
779.449	1363.49
779.5	1364.07
779.551	1334.33
779.602	1361.65
779.653	1349.69
779.704	1341.27
779.755	1366.77
779.807	1360.14
779.858	1357.12
779.909	1291.54
779.96	1369.18
780.011	1335.99
780.062	1326.18
780.113	1359.51
780.164	1306.79
780.216	1331.2
780.267	1319.58
780.318	1316.76
780.369	1335.32
780.42	1328.52
780.471	1341.42
780.522	1327.31
780.573	1336.7
780.624	1322.8
780.675	1350.49
780.727	1318.8
780.778	1319.62
780.829	1327.68
780.88	1299.57
780.931	1343.72
780.982	1306.44
781.033	1314.34
781.084	1314.99
781.135	1306.59
781.187	1307.26
781.238	1313.41
781.289	1294.16
781.34	1303.91
781.391	1304.52
781.442	1303.21
781.493	1299.98
781.544	1329.42
781.595	1327.91
781.646	1249.95
781.698	1286.61
781.749	1297.81
781.8	1305.4
781.851	1280.27
781.902	1308.04
781.953	1284.92
782.004	1309.35
782.055	1275.53
782.106	1281.89
782.157	1297.36
782.208	1307.24
782.26	1285.87
782.311	1288.1
782.362	1273.75
782.413	1292.3
782.464	1279.77
782.515	1256.33
782.566	1273.26
782.617	1286.58
782.668	1283.43
782.719	1260.08
782.77	1278.91
782.821	1259.2
782.872	1250.53
782.924	1252.92
782.975	1240.63
783.026	1254.08
783.077	1249.13
783.128	1249.66
783.179	1285.15
783.23	1261.75
783.281	1227.32
783.332	1272.24
783.383	1208.46
783.434	1240.67
783.485	1236.02
783.536	1211.02
783.588	1254.38
783.639	1266.23
783.69	1211.31
783.741	1204.4
783.792	1223.32
783.843	1227.34
783.894	1247.99
783.945	1229.68
783.996	1224.41
784.047	1237.8
784.098	1214.21
784.149	1246.5
784.2	1234.35
784.252	1231.58
784.303	1225.09
784.354	1216.69
784.405	1234.32
784.456	1201.54
784.507	1211.6
784.558	1230.99
784.609	1218.6
784.66	1232.31
784.711	1212.25
784.762	1240.69
784.813	1222.21
784.864	1199.88
784.915	1207.47
784.966	1224.47
785.017	1213.49
785.068	1204.5
785.12	1223.72
785.171	1248.64
785.222	1196.71
785.273	1197.28
785.324	1227.87
785.375	1215.28
785.426	1208.3
785.477	1190.01
785.528	1203.66
785.579	1196.59
785.63	1166.9
785.681	1197.43
785.732	1175.26
785.783	1194.56
785.834	1206.39
785.885	1163.61
785.936	1185.02
785.987	1189.56
786.038	1188.53
786.089	1189.46
786.141	1209.33
786.192	1198.86
786.243	1205.28
786.294	1179.26
786.345	1170.06
786.396	1170.15
786.447	1187.19
786.498	1166.31
786.549	1192.93
786.6	1198.86
786.651	1142.35
786.702	1177.06
786.753	1139.74
786.804	1165.15
786.855	1190.6
786.906	1195.09
786.957	1178.57
787.008	1169.55
787.059	1143.27
787.11	1177.9
787.161	1161.06
787.212	1134.7
787.263	1177.09
787.314	1164.27
787.365	1168.73
787.416	1131.25
787.467	1145.39
787.518	1182.48
787.57	1158.29
787.621	1155.03
787.672	1147.82
787.723	1140.51
787.774	1125.46
787.825	1133.38
787.876	1145.16
787.927	1126.28
787.978	1163.1
788.029	1142.41
788.08	1133.25
788.131	1135.64
788.182	1141.86
788.233	1134.6
788.284	1131.16
788.335	1139.23
788.386	1149.22
788.437	1138.04
788.488	1144.23
788.539	1115.78
788.59	1137.48
788.641	1105.23
788.692	1099.96
788.743	1092.73
788.794	1106.68
788.845	1112.85
788.896	1122.85
788.947	1103.86
788.998	1129.4
789.049	1089.27
789.1	1122.77
789.151	1107.97
789.202	1097.07
789.253	1109.43
789.304	1077.11
789.355	1130.09
789.406	1083.92
789.457	1138.62
789.508	1084.39
789.559	1084.49
789.61	1125.38
789.661	1090.55
789.712	1104.48
789.763	1079.72
789.814	1133.01
789.865	1126.14
789.916	1076.39
789.967	1114.29
790.018	1103.27
790.069	1076.43
790.12	1070.96
790.171	1086.99
790.222	1044.46
790.273	1080.31
790.324	1081.08
790.375	1074.03
790.426	1092.37
790.477	1081.09
790.528	1095.1
790.579	1085.38
790.63	1103.09
790.681	1081.62
790.732	1091.74
790.783	1062.78
790.834	1094.91
790.885	1054.41
790.936	1082.78
790.987	1063.86
791.038	1078.34
791.089	1102.58
791.14	1073.44
791.191	1057.98
791.242	1058.19
791.293	1062.3
791.344	1034.81
791.395	1092.3
791.446	1059.05
791.497	1059.54
791.548	1010.73
791.599	1023.28
791.65	1051.69
791.701	1062.17
791.752	1084.39
791.803	1054.98
791.854	1051.32
791.905	1037.82
791.956	1034.37
792.007	1048.95
792.058	1053.75
792.109	1064.6
792.16	1059.53
792.211	1044.42
792.262	1061.08
792.313	1041.7
792.363	1056.11
792.414	1010.51
792.465	1058.69
792.516	1058.9
792.567	1037.13
792.618	1005.42
792.669	1027.77
792.72	1046.25
792.771	1018.81
792.822	1035.46
792.873	1058.14
792.924	1038.7
792.975	1021.21
793.026	1035.8
793.077	1008.26
793.128	1039.04
793.179	1053.88
793.23	1022.53
793.281	1033.47
793.332	1052.48
793.383	1004.87
793.434	1039.88
793.485	1042.52
793.536	1041.03
793.587	1011.14
793.638	997.355
793.689	1038.15
793.74	1004.05
793.79	1008.42
793.841	1025
793.892	1013.3
793.943	999.63
793.994	1020.47
794.045	990.555
794.096	1037.72
794.147	1025.93
794.198	987.664
794.249	1002.22
794.3	996.498
794.351	1007.11
794.402	993.337
794.453	999.906
794.504	998.271
794.555	992.482
794.606	992.756
794.657	1015.48
794.708	1024.04
794.758	1008.26
794.809	1008.94
794.86	995.385
794.911	1010.4
794.962	980.271
795.013	1001.1
795.064	999.249
795.115	1019.85
795.166	1001.59
795.217	977.375
795.268	992.344
795.319	964.491
795.37	1002.47
795.421	976.778
795.472	987.949
795.523	978.305
795.573	1007.55
795.624	993.337
795.675	983.165
795.726	985.396
795.777	936.19
795.828	975.779
795.879	963.886
795.93	978.829
795.981	975.117
796.032	987.815
796.083	973.537
796.134	938.531
796.185	992.454
796.236	961.719
796.286	960.085
796.337	962.744
796.388	953.088
796.439	972.494
796.49	952.482
796.541	996.75
796.592	976.57
796.643	925.095
796.694	923.415
796.745	927.922
796.796	965.691
796.847	951.411
796.897	949.604
796.948	941.551
796.999	971.026
797.05	971.373
797.101	950.908
797.152	972.188
797.203	976.824
797.254	904.23
797.305	936.054
797.356	917.757
797.407	978.929
797.458	941.785
797.508	908.748
797.559	917.511
797.61	934.592
797.661	922.279
797.712	920.419
797.763	929.075
797.814	952.507
797.865	917.314
797.916	920.029
797.967	939.69
798.018	919.488
798.068	926.642
798.119	940.078
798.17	915.457
798.221	913.879
798.272	929.052
798.323	923.007
798.374	925.358
798.425	881.239
798.476	938.651
798.526	905.301
798.577	950.375
798.628	936.332
798.679	918.089
798.73	908.28
798.781	928.084
798.832	901
798.883	909.858
798.934	922.841
798.984	929.395
799.035	880.68
799.086	912.903
799.137	898.445
799.188	930.938
799.239	916.612
799.29	870.236
799.341	917.614
799.392	881.665
799.443	924.617
799.493	909.889
799.544	886.63
799.595	929.669
799.646	876.6
799.697	909.086
799.748	890.234
799.799	867.023
799.85	910.076
799.9	884.492
799.951	905.926
800.002	908.045
800.053	899.49
800.104	867.477
800.155	880.581
800.206	887.401
800.257	892.178
800.307	869.097
800.358	893.207
800.409	870.039
800.46	876.905
800.511	870.877
800.562	884.24
800.613	899.811
800.664	837.876
800.714	855.583
800.765	899.11
800.816	888.658
800.867	912.65
800.918	878.361
800.969	880.784
801.02	866
801.07	881.527
801.121	845.239
801.172	904.093
801.223	867.774
801.274	874.693
801.325	881.604
801.376	864.693
801.427	880.317
801.477	837.408
801.528	883.452
801.579	851.327
801.63	851.69
801.681	860.663
801.732	869.566
801.783	858.869
801.833	846.003
801.884	850.585
801.935	824.767
801.986	868.643
802.037	836.334
802.088	862.787
802.139	882.653
802.189	819.636
802.24	876.51
802.291	850.577
802.342	846.494
802.393	831.526
802.444	873.305
802.495	860.477
802.545	849.783
802.596	823.77
802.647	839.294
802.698	837.403
802.749	833.407
802.8	818.539
802.85	851.874
802.901	837.046
802.952	868.221
803.003	851.139
803.054	829.628
803.105	856.393
803.155	823.855
803.206	854.999
803.257	844.341
803.308	827.01
803.359	822.81
803.41	831.778
803.46	842.965
803.511	836.604
803.562	841.339
803.613	817.522
803.664	833.43
803.715	807.465
803.765	841.06
803.816	828.276
803.867	808.809
803.918	802.56
803.969	813.985
804.02	829.839
804.07	825.772
804.121	819.467
804.172	824.208
804.223	833.353
804.274	800.36
804.325	822.786
804.375	791.997
804.426	805.593
804.477	828.096
804.528	788.425
804.579	804.239
804.63	800.012
804.68	800.174
804.731	804.743
804.782	818.199
804.833	813.9
804.884	809.659
804.934	807.709
804.985	792.452
805.036	803.915
805.087	822.036
805.138	782.165
805.188	784.552
805.239	777.974
805.29	815.972
805.341	762.591
805.392	791.765
805.443	814.318
805.493	803.393
805.544	803.705
805.595	821.264
805.646	767.149
805.697	777.37
805.747	792.684
805.798	792.843
805.849	790.608
805.9	802.521
805.951	789.15
806.001	783.011
806.052	774.387
806.103	794.13
806.154	793.425
806.205	743.089
806.255	808.134
806.306	775.416
806.357	767.858
806.408	764.753
806.459	797.03
806.509	796.8
806.56	767.622
806.611	777.665
806.662	794.089
806.713	784.435
806.763	763.804
806.814	759.999
806.865	775.913
806.916	765.956
806.967	763.528
807.017	759.892
807.068	734.834
807.119	755.841
807.17	754.563
807.22	756.862
807.271	773.339
807.322	758.626
807.373	753.147
807.424	758.514
807.474	747.15
807.525	756.799
807.576	749.47
807.627	743.634
807.678	742.609
807.728	767.73
807.779	767.432
807.83	751.026
807.881	741.789
807.931	752.596
807.982	746.015
808.033	747.895
808.084	750.611
808.135	756.566
808.185	759.488
808.236	748.211
808.287	754.958
808.338	747.136
808.388	754.489
808.439	744.299
808.49	738.344
808.541	743.192
808.591	736.41
808.642	736.385
808.693	727.639
808.744	743.929
808.795	741.634
808.845	738.286
808.896	736.61
808.947	739.015
808.998	732.394
809.048	739.077
809.099	726.513
809.15	743.31
809.201	733.819
809.251	726.109
809.302	742.892
809.353	743.717
809.404	726.188
809.454	752.753
809.505	730.021
809.556	725.037
809.607	734.126
809.658	705.503
809.708	699.358
809.759	721.833
809.81	711.475
809.861	712.232
809.911	721.324
809.962	717.186
810.013	727.556
810.064	722.725
810.114	703.665
810.165	710.444
810.216	731.552
810.267	653.718
810.317	725.289
810.368	730.21
810.419	710.412
810.469	742.401
810.52	692.115
810.571	717.347
810.622	706.383
810.627	704.697
810.678	705.134
810.729	698.598
810.78	694.338
810.831	680.725
810.882	687.965
810.933	704.464
810.984	700.009
811.035	695.523
811.086	723.587
811.137	691.142
811.188	702.91
811.239	700.739
811.29	731.215
811.341	717.509
811.392	710.833
811.443	669.2
811.494	706.837
811.545	704.805
811.596	688.735
811.648	663.299
811.699	693.934
811.75	710.604
811.801	689.91
811.852	713.674
811.903	704.674
811.954	693.276
812.005	709.909
812.056	679.594
812.107	693.719
812.158	646.85
812.209	693.706
812.26	698.401
812.311	696.138
812.362	668.195
812.413	689.612
812.464	668.915
812.515	692.871
812.566	693.339
812.617	681.936
812.668	665.665
812.719	684.512
812.77	682.068
812.821	691.339
812.872	674.791
812.923	674.825
812.974	686.783
813.025	687.144
813.076	708.808
813.127	645.699
813.178	686.216
813.229	684.213
813.28	682.094
813.331	668.081
813.382	672.912
813.433	630.526
813.484	647.22
813.535	689.97
813.586	657.153
813.637	681.085
813.688	662.453
813.739	679.312
813.79	653.578
813.841	616.015
813.892	673.292
813.943	654.786
813.994	645.774
814.045	653.352
814.096	653.715
814.147	665.82
814.198	644.456
814.249	644.329
814.3	615.573
814.351	643.834
814.402	641.272
814.453	648.368
814.504	653.298
814.555	651.312
814.606	670.896
814.657	676.314
814.708	643.594
814.759	644.129
814.81	673.181
814.861	649.575
814.912	661.662
814.963	652.17
815.014	661.756
815.065	630.739
815.116	659.495
815.167	678.761
815.217	623.984
815.268	631.388
815.319	648.377
815.37	646.212
815.421	641.61
815.472	629.773
815.523	660.996
815.574	637.1
815.625	651.491
815.676	622.73
815.727	613.08
815.778	624.923
815.829	648.674
815.88	605.389
815.931	619.575
815.982	660.163
816.033	624.362
816.084	598.29
816.135	637.006
816.186	632.753
816.237	609.341
816.288	571.441
816.339	643.905
816.39	624.954
816.441	641.896
816.492	596.205
816.543	658.627
816.594	617.693
816.645	603.281
816.696	629.857
816.747	618.109
816.798	642.559
816.849	626.162
816.9	597.69
816.951	627.009
817.001	605.612
817.052	634.802
817.103	627.72
817.154	615.748
817.205	659.278
817.256	620.687
817.307	630.415
817.358	642.621
817.409	599.355
817.46	623.882
817.511	646.153
817.562	624.95
817.613	608.567
817.664	601.784
817.715	611.837
817.766	609.573
817.817	597.434
817.868	621.628
817.919	621.527
817.97	643.34
818.021	611.845
818.071	633.869
818.122	626.822
818.173	614.932
818.224	603.018
818.275	615.388
818.326	603.408
818.377	596.28
818.428	598.895
818.479	606.405
818.53	606.639
818.581	599.587
818.632	602.303
818.683	595.282
818.734	571.18
818.785	564.159
818.836	586.453
818.887	579.419
818.938	587.03
818.988	587.274
819.039	594.829
819.09	597.464
819.141	617.226
819.192	587.989
819.243	610.196
819.294	600.554
819.345	588.469
819.396	583.761
819.447	584
819.498	579.386
819.549	565.006
819.6	602.292
819.651	583.098
819.702	588.52
819.753	608.733
819.803	589.483
819.854	584.961
819.905	592.714
819.956	578.162
820.007	570.935
820.058	551.267
820.109	585.915
820.16	595.788
820.211	571.029
820.262	573.48
820.313	593.296
820.364	581.071
820.415	536.789
820.465	574.23
820.516	572.14
820.567	562.606
820.618	587.721
820.669	585.479
820.72	595.555
820.771	570.833
820.822	563.483
820.873	571.08
820.924	558.896
820.975	584.058
821.026	574.48
821.076	574.837
821.127	577.629
821.178	602.752
821.229	570.5
821.28	575.548
821.331	540.706
821.382	560.695
821.433	555.803
821.484	528.518
821.535	586.038
821.586	566.279
821.637	558.984
821.687	566.652
821.738	599.287
821.789	547.019
821.84	532.211
821.891	562.407
821.942	577.648
821.993	575.405
822.044	548.131
822.095	563.379
822.146	538.523
822.196	541.166
822.247	566.322
822.298	538.836
822.349	553.97
822.4	544.095
822.451	559.39
822.502	544.692
822.553	552.679
822.604	555.708
822.655	556.221
822.706	536.522
822.756	562.061
822.807	572.383
822.858	570.01
822.909	560.017
822.96	560.102
823.011	534.963
823.062	562.82
823.113	530.079
823.164	567.941
823.214	575.436
823.265	557.648
823.316	532.299
823.367	549.879
823.418	527.172
823.469	557.518
823.52	550.092
823.571	545.214
823.622	525.171
823.672	507.6
823.723	532.905
823.774	540.483
823.825	545.505
823.876	527.791
823.927	553.023
823.978	547.982
824.029	527.823
824.08	515.271
824.13	538.112
824.181	523.08
824.232	528.276
824.283	510.726
824.334	520.99
824.385	543.916
824.436	531.439
824.487	513.903
824.537	534.351
824.588	519.34
824.639	532.173
824.69	517.089
824.741	542.516
824.792	540.025
824.843	519.774
824.893	537.573
824.944	524.981
824.995	527.644
825.046	507.499
825.097	525.418
825.148	533.177
825.199	535.838
825.25	497.847
825.3	528.447
825.351	543.849
825.402	480.5
825.453	534.138
825.504	503.873
825.555	506.669
825.606	522.162
825.657	504.48
825.707	524.943
825.758	527.502
825.809	540.207
825.86	509.577
825.911	489.154
825.962	509.526
826.013	476.433
826.063	522.351
826.114	537.704
826.165	519.908
826.216	514.811
826.267	514.766
826.318	501.946
826.369	496.758
826.419	501.767
826.47	499.157
826.521	534.77
826.572	506.741
826.623	488.914
826.674	476.19
826.725	504.228
826.775	517.016
826.826	506.919
826.877	494.308
826.928	489.365
826.979	507.38
827.03	505
827.08	500.052
827.131	510.397
827.182	492.661
827.233	510.67
827.284	492.949
827.335	513.556
827.386	513.726
827.436	506.189
827.487	498.579
827.538	495.99
827.589	508.647
827.64	508.46
827.691	485.28
827.741	497.924
827.792	510.688
827.843	508.294
827.894	508.621
827.945	496.291
827.996	496.814
828.046	476.829
828.097	508.057
828.148	503.262
828.199	495.742
828.25	500.916
828.301	493.128
828.351	500.686
828.402	487.711
828.453	487.643
828.504	492.806
828.555	500.637
828.606	480.302
828.656	501.111
828.707	452.53
828.758	465.613
828.809	499.251
828.86	496.818
828.911	504.632
828.961	509.835
829.012	489.263
829.063	497.005
829.114	455.815
829.165	463.556
829.216	484.181
829.266	455.884
829.317	479.114
829.368	476.605
829.419	466.383
829.47	479.365
829.52	458.848
829.571	471.838
829.622	471.93
829.673	472.016
829.724	477.264
829.774	467.054
829.825	493.014
829.876	472.562
829.927	480.552
829.978	475.644
830.029	475.892
830.079	465.749
830.13	465.898
830.181	473.765
830.232	471.248
830.283	486.853
830.333	497.293
830.384	492.204
830.435	435.288
830.486	469.025
830.537	474.219
830.587	461.228
830.638	489.661
830.689	445.547
830.74	481.762
830.791	455.86
830.841	440.379
830.892	481.96
830.943	448.449
830.994	474.588
831.045	477.402
831.095	464.616
831.146	475.141
831.197	480.418
831.248	459.676
831.299	475.267
831.349	454.505
831.4	483.125
831.451	478.027
831.502	444.38
831.553	449.721
831.603	442.049
831.654	444.739
831.705	447.382
831.756	470.794
831.807	478.582
831.857	468.172
831.908	442.187
831.959	465.66
832.01	447.538
832.061	473.659
832.111	450.32
832.162	471.209
832.213	447.822
832.264	463.488
832.315	429.7
832.365	429.802
832.416	445.582
832.467	450.983
832.518	464.224
832.568	443.543
832.619	446.299
832.67	449.008
832.721	459.503
832.772	469.966
832.822	441.251
832.873	451.707
832.924	449.132
832.975	430.921
833.025	449.309
833.076	449.448
833.127	441.764
833.178	460.228
833.229	439.457
833.279	442.2
833.33	447.535
833.381	424.054
833.432	452.911
833.482	442.497
833.533	426.848
833.584	447.87
833.635	440.09
833.685	429.685
833.736	448.096
833.787	437.679
833.838	408.913
833.889	440.448
833.939	409.08
833.99	451.154
834.041	446.026
834.092	427.754
834.142	435.683
834.193	433.067
834.244	456.658
834.295	419.876
834.345	438.23
834.396	417.275
834.447	433.132
834.498	425.426
834.548	404.609
834.599	441.595
834.65	454.904
834.701	444.491
834.751	434.022
834.802	410.368
834.853	431.427
834.904	428.823
834.954	397.289
835.005	413.11
835.056	413.124
835.107	423.63
835.157	436.733
835.208	415.62
835.259	444.5
835.31	418.187
835.36	418.23
835.411	426.215
835.462	444.755
835.513	384.323
835.563	392.283
835.614	434.423
835.665	426.497
835.716	423.826
835.766	436.978
835.817	423.868
835.868	413.461
835.919	411.017
835.969	416.517
836.02	416.747
836.071	401.111
836.122	427.645
836.172	419.807
836.223	417.194
836.274	414.539
836.325	403.933
836.375	398.583
836.426	427.517
836.477	401.007
836.528	414.059
836.578	413.919
836.629	411.164
836.68	403.179
836.73	418.957
836.781	403.161
836.832	421.656
836.883	419.094
836.933	405.997
836.984	443.005
837.035	403.548
837.086	427.393
837.136	372.073
837.187	364.208
837.238	393.238
837.288	366.783
837.339	419.425
837.39	379.714
837.441	411.233
837.491	416.464
837.542	416.538
837.593	400.897
837.643	409.058
837.694	380.262
837.745	412.144
837.796	409.589
837.846	398.992
837.897	420.01
837.948	390.798
837.999	393.29
838.049	406.376
838.1	379.935
838.151	401.032
838.201	377.293
838.252	398.396
838.303	390.442
838.354	387.725
838.404	392.888
838.455	405.944
838.506	390.02
838.556	387.309
838.607	384.639
838.658	397.813
838.708	384.665
838.759	382.064
838.81	395.274
838.861	361.046
838.911	382.159
838.962	390.103
839.013	405.968
839.063	371.753
839.114	411.373
839.165	398.269
839.216	361.43
839.266	387.917
839.317	382.749
839.368	409.251
839.418	401.404
839.469	393.509
839.52	388.206
839.57	388.15
839.621	393.364
839.672	388.038
839.722	393.315
839.773	393.365
839.824	380.259
839.875	401.512
839.925	383.152
839.976	401.779
840.027	346.37
840.077	399.352
840.128	383.569
840.179	391.578
840.229	367.817
840.28	365.199
840.331	378.433
840.381	388.997
840.432	386.319
840.483	370.417
840.534	365.118
840.584	378.369
840.635	378.422
840.686	359.975
840.736	375.953
840.787	391.947
840.838	381.459
840.888	405.408
840.939	363.106
840.99	376.454
841.04	389.81
841.091	366.04
841.142	366.135
841.192	395.417
841.243	374.27
841.294	369.031
841.344	361.123
841.395	379.762
841.446	353.251
841.496	385.179
841.547	353.366
841.598	372.049
841.648	390.759
841.699	366.949
841.75	364.406
841.8	359.189
841.851	375.232
841.902	367.282
841.952	375.245
842.003	356.542
842.054	377.704
842.104	366.918
842.155	369.431
842.206	369.309
842.256	363.919
842.307	361.235
842.358	342.657
842.408	363.955
842.459	366.672
842.51	345.471
842.56	374.751
842.611	348.205
842.662	366.834
842.712	334.951
842.763	382.812
842.814	358.888
842.864	350.905
842.915	358.862
842.966	374.791
843.016	356.176
843.067	356.193
843.118	369.542
843.168	356.34
843.219	364.436
843.269	340.607
843.32	330.053
843.371	364.722
843.421	356.775
843.472	362.133
843.523	356.859
843.573	348.956
843.624	362.408
843.675	346.574
843.725	338.728
843.776	330.847
843.827	360.275
843.877	368.302
843.928	373.611
843.979	360.212
844.029	354.813
844.08	330.752
844.13	365.389
844.181	333.367
844.232	357.368
844.282	360.056
844.333	357.437
844.384	360.18
844.434	368.285
844.485	355.049
844.536	333.79
844.586	352.568
844.637	363.314
844.687	358.009
844.738	358.031
844.789	350.032
844.839	355.397
844.89	352.753
844.941	331.405
844.991	334.11
845.042	352.852
845.092	339.518
845.143	347.574
845.194	334.247
845.244	355.69
845.295	371.79
845.346	355.787
845.396	358.496
845.447	342.468
845.497	329.115
845.548	342.535
845.599	339.929
845.649	337.353
845.7	353.544
845.75	337.595
845.801	329.654
845.852	348.48
845.902	335.103
845.953	351.189
846.004	361.911
846.054	327.075
846.105	337.84
846.155	343.267
846.206	329.925
846.257	351.441
846.307	346.11
846.358	351.49
846.409	340.768
846.459	348.845
846.51	332.805
846.56	335.587
846.611	341.079
846.661	346.572
846.712	330.535
846.763	344.003
846.813	325.161
846.864	335.834
846.915	343.794
846.965	330.279
847.016	332.914
847.066	340.964
847.117	327.578
847.168	327.64
847.218	335.762
847.269	325.064
847.319	343.891
847.37	327.77
847.421	330.446
847.471	327.759
847.522	325.094
847.572	330.518
847.623	325.218
847.674	344.123
847.724	317.322
847.775	330.844
847.825	330.903
847.876	325.565
847.926	317.525
847.977	328.318
848.028	328.353
848.078	333.783
848.129	309.617
848.179	323.159
848.23	344.8
848.281	326.038
848.331	318.034
848.382	315.397
848.432	320.825
848.483	331.633
848.534	302.001
848.584	323.625
848.635	334.507
848.685	318.445
848.736	310.489
848.786	324.127
848.837	308.023
848.888	299.981
848.938	343.262
848.989	335.186
849.039	329.833
849.09	332.627
849.14	338.162
849.191	305.825
849.242	311.348
849.292	311.414
849.343	303.304
849.393	319.525
849.444	305.955
849.494	322.201
849.545	314.133
849.596	292.575
849.646	292.718
849.697	322.7
849.747	309.28
849.798	309.374
849.848	293.13
849.899	317.553
849.95	298.525
850	295.778
850.051	331.029
850.101	322.884
850.152	301.189
850.202	317.493
850.253	287.667
850.303	303.974
850.354	317.569
850.405	295.883
850.455	314.926
850.506	317.696
850.556	309.616
850.607	296.106
850.657	279.873
850.708	312.55
850.758	315.331
850.809	290.917
850.86	301.836
850.91	318.183
850.961	312.757
851.011	296.431
851.062	304.563
851.112	339.876
851.163	309.944
851.213	299.08
851.264	304.58
851.314	285.655
851.365	315.756
851.416	288.722
851.466	297.087
851.517	340.893
851.567	316.491
851.618	308.399
851.668	286.617
851.719	313.943
851.769	322.147
851.82	303.047
851.87	303.064
851.921	316.746
851.971	303.14
852.022	289.549
852.073	295.094
852.123	314.315
852.174	300.733
852.224	281.655
852.275	300.83
852.325	317.158
852.376	284.527
852.426	276.457
852.477	289.757
852.527	283.22
852.578	276.259
852.628	305.359
852.679	297.904
852.729	307.506
852.78	288.629
852.831	301.854
852.881	273.679
852.932	291.086
852.982	290.612
853.033	291.167
853.083	304.651
853.134	284.618
853.184	293.048
853.235	298.344
853.285	273.221
853.336	293.944
853.386	282.452
853.437	280.54
853.487	280.465
853.538	274.98
853.588	300.611
853.639	292.064
853.689	300.336
853.74	297.53
853.79	287.628
853.841	307.522
853.891	283.537
853.942	283.369
853.992	299.969
854.043	292.073
854.093	283.938
854.144	282.324
854.194	302.437
854.245	278.627
854.295	291.192
854.346	273.085
854.396	286.746
854.447	285.386
854.497	282.834
854.548	282.201
854.598	292.438
854.649	285.463
854.699	275.034
854.75	277.158
854.8	281.343
854.851	283.359
854.901	269.487
854.952	275.487
855.002	291.62
855.053	277.527
855.103	269.066
855.154	278.296
855.204	271.937
855.255	271.759
855.305	280.324
855.356	280.612
855.406	283.569
855.457	275.273
855.507	274.864
855.558	265.431
855.608	271.346
855.659	280.367
855.709	288.824
855.76	277.929
855.81	269.192
855.861	280.581
855.911	274.244
855.962	273.64
856.012	279.336
856.063	275.887
856.113	276.371
856.164	279.982
856.214	266.171
856.265	259.004
856.315	275.455
856.366	282.085
856.416	280.98
856.467	280.489
856.517	276.056
856.568	260.641
856.618	261.458
856.668	269.217
856.719	265.411
856.769	254.297
856.82	263.346
856.87	271.783
856.921	277.946
856.971	280.528
857.022	267.585
857.072	259.193
857.123	260.982
857.173	274.045
857.224	285.845
857.274	280.883
857.325	266.039
857.352	266.083
857.403	249.471
857.453	277.207
857.504	271.676
857.555	241.191
857.606	252.285
857.656	257.826
857.707	263.359
857.758	266.113
857.809	266.095
857.859	243.913
857.91	268.87
857.961	263.361
858.012	252.328
858.063	255.175
858.113	282.997
858.164	285.846
858.215	252.585
858.266	272.023
858.316	263.669
858.367	263.616
858.418	258.002
858.469	255.165
858.519	268.981
858.57	246.767
858.621	249.522
858.672	257.827
858.722	266.128
858.773	260.559
858.824	274.386
858.875	249.416
858.925	257.719
858.976	271.589
859.027	246.682
859.078	257.819
859.128	257.863
859.179	257.884
859.23	263.419
859.281	288.333
859.331	279.963
859.382	263.292
859.433	254.964
859.483	249.439
859.534	252.249
859.585	257.838
859.636	252.323
859.686	260.647
859.737	241.223
859.788	249.518
859.839	260.598
859.889	241.208
859.94	232.934
859.991	252.413
860.042	263.581
860.092	255.31
860.143	269.206
860.194	252.536
860.245	244.166
860.295	257.982
860.346	238.522
860.397	257.922
860.447	269.044
860.498	255.242
860.549	277.539
860.6	252.661
860.65	233.305
860.701	238.911
860.752	236.146
860.802	261.125
860.853	247.189
860.904	258.244
860.955	255.425
861.005	249.856
861.056	241.538
861.107	236.019
861.158	244.399
861.208	244.455
861.259	233.399
861.31	252.908
861.36	255.746
861.411	244.679
861.462	250.288
861.513	253.107
861.563	244.785
861.614	228.102
861.665	250.346
861.715	244.76
861.766	233.601
861.817	258.58
861.868	250.175
861.918	236.203
861.969	238.896
862.02	238.805
862.07	244.272
862.121	249.753
862.172	246.936
862.223	233.053
862.273	235.844
862.324	246.98
862.375	266.452
862.425	247.059
862.476	252.627
862.527	247.063
862.577	244.246
862.628	233.081
862.679	235.781
862.73	210.755
862.78	257.853
862.831	235.675
862.882	230.185
862.932	249.714
862.983	258.199
863.034	222.258
863.084	230.735
863.135	244.742
863.186	250.351
863.237	219.734
863.287	216.883
863.338	241.794
863.389	241.671
863.439	241.562
863.49	213.728
863.541	241.452
863.591	238.688
863.642	224.86
863.693	233.268
863.744	252.812
863.794	239.021
863.845	241.885
863.896	244.722
863.946	241.964
863.997	239.179
864.048	222.477
864.098	228.032
864.149	247.515
864.2	233.656
864.25	219.812
864.301	219.881
864.352	242.208
864.402	233.884
864.453	217.171
864.504	247.762
864.555	225.447
864.605	242.103
864.656	250.417
864.707	233.701
864.757	233.679
864.808	236.43
864.859	244.726
864.909	250.222
864.96	241.821
865.011	233.45
865.061	233.458
865.112	216.824
865.163	244.696
865.213	228.086
865.264	233.708
865.315	222.608
865.365	233.735
865.416	239.275
865.467	233.682
865.517	233.669
865.568	228.119
865.619	236.512
865.669	236.584
865.72	233.883
865.771	236.749
865.821	239.604
865.872	234.085
865.923	234.126
865.973	248.101
866.024	206.319
866.075	225.875
866.125	225.915
866.176	228.737
866.227	220.387
866.277	217.6
866.328	206.43
866.379	237.096
866.429	237.079
866.48	234.283
866.531	231.5
866.581	262.196
866.632	242.687
866.683	209.219
866.733	217.583
866.784	237.094
866.835	214.765
866.885	211.972
866.936	211.991
866.987	228.78
867.037	220.49
867.088	223.382
867.138	240.246
867.189	217.981
867.24	223.624
867.29	218.049
867.341	212.44
867.392	237.557
867.442	212.366
867.493	212.344
867.544	198.377
867.594	220.762
867.645	212.432
867.696	232.068
867.746	198.576
867.797	226.602
867.848	226.646
867.898	207.086
867.949	212.702
867.999	215.515
868.05	232.325
868.101	201.551
868.151	215.568
868.202	209.991
868.253	229.614
868.303	215.636
868.354	204.458
868.405	201.688
868.455	221.343
868.506	224.206
868.556	210.265
868.607	224.369
868.658	213.233
868.708	218.921
868.759	213.368
868.81	227.453
868.86	221.871
868.911	221.9
868.961	202.265
869.012	221.963
869.063	210.761
869.113	210.798
869.164	210.834
869.215	210.866
869.265	219.332
869.316	213.736
869.367	213.759
869.417	213.774
869.468	219.402
869.518	208.137
869.569	202.485
869.62	219.326
869.67	238.982
869.721	230.542
869.771	205.254
869.822	210.909
869.873	219.382
869.923	194.092
869.974	194.096
870.025	241.9
870.075	216.56
870.126	191.233
870.176	210.922
870.227	208.141
870.278	222.264
870.328	211.085
870.379	205.536
870.43	202.8
870.48	214.148
870.531	211.408
870.581	205.846
870.632	203.101
870.683	231.39
870.733	225.818
870.784	203.29
870.834	225.923
870.885	214.657
870.936	211.851
870.986	186.437
871.037	214.685
871.087	206.201
871.138	206.184
871.189	208.988
871.239	223.093
871.29	197.678
871.34	211.822
871.391	203.398
871.442	223.249
871.492	189.413
871.543	214.945
871.593	203.709
871.644	220.755
871.695	209.486
871.745	209.521
871.796	201.045
871.846	203.881
871.897	212.37
871.948	215.195
871.998	201.04
872.049	223.715
872.099	212.428
872.15	201.147
872.201	209.694
872.251	215.392
872.302	181.385
872.352	209.704
872.403	189.838
872.453	203.979
872.504	203.972
872.555	215.317
872.605	189.842
872.656	204.031
872.706	189.868
872.757	212.525
872.808	184.164
872.858	198.304
872.909	195.459
872.959	189.803
873.01	198.336
873.06	204.056
873.111	218.295
873.162	204.18
873.212	209.901
873.263	198.585
873.313	184.409
873.364	192.913
873.415	212.752
873.465	209.895
873.516	204.213
873.566	201.388
873.617	201.424
873.667	201.481
873.718	195.869
873.769	198.759
873.819	181.742
873.87	204.434
873.92	201.521
873.971	209.921
874.021	181.44
874.072	215.337
874.123	192.592
874.173	189.729
874.224	167.088
874.274	189.8
874.325	195.549
874.375	187.138
874.426	187.23
874.477	207.182
874.527	204.425
874.578	181.767
874.628	187.487
874.679	196.026
874.729	198.86
874.78	207.352
874.83	193.11
874.881	207.267
874.932	204.397
874.982	187.354
875.033	190.202
875.083	193.062
875.134	190.245
875.184	193.093
875.235	187.398
875.285	204.401
875.336	212.884
875.387	193.002
875.437	193.016
875.488	204.414
875.538	195.958
875.589	207.386
875.639	173.34
875.69	198.936
875.74	176.189
875.791	178.99
875.841	193.138
875.892	178.887
875.943	193.053
875.993	176.021
876.044	184.574
876.094	195.997
876.145	193.229
876.195	190.451
876.246	181.965
876.296	184.825
876.347	199.037
876.397	193.331
876.448	184.782
876.499	184.77
876.549	193.302
876.6	170.579
876.65	170.609
876.701	182.021
876.751	196.282
876.802	193.474
876.852	193.505
876.903	182.148
876.953	190.711
877.004	196.429
877.054	182.221
877.105	187.946
877.155	185.132
877.206	179.471
877.257	182.355
877.307	185.238
877.358	185.262
877.408	190.976
877.459	190.975
877.509	199.514
877.56	193.796
877.61	179.53
877.661	176.672
877.711	179.521
877.762	196.628
877.812	173.844
877.863	165.309
877.913	173.878
877.964	196.704
878.014	176.774
878.065	185.364
878.115	191.115
878.166	182.612
878.216	194.092
878.267	185.597
878.318	188.523
878.368	162.877
878.419	194.383
878.469	180.156
878.52	177.357
878.57	197.442
878.621	180.319
878.671	186.076
878.722	186.093
878.772	188.954
878.823	180.347
878.873	166.003
878.924	185.996
878.974	183.092
879.025	168.758
879.075	185.907
879.126	185.923
879.176	188.833
879.227	183.192
879.277	171.841
879.328	189.147
879.378	183.533
879.429	186.507
879.479	183.719
879.53	189.516
879.58	178.058
879.631	186.684
879.681	172.321
879.732	172.315
879.782	178.054
879.833	180.924
879.883	189.543
879.934	198.167
879.984	169.457
880.035	166.599
880.085	183.855
880.136	183.886
880.186	186.802
880.237	172.483
880.287	189.799
880.338	201.381
880.388	172.682
880.439	164.111
880.489	181.452
880.54	178.633
880.59	178.693
880.641	175.874
880.691	164.401
880.742	190.425
880.792	193.366
880.842	167.421
880.893	167.43
880.943	184.74
880.994	170.291
881.044	167.395
881.095	164.518
881.145	193.421
881.196	176.16
881.246	182.015
881.297	150.302
881.347	179.279
881.398	196.692
881.448	170.703
881.499	150.482
881.549	167.881
881.6	182.398
881.65	173.759
881.701	165.116
881.751	168.052
881.802	173.875
881.852	156.501
881.902	159.404
881.953	173.899
882.003	185.501
882.054	165.23
882.104	176.856
882.155	168.19
882.205	179.818
882.256	171.129
882.306	139.218
882.357	159.498
882.407	191.363
882.458	153.651
882.508	165.246
882.559	185.568
882.609	188.529
882.659	165.398
882.71	153.867
882.76	177.178
882.811	151.1
882.861	156.966
882.912	168.638
882.962	180.306
883.013	165.794
883.063	168.729
883.114	165.845
883.164	180.422
883.214	177.546
883.265	163.03
883.315	174.721
883.366	177.681
883.416	171.898
883.467	154.445
883.517	169.032
883.568	169.037
883.618	163.207
883.669	180.699
883.719	154.486
883.769	174.929
883.82	160.401
883.87	172.126
883.921	154.669
883.971	183.895
884.022	175.166
884.072	172.266
884.123	163.529
884.173	166.483
884.223	169.451
884.274	157.816
884.324	163.712
884.375	169.599
884.425	169.62
884.476	175.472
884.526	163.767
884.577	163.761
884.627	166.69
884.677	160.862
884.728	149.196
884.778	169.722
884.829	158.065
884.879	175.675
884.93	143.497
884.98	175.729
885.03	166.942
885.081	163.994
885.131	143.464
885.182	169.765
885.232	163.858
885.283	155.037
885.333	155.01
885.383	155.009
885.434	172.586
885.484	158.007
885.535	160.987
885.585	163.957
885.635	161.038
885.686	166.874
885.736	152.206
885.787	175.594
885.837	158.031
885.888	163.909
885.938	155.178
885.988	155.242
886.039	164.093
886.089	178.793
886.14	143.635
886.19	170.006
886.241	164.119
886.291	143.583
886.341	167.016
886.392	155.31
886.442	152.415
886.493	158.327
886.543	146.644
886.593	161.343
886.644	167.224
886.694	158.416
886.745	143.732
886.795	173.05
886.845	161.321
886.896	161.351
886.946	149.668
886.997	161.483
887.047	143.943
887.097	152.837
887.148	147.029
887.198	152.972
887.249	170.678
887.299	156.005
887.349	153.092
887.4	141.334
887.45	156.066
887.501	147.234
887.551	153.123
887.602	161.962
887.652	153.143
887.702	153.173
887.753	159.109
887.803	165.057
887.853	150.368
887.904	156.307
887.954	138.638
888.005	150.454
888.055	150.467
888.105	156.385
888.156	135.755
888.206	150.555
888.257	150.612
888.307	162.494
888.357	159.605
888.408	165.569
888.458	153.771
888.509	153.776
888.559	150.805
888.609	165.567
888.66	165.546
888.71	156.67
888.76	150.769
888.811	156.71
888.861	156.75
888.912	162.71
888.962	133.158
889.012	165.738
889.063	147.996
889.113	150.964
889.163	136.168
889.214	145.057
889.264	136.19
889.315	148.056
889.365	142.163
889.415	148.119
889.466	165.928
889.516	168.92
889.566	154.124
889.617	142.283
889.667	160.085
889.718	151.212
889.768	133.448
889.818	133.483
889.869	157.266
889.919	151.39
889.969	139.571
890.02	148.534
890.07	148.579
890.12	154.556
890.171	136.742
890.221	160.535
890.272	136.76
890.322	133.798
890.372	151.662
890.423	157.656
890.473	139.87
890.523	142.929
890.574	137.068
890.624	146.112
890.674	143.228
890.725	152.266
890.775	140.383
890.826	170.294
890.876	170.31
890.926	152.381
890.977	131.458
891.027	146.391
891.077	149.383
891.128	131.475
891.178	128.518
891.228	164.437
891.279	152.533
891.329	164.553
891.379	152.627
891.43	143.673
891.48	149.669
891.53	131.709
891.581	128.715
891.631	137.704
891.681	146.713
891.732	143.77
891.782	140.848
891.832	146.935
891.883	147.037
891.933	159.146
891.983	141.208
892.034	147.277
892.084	165.348
892.134	159.349
892.185	135.298
892.235	156.35
892.286	135.323
892.336	141.383
892.386	132.425
892.437	162.625
892.487	153.695
892.537	150.778
892.587	117.669
892.638	138.845
892.688	153.985
892.738	147.99
892.789	145.018
892.839	151.123
892.889	151.197
892.94	154.298
892.99	139.233
893.04	157.444
893.091	130.214
893.141	139.299
893.191	124.145
893.242	148.349
893.292	160.443
893.342	142.276
893.393	145.311
893.443	148.356
893.493	139.297
893.544	136.297
893.594	142.388
893.644	139.398
893.695	136.411
893.745	151.62
893.795	136.505
893.846	142.617
893.896	148.727
893.946	130.548
893.996	136.654
894.047	130.616
894.097	158.003
894.147	142.856
894.198	121.612
894.248	152.041
894.298	142.923
894.349	139.872
894.399	136.817
894.449	139.853
894.5	148.993
894.55	145.997
894.6	143.021
894.65	146.142
894.701	140.125
894.751	127.997
894.801	128.047
894.852	134.194
894.902	158.659
894.952	134.319
895.003	143.565
895.053	155.887
895.103	140.697
895.153	143.84
895.204	125.539
895.254	150.091
895.304	134.814
895.355	153.232
895.405	131.804
895.455	147.155
895.505	122.65
895.556	128.806
895.606	141.102
895.656	138.066
895.707	131.961
895.757	125.852
895.807	116.668
895.858	141.257
895.908	144.354
895.958	119.808
896.008	135.202
896.059	132.168
896.109	138.356
896.159	132.245
896.21	129.204
896.26	132.311
896.31	135.416
896.36	132.366
896.411	141.63
896.461	129.338
896.511	144.755
896.561	113.962
896.612	120.12
896.662	135.511
896.712	138.586
896.763	113.957
896.813	129.39
896.863	144.862
896.913	151.125
896.964	123.458
897.014	123.544
897.064	132.884
897.115	136.019
897.165	129.848
897.215	132.927
897.265	145.261
897.316	135.954
897.366	135.922
897.416	148.251
897.466	135.877
897.517	138.953
897.567	129.686
897.617	132.784
897.667	126.638
897.718	139.052
897.768	129.86
897.818	129.955
897.868	136.245
897.919	120.841
897.969	123.995
898.019	117.815
898.069	151.903
898.12	139.454
898.17	130.091
898.22	133.114
898.27	133.049
898.321	133.006
898.371	129.905
898.421	114.47
898.471	117.63
898.522	117.727
898.572	114.741
898.622	124.165
898.672	121.164
898.723	118.129
898.773	130.61
898.823	133.736
898.873	136.844
898.924	118.179
898.974	127.511
899.024	118.195
899.074	146.217
899.125	135.357
899.175	118.259
899.225	105.809
899.275	130.681
899.326	136.859
899.376	124.369
899.426	130.545
899.476	130.524
899.527	139.858
899.577	124.359
899.627	136.87
899.677	143.19
899.728	127.72
899.778	121.574
899.828	124.765
899.878	131.064
899.928	121.742
899.979	128.013
