#Acq. time (s)=	5
#Accumulations=	2
#Range (nm)=	520...900
#Windows=	8
#Auto scanning=	Off
#Autofocus=	Off
#AutoExposure=	Off
#Spike filter=	Multiple accum.
#Delay time (s)=	0
#Binning=	1
#Readout mode=	Signal
#DeNoise=	Off
#ICS correction=	On
#Dark correction=	Off
#Inst. Process=	Off
#Detector temperature (°C)=	-59.98
#Instrument=	LabRAM HR Evol
#Detector=	Syncerity OE
#Objective=	x50_VIS
#Grating=	600 (500nm)
#ND Filter=	10%
#Laser=	514nm_Edge
#Hole=	199.981
#Range=	Auto
#StageXY=	Marzhauser
#StageZ=	Marzhauser
#X (µm)=	9823.1
#Y (µm)=	55.4
#Z (µm)=	-25.9
#Full time(mm:ss)=	2:05
#Project=	
#Sample=	
#Site=	
#Title=	PL_M8_011123
#Remark=	
#Date=	11.11.2023 11:54
#Acquired=	11.11.2023 11:54:49
520.044	30.6292
520.097	39.5502
520.149	34.0831
520.201	32.2223
520.254	30.3731
520.306	33.8871
520.359	30.2747
520.411	32.0183
520.464	28.4386
520.516	33.759
520.569	30.2072
520.621	33.7755
520.674	32.0213
520.726	33.8324
520.778	32.0861
520.831	35.6901
520.883	32.1533
520.936	35.7534
520.988	30.4067
521.041	35.7829
521.093	28.6289
521.146	32.206
521.198	26.8349
521.25	33.9845
521.303	32.187
521.355	33.9608
521.408	26.7941
521.46	35.6942
521.513	26.7415
521.565	30.2706
521.617	32.013
521.67	30.2024
521.722	31.9516
521.775	31.931
521.827	30.1428
521.88	37.2218
521.932	30.1238
521.984	31.8907
522.037	30.1195
522.089	35.4446
522.142	30.1456
522.194	40.8212
522.247	35.5355
522.299	35.5773
522.352	28.4942
522.404	35.6536
522.456	24.9789
522.509	35.7103
522.561	30.374
522.614	35.7568
522.666	26.8338
522.719	35.7977
522.771	30.4405
522.823	30.4469
522.876	39.3999
522.928	28.644
522.981	25.0453
523.033	37.5259
523.086	33.9009
523.138	32.0582
523.19	28.4392
523.243	40.8004
523.295	35.416
523.348	31.8296
523.4	33.5638
523.453	40.6012
523.505	29.9925
523.557	35.264
523.61	31.714
523.662	29.9261
523.715	33.4182
523.767	28.1233
523.82	22.8443
523.872	38.6685
523.924	35.1782
523.977	35.2161
524.029	29.9721
524.082	28.2468
524.134	38.8897
524.186	31.8577
524.239	28.351
524.291	37.2534
524.344	31.9683
524.396	30.2273
524.449	28.4815
524.501	37.422
524.553	32.1067
524.606	33.9175
524.658	23.2206
524.711	39.3107
524.763	37.5271
524.815	23.2263
524.868	25.0006
524.92	35.6885
524.973	35.6558
525.025	32.0587
525.078	30.2491
525.13	39.1142
525.182	30.2063
525.235	30.1946
525.287	23.0857
525.34	37.291
525.392	31.9652
525.444	35.5188
525.497	35.5188
525.549	35.516
525.602	33.7355
525.654	33.7309
525.706	26.6287
525.759	39.0624
525.811	31.9757
525.864	30.2248
525.916	35.601
525.969	37.4357
526.021	32.1396
526.073	35.7696
526.126	26.8697
526.178	41.2604
526.231	32.334
526.283	32.3739
526.335	34.2128
526.388	41.4616
526.44	36.0903
526.493	36.1222
526.545	30.7257
526.597	36.1665
526.65	30.751
526.702	28.9451
526.755	30.7512
526.807	37.976
526.859	41.5737
526.912	34.323
526.964	30.6892
527.017	34.2761
527.069	34.2551
527.121	37.8424
527.174	32.4252
527.226	37.8211
527.279	36.0143
527.331	34.2078
527.383	34.1997
527.436	32.3891
527.488	32.3757
527.54	28.765
527.593	34.1425
527.645	37.7201
527.698	30.5243
527.75	39.4917
527.802	25.1279
527.855	37.6934
527.907	39.4977
527.96	39.5154
528.012	34.1488
528.064	39.572
528.117	37.8071
528.169	37.8433
528.222	28.8622
528.274	32.5056
528.326	34.3532
528.379	36.2105
528.431	38.0778
528.484	39.9531
528.536	49.1078
528.588	43.7116
528.641	34.6456
528.693	34.6789
528.745	32.8801
528.798	36.5597
528.85	31.0973
528.903	43.9316
528.955	36.631
529.007	36.645
529.06	29.3183
529.112	31.1423
529.164	43.9397
529.217	34.758
529.269	38.3832
529.322	43.8296
529.374	27.3721
529.426	36.4681
529.479	27.3281
529.531	38.2215
529.584	36.3597
529.636	34.4991
529.688	29.0173
529.741	39.8583
529.793	34.3972
529.845	37.9994
529.898	23.5166
529.95	30.7462
530.003	37.9724
530.055	23.5001
530.107	28.9134
530.16	39.7424
530.212	36.1201
530.264	46.9515
530.317	30.7026
530.369	36.1336
530.422	34.3473
530.474	37.9936
530.526	32.5981
530.579	41.7004
530.631	43.5684
530.683	36.3573
530.736	32.771
530.788	38.2953
530.841	34.7078
530.893	36.5978
530.945	31.1589
530.998	38.5449
531.05	42.2632
531.102	33.1024
531.155	33.1216
531.207	42.342
531.259	34.996
531.312	38.7053
531.364	36.8933
531.417	42.4693
531.469	36.9681
531.521	42.5543
531.574	33.3301
531.626	42.6134
531.678	42.6308
531.731	40.79
531.783	33.3842
531.835	48.241
531.888	44.5538
531.94	39.0096
531.992	35.3188
532.045	40.9224
532.097	40.945
532.15	39.1002
532.202	27.9372
532.254	46.5742
532.307	40.9982
532.359	39.1526
532.411	24.2531
532.464	35.4767
532.516	41.1186
532.568	41.1606
532.621	37.4544
532.673	43.106
532.726	43.1291
532.778	41.2652
532.83	30.0126
532.883	39.3876
532.935	41.2567
532.987	43.1258
533.04	35.6223
533.092	48.7436
533.144	35.6184
533.197	41.2383
533.249	37.4834
533.301	43.0975
533.354	39.343
533.406	39.3391
533.458	39.3395
533.511	46.8367
533.563	39.3459
533.615	43.0915
533.668	33.7156
533.72	29.9552
533.773	39.2905
533.825	39.262
533.877	37.3666
533.93	50.4154
533.982	39.1922
534.034	48.4988
534.087	37.2824
534.139	39.1117
534.191	39.067
534.244	37.1579
534.296	40.8198
534.348	40.7732
534.401	44.4433
534.453	38.8705
534.505	46.2695
534.558	46.2754
534.61	38.8807
534.662	37.0388
534.715	40.7522
534.767	50.0258
534.819	37.0673
534.872	40.7919
534.924	44.5279
534.976	46.4201
535.029	48.3205
535.081	37.203
535.133	42.8165
535.186	46.5657
535.238	37.2643
535.29	46.5857
535.343	44.7229
535.395	44.725
535.447	46.5972
535.5	46.615
535.552	39.1789
535.604	46.6736
535.657	37.3658
535.709	46.7396
535.761	37.4161
535.814	44.9289
535.866	46.8351
535.918	43.1246
535.971	39.4118
536.023	50.7201
536.075	48.8798
536.128	45.1399
536.18	43.258
536.232	43.2357
536.285	43.1961
536.337	41.272
536.389	41.2277
536.442	54.3009
536.494	43.0465
536.546	44.9135
536.599	35.5608
536.651	35.5658
536.703	46.7948
536.755	46.7763
536.808	37.3915
536.86	52.2892
536.912	52.2212
536.965	54.0179
537.017	42.7967
537.069	42.7587
537.122	46.4376
537.174	40.8273
537.226	35.2226
537.279	46.2899
537.331	40.6832
537.383	44.327
537.436	46.1249
537.488	49.7744
537.54	49.7473
537.593	51.5723
537.645	36.8282
537.697	53.3854
537.75	44.1621
537.802	53.33
537.854	36.7512
537.906	45.9007
537.959	42.1954
538.011	42.1689
538.063	47.6509
538.116	51.3111
538.168	47.6539
538.22	44.0046
538.273	42.192
538.325	49.5555
538.377	42.2337
538.43	40.412
538.482	40.4217
538.534	42.2651
538.586	45.9446
538.639	45.949
538.691	40.4412
538.743	42.2894
538.796	49.6598
538.848	44.1585
538.9	44.1749
538.953	49.712
539.005	38.6719
539.057	44.1967
539.109	40.5064
539.162	51.536
539.214	31.2757
539.266	44.1323
539.319	31.2461
539.371	44.0956
539.423	42.2466
539.476	42.2388
539.528	38.5611
539.58	44.0656
539.633	45.8969
539.685	40.3839
539.737	45.8825
539.789	49.5415
539.842	47.6931
539.894	45.8436
539.946	43.9939
539.999	51.3067
540.051	51.2872
540.103	42.1136
540.155	38.4391
540.208	49.4086
540.26	54.8891
540.312	45.7394
540.365	38.4269
540.417	47.5937
540.469	40.2948
540.521	45.8226
540.574	44.0233
540.626	55.066
540.678	42.2372
540.731	40.4101
540.783	45.9218
540.835	45.9191
540.888	47.7554
540.94	51.437
540.992	42.2674
541.044	47.8067
541.097	47.8372
541.149	57.0724
541.201	40.5254
541.254	44.2299
541.306	47.9345
541.358	46.1072
541.41	47.967
541.463	42.4438
541.515	51.6798
541.567	49.837
541.62	42.4523
541.672	51.6787
541.724	42.4522
541.776	42.4615
541.829	46.1735
541.881	51.7442
541.933	53.6249
541.985	53.6514
542.038	42.5616
542.09	51.8104
542.142	55.4889
542.195	46.2094
542.247	49.8624
542.299	53.5038
542.351	47.9219
542.404	55.2432
542.456	42.3171
542.508	44.1239
542.56	47.7703
542.613	56.9267
542.665	38.5466
542.717	56.8818
542.77	44.0234
542.822	47.6766
542.874	40.3272
542.926	51.304
542.979	51.2793
543.031	51.2523
543.083	47.566
543.135	51.1999
543.188	43.8692
543.24	45.6882
543.292	53.0004
543.344	47.5317
543.397	54.8737
543.449	51.2511
543.501	42.1302
543.554	58.6534
543.606	51.343
543.658	49.5153
543.71	49.507
543.763	56.8204
543.815	53.1314
543.867	45.7862
543.919	47.6087
543.972	56.7656
544.024	53.1145
544.076	53.132
544.128	43.9879
544.181	58.6724
544.233	56.8592
544.285	56.8789
544.337	49.5573
544.39	58.7559
544.442	49.5928
544.494	58.7949
544.547	44.1069
544.599	53.3049
544.651	51.4726
544.703	51.4765
544.755	55.1566
544.808	58.8355
544.86	53.3187
544.912	58.8288
544.965	47.79
545.017	56.9674
545.069	56.9545
545.121	58.7817
545.174	55.1022
545.226	60.6077
545.278	62.4345
545.33	62.4123
545.383	53.2
545.435	58.6493
545.487	58.5847
545.539	65.8349
545.591	58.4659
545.644	63.9075
545.696	60.2373
545.748	67.5324
545.8	60.2277
545.853	51.0912
545.905	58.3619
545.957	60.1407
546.009	67.3679
546.062	72.7597
546.114	58.1565
546.166	65.3784
546.218	61.7101
546.271	68.9353
546.323	63.4618
546.375	57.9919
546.427	56.1492
546.48	65.1727
546.532	63.3371
546.584	70.5592
546.636	59.7009
546.689	61.5173
546.741	56.1028
546.793	61.5519
546.845	54.3302
546.898	65.2209
546.95	70.6821
547.002	63.4534
547.054	63.469
547.106	56.2226
547.159	68.917
547.211	70.7202
547.263	70.7036
547.315	59.8107
547.368	70.671
547.42	72.4765
547.472	70.6687
547.524	72.4958
547.577	68.8932
547.629	63.4778
547.681	63.4995
547.733	67.1444
547.785	70.7832
547.838	78.0468
547.89	67.1569
547.942	63.5278
547.994	68.9781
548.047	70.804
548.099	65.3715
548.151	74.4677
548.203	70.8476
548.255	74.4855
548.308	67.213
548.36	69.0132
548.412	68.9883
548.464	67.1438
548.517	61.6721
548.569	77.9653
548.621	76.1275
548.673	72.487
548.725	74.2926
548.778	72.4823
548.83	68.8651
548.882	61.623
548.934	72.5
548.987	67.053
549.039	79.7073
549.091	72.4122
549.143	68.7287
549.195	74.077
549.248	79.4156
549.3	75.7402
549.352	70.2869
549.404	79.2688
549.456	73.8482
549.509	86.438
549.561	68.4058
549.613	70.1655
549.665	57.5267
549.718	73.6411
549.77	75.3744
549.822	73.5318
549.874	77.0873
549.926	78.8653
549.979	69.8987
550.031	78.8537
550.083	73.461
550.135	77.0104
550.187	71.589
550.24	78.6796
550.292	82.1764
550.344	73.175
550.396	74.9002
550.448	83.7715
550.501	83.752
550.553	80.1934
550.605	74.8677
550.657	87.3749
550.709	74.9102
550.762	89.1791
550.814	73.1069
550.866	71.2881
550.918	83.7126
550.97	87.2244
551.023	78.2883
551.075	96.0503
551.127	85.3568
551.179	97.7772
551.231	87.0764
551.284	97.688
551.336	101.182
551.388	101.129
551.44	90.4539
551.492	97.5398
551.545	111.743
551.597	111.771
551.649	113.573
551.701	129.558
551.753	134.872
551.806	124.197
551.858	133.03
551.91	148.96
551.962	157.809
552.014	164.907
552.067	180.889
552.119	205.752
552.171	223.524
552.223	271.459
552.275	344.256
552.327	477.458
552.38	894.897
552.432	1959.45
552.484	3759.38
552.536	7031.81
552.588	13805.1
552.641	19506.4
552.693	13628.5
552.745	6583.38
552.797	2530.05
552.849	1017.4
552.901	564.318
552.954	377.841
553.006	294.411
553.058	237.649
553.11	180.913
553.162	182.72
553.215	159.705
553.267	163.323
553.319	138.543
553.371	122.63
553.423	135.149
553.475	119.198
553.528	108.549
553.58	104.985
553.632	115.623
553.684	113.781
553.736	101.271
553.788	97.6618
553.841	110.05
553.893	94.0657
553.945	97.6315
553.997	102.993
554.049	95.9291
554.102	95.9627
554.154	94.2061
554.206	92.4351
554.258	92.4312
554.31	90.6442
554.362	87.0779
554.414	104.832
554.467	90.5979
554.519	90.5712
554.571	97.6388
554.623	83.4029
554.675	97.5623
554.727	86.8934
554.78	90.4215
554.832	88.6348
554.884	95.7081
554.936	102.768
554.988	90.3254
555.04	92.0444
555.093	93.7553
555.145	99.0011
555.197	90.1118
555.249	90.0676
555.301	90.0243
555.353	84.682
555.406	93.4384
555.458	84.5507
555.51	95.0242
555.562	89.6484
555.614	93.0656
555.666	82.4518
555.719	89.401
555.771	92.8568
555.823	89.3243
555.875	89.3117
555.927	94.5614
555.979	87.553
556.031	87.5402
556.084	89.2624
556.136	87.4676
556.188	89.1597
556.24	89.1006
556.292	90.7979
556.344	92.5138
556.396	99.4898
556.449	85.5404
556.501	99.5345
556.553	82.0947
556.605	92.5889
556.657	92.587
556.709	94.317
556.762	101.275
556.814	108.228
556.866	94.2402
556.918	95.9715
556.97	97.7142
557.022	92.4899
557.074	104.732
557.127	104.772
557.179	89.1017
557.231	92.651
557.283	85.7128
557.335	99.7689
557.387	98.0753
557.439	99.8788
557.492	99.9263
557.544	87.695
557.596	107.039
557.648	96.5609
557.7	101.886
557.752	101.95
557.804	110.811
557.856	103.843
557.909	100.386
557.961	109.258
558.013	100.506
558.065	107.623
558.117	109.456
558.169	93.6287
558.221	111.367
558.273	106.123
558.326	107.929
558.378	100.856
558.43	109.67
558.482	104.306
558.534	104.238
558.586	105.95
558.638	98.8639
558.691	109.468
558.743	102.443
558.795	93.655
558.847	109.598
558.899	104.307
558.951	107.823
559.003	98.9402
559.055	107.705
559.108	118.211
559.16	98.723
559.212	96.8736
559.264	103.815
559.316	108.97
559.368	101.816
559.42	103.447
559.472	112.093
559.525	103.248
559.577	96.1914
559.629	99.6487
559.681	103.108
559.733	99.5653
559.785	113.458
559.837	111.599
559.889	106.234
559.941	111.305
559.994	111.155
560.046	107.55
560.098	112.635
560.15	100.411
560.202	108.966
560.254	115.762
560.306	113.891
560.358	105.107
560.41	101.496
560.463	116.787
560.515	114.895
560.567	107.892
560.619	112.902
560.671	105.952
560.723	117.797
560.775	112.556
560.827	102.205
560.879	113.994
560.932	110.469
560.984	115.462
561.036	108.597
561.088	120.419
561.14	122.071
561.192	118.636
561.244	111.801
561.296	111.728
561.348	121.797
561.4	126.788
561.453	113.212
561.505	116.571
561.557	121.653
561.609	120.001
561.661	108.209
561.713	118.388
561.765	128.553
561.817	121.788
561.869	125.164
561.921	118.396
561.974	120.097
562.026	120.119
562.078	120.146
562.13	113.398
562.182	137.104
562.234	125.254
562.286	118.477
562.338	118.478
562.39	132.04
562.442	130.393
562.494	123.684
562.547	122.065
562.599	132.318
562.651	120.508
562.703	129.052
562.755	124.002
562.807	132.537
562.859	132.581
562.911	125.828
562.963	125.879
563.015	137.846
563.067	132.798
563.12	132.852
563.172	136.307
563.224	132.938
563.276	148.306
563.328	127.863
563.38	129.568
563.432	138.081
563.484	146.585
563.536	127.816
563.588	129.499
563.64	144.81
563.692	148.186
563.744	131.113
563.797	137.861
563.849	151.391
563.901	152.999
563.953	142.72
564.005	142.663
564.057	140.935
564.109	149.419
564.161	149.426
564.213	142.634
564.265	157.89
564.317	139.16
564.369	142.463
564.421	149.125
564.474	152.373
564.526	153.917
564.578	138.559
564.63	138.419
564.682	156.815
564.734	148.205
564.786	144.647
564.838	149.49
564.89	144.264
564.942	152.476
564.994	148.985
565.046	145.529
565.098	148.78
565.15	155.366
565.202	140.221
565.255	148.422
565.307	136.585
565.359	154.699
565.411	142.853
565.463	150.949
565.515	152.411
565.567	152.235
565.619	147.122
565.671	151.947
565.723	153.479
565.775	146.774
565.827	149.973
565.879	153.166
565.931	157.993
565.983	151.29
566.035	147.871
566.087	151.015
566.139	163.992
566.192	162.204
566.244	150.611
566.296	147.226
566.348	153.664
566.4	143.756
566.452	153.447
566.504	150.063
566.556	154.826
566.608	144.925
566.66	146.436
566.712	146.333
566.764	162.502
566.816	157.564
566.868	154.278
566.92	155.887
566.972	149.395
567.024	147.79
567.076	157.566
567.128	164.101
567.18	156.011
567.232	159.287
567.285	146.3
567.337	170.696
567.389	162.581
567.441	160.98
567.493	162.647
567.545	159.45
567.597	167.654
567.649	156.325
567.701	167.783
567.753	154.796
567.805	167.873
567.857	177.696
567.909	166.337
567.961	169.667
568.013	177.908
568.065	168.196
568.117	171.534
568.169	161.995
568.221	174.84
568.273	165.04
568.325	169.225
568.377	173.21
568.429	172.755
568.481	177.739
568.533	165.77
568.585	172.633
568.637	172.794
568.69	183.392
568.742	163.792
568.794	170.973
568.846	177.726
568.898	178.395
568.95	175.863
569.002	177.746
569.054	171.378
569.106	177.953
569.158	178.758
569.21	181.327
569.262	183.692
569.314	193.966
569.366	178.113
569.418	180.2
569.47	189.408
569.522	186.905
569.574	181.659
569.626	185.672
569.678	191.391
569.73	185.026
569.782	189.814
569.834	189.139
569.886	200.445
569.938	191.045
569.99	194.271
570.042	191.223
570.094	180.748
570.146	194.632
570.198	186.445
570.25	192.796
570.302	179.679
570.354	197.317
570.406	200.98
570.458	185.715
570.51	195.651
570.562	206.632
570.614	188.47
570.666	195.614
570.718	193.677
570.77	205.848
570.822	207.088
570.874	208.115
570.926	212.99
570.978	205.355
571.03	206.823
571.082	204.788
571.134	205.041
571.186	211.986
571.238	201.927
571.29	210.489
571.342	220.58
571.394	218.251
571.446	218.038
571.498	213.676
571.55	215.886
571.602	217.317
571.654	212.221
571.706	220.968
571.758	227.597
571.81	224.57
571.862	231.367
571.914	226.882
571.966	236.481
572.018	233.759
572.07	232.507
572.122	237.875
572.174	233.562
572.226	236.715
572.278	252.909
572.33	246.211
572.382	241.11
572.434	246.932
572.486	255.275
572.538	261.046
572.59	250.358
572.642	263.327
572.694	256.951
572.746	255.728
572.798	255.393
572.85	269.467
572.902	287.135
572.954	265.907
573.006	261.92
573.058	283.691
573.11	288.41
573.162	280.293
573.214	291.41
573.266	297.219
573.312	310.775
573.364	316.954
573.416	307.682
573.469	310.788
573.521	324.727
573.573	327.845
573.625	307.754
573.677	313.924
573.73	320.05
573.782	330.762
573.834	341.433
573.886	349.007
573.938	345.819
573.991	335.004
574.043	347.457
574.095	349.199
574.147	372.635
574.199	380.602
574.252	390.021
574.304	396.187
574.356	388.259
574.408	394.117
574.46	404.542
574.513	421.158
574.565	403.91
574.617	414.481
574.669	428.154
574.721	407.951
574.774	435.449
574.826	429.06
574.878	427.274
574.93	434.707
574.982	451.358
575.035	443.457
575.087	443.242
575.139	484.417
575.191	465.791
575.243	464.031
575.296	466.878
575.348	452.909
575.4	478.731
575.452	475.473
575.504	493.576
575.556	478.012
575.609	494.48
575.661	495.677
575.713	458.816
575.765	492.163
575.817	493.593
575.87	482.9
575.922	492.014
575.974	479.748
576.026	496.326
576.078	493.016
576.131	498.777
576.183	471.095
576.235	482.979
576.287	485.811
576.339	491.745
576.391	481.034
576.444	465.794
576.496	485.443
576.548	470.177
576.6	459.436
576.652	453.215
576.705	469.696
576.757	458.878
576.809	458.649
576.861	443.287
576.913	453.657
576.965	442.874
577.018	448.747
577.07	441.049
577.122	442.441
577.174	400.073
577.226	424.152
577.279	425.6
577.331	431.585
577.383	398.346
577.435	423.956
577.487	408.823
577.539	404.236
577.592	390.577
577.644	401.017
577.696	382.789
577.748	384.14
577.8	374.944
577.852	380.816
577.905	373.157
577.957	380.563
578.009	341.357
578.061	374.335
578.113	372.718
578.165	375.596
578.218	361.941
578.27	364.805
578.322	370.667
578.374	352.522
578.426	347.88
578.478	356.713
578.531	350.529
578.583	350.306
578.635	342.57
578.687	358.737
578.739	315.122
578.791	359.614
578.844	330.977
578.896	358.996
578.948	336.364
579	340.535
579.052	334.292
579.104	333.985
579.157	324.764
579.209	339.24
579.261	304.825
579.313	336.971
579.365	315.878
579.417	336.107
579.47	312.125
579.522	323.524
579.574	329.067
579.626	340.527
579.678	325.622
579.73	326.902
579.782	326.734
579.835	336.806
579.887	329.274
579.939	329.023
579.991	328.736
580.043	331.344
580.095	316.446
580.148	324.906
580.2	334.844
580.252	318.62
580.304	328.619
580.356	331.356
580.408	338.445
580.46	322.289
580.513	323.553
580.565	340.771
580.617	313.062
580.669	337.563
580.721	318.632
580.773	340.281
580.826	321.399
580.878	319.897
580.93	322.736
580.982	334.257
581.034	338.543
581.086	319.689
581.138	352.914
581.191	321.055
581.243	334.034
581.295	344.129
581.347	335.448
581.399	341.257
581.451	335.526
581.503	322.572
581.556	319.73
581.608	329.874
581.66	339.972
581.712	326.89
581.764	335.5
581.816	335.461
581.868	342.707
581.92	335.549
581.973	325.526
582.025	328.511
582.077	341.582
582.129	337.215
582.181	324.103
582.233	345.676
582.285	344.104
582.338	352.689
582.39	332.422
582.442	333.888
582.494	333.938
582.546	338.329
582.598	347.035
582.65	336.904
582.703	336.852
582.755	343.993
582.807	354.002
582.859	346.674
582.911	340.815
582.963	359.534
583.015	347.956
583.067	363.821
583.12	356.577
583.172	352.192
583.224	362.201
583.276	366.399
583.328	360.481
583.38	366.095
583.432	373.151
583.484	344.194
583.537	352.664
583.589	371.14
583.641	385.202
583.693	364.701
583.745	374.316
583.797	378.177
583.849	354.888
583.901	378.902
583.953	365.817
584.006	377.09
584.058	375.523
584.11	362.51
584.162	360.852
584.214	357.685
584.266	390.032
584.318	399.498
584.37	372.005
584.423	371.545
584.475	398.047
584.527	393.421
584.579	371.892
584.631	358.914
584.683	371.393
584.735	396.561
584.787	383.605
584.839	417.15
584.892	377.388
584.944	409.418
584.996	399.193
585.048	403.012
585.1	420.85
585.152	400.837
585.204	399.107
585.256	390.438
585.308	400.015
585.361	405.428
585.413	408.059
585.465	384.141
585.517	392.333
585.569	399.093
585.621	397.462
585.673	418.143
585.725	392.869
585.777	415.031
585.83	403.843
585.882	398.303
585.934	415.109
585.986	406.879
586.038	409.799
586.09	394.57
586.142	409.971
586.194	409.987
586.246	418.332
586.298	408.54
586.351	415.507
586.403	426.716
586.455	429.636
586.507	406.108
586.559	416.099
586.611	410.716
586.663	438.812
586.715	433.288
586.767	423.49
586.819	431.811
586.872	412.184
586.924	434.518
586.976	427.581
587.028	423.51
587.08	432.071
587.132	432.26
587.184	438.023
587.236	417.144
587.288	421.4
587.34	422.811
587.392	426.995
587.445	428.373
587.497	446.557
587.549	426.953
587.601	424.146
587.653	415.726
587.705	440.872
587.757	446.393
587.809	442.099
587.861	437.806
587.913	432.134
587.965	446.067
588.018	425.071
588.07	446.04
588.122	450.226
588.174	437.603
588.226	464.071
588.278	447.137
588.33	442.718
588.382	445.224
588.434	443.508
588.486	440.395
588.538	467.947
588.59	446.789
588.642	470.214
588.695	440.808
588.747	443.408
588.799	466.837
588.851	451.336
588.903	469.133
588.955	463.299
589.007	464.373
589.059	448.786
589.111	448.401
589.163	475.612
589.215	452.992
589.267	462.117
589.319	465.713
589.372	466.593
589.424	446.922
589.476	479.589
589.528	455.984
589.58	457.155
589.632	474.791
589.684	449.854
589.736	464.633
589.788	472.478
589.84	447.422
589.892	463.408
589.944	447.972
589.996	447.625
590.048	447.346
590.101	447.129
590.153	453.766
590.205	468.577
590.257	453.395
590.309	444.988
590.361	458.313
590.413	470.251
590.465	453.689
590.517	450.809
590.569	458.887
590.621	461.622
590.673	438.607
590.725	444.106
590.777	450.92
590.829	448.149
590.881	457.505
590.933	435.554
590.986	451.533
591.038	444.429
591.09	449.539
591.142	453.348
591.194	435.591
591.246	426.04
591.298	434.131
591.35	447.656
591.402	432.766
591.454	428.657
591.506	447.488
591.558	454.115
591.61	426.955
591.662	428.195
591.714	425.41
591.766	438.854
591.818	421.251
591.87	433.351
591.923	418.445
591.975	427.836
592.027	441.283
592.079	407.516
592.131	416.947
592.183	422.334
592.235	404.771
592.287	412.821
592.339	428.937
592.391	435.592
592.443	427.42
592.495	426.018
592.547	416.566
592.599	412.541
592.651	412.584
592.703	412.63
592.755	427.496
592.807	422.108
592.859	408.602
592.911	430.132
592.963	417.933
593.015	404.373
593.068	412.362
593.12	427.061
593.172	429.606
593.224	409.241
593.276	417.135
593.328	419.633
593.38	418.096
593.432	427.312
593.484	411.006
593.536	406.807
593.588	429.47
593.64	417.261
593.692	434.604
593.744	423.814
593.796	413.06
593.848	423.779
593.9	409.012
593.952	426.399
594.004	416.925
594.056	423.494
594.108	395.193
594.16	421.803
594.212	412.255
594.264	413.436
594.316	411.96
594.368	419.86
594.42	431.77
594.472	414.271
594.524	440.864
594.576	416.689
594.628	423.239
594.68	411.103
594.732	428.324
594.784	437.508
594.837	423.973
594.889	431.715
594.941	418.085
594.993	423.069
595.045	425.391
595.097	418.461
595.149	418.266
595.201	427.469
595.253	428.805
595.305	410.292
595.357	436.948
595.409	444.993
595.461	452.978
595.513	438.311
595.565	424.918
595.617	424.779
595.669	444.547
595.721	439.133
595.773	432.449
595.825	429.797
595.877	428.483
595.929	449.683
595.981	448.252
596.033	442.75
596.085	438.49
596.137	461.969
596.189	420.57
596.241	443.993
596.293	444.956
596.345	423.523
596.397	449.625
596.449	438.839
596.501	464.993
596.553	458.262
596.605	456.862
596.657	452.882
596.709	441.038
596.761	451.584
596.813	450.263
596.865	452.861
596.917	443.584
596.969	444.827
597.021	431.606
597.073	436.83
597.125	440.755
597.177	430.208
597.229	430.159
597.281	432.696
597.333	424.668
597.385	431.076
597.437	446.683
597.489	418.979
597.541	443.88
597.593	445.209
597.645	425.569
597.697	453.225
597.749	446.695
597.801	440.103
597.853	447.89
597.905	450.367
597.957	425.265
598.009	454.008
598.061	434.269
598.113	451.356
598.165	421.281
598.217	439.801
598.269	445.192
598.321	453.163
598.373	451.87
598.425	459.71
598.477	453.075
598.529	449.083
598.581	451.701
598.633	437.301
598.685	450.509
598.737	459.78
598.789	438.804
598.841	448.006
598.893	458.502
598.945	462.452
598.997	445.446
599.049	440.355
599.101	460.34
599.153	443.558
599.205	458.37
599.257	434.936
599.309	453.593
599.361	477.449
599.413	461.664
599.465	447.154
599.517	459.016
599.569	462.985
599.62	465.673
599.672	457.852
599.724	471.187
599.776	459.48
599.828	468.917
599.88	470.429
599.932	465.305
599.984	458.806
600.036	466.79
600.088	453.563
600.14	462.784
600.192	446.887
600.244	460.112
600.296	458.848
600.348	451.026
600.4	461.756
600.452	477.789
600.504	459.374
600.556	452.806
600.608	466.028
600.66	451.385
600.712	459.208
600.764	459.082
600.816	478.82
600.868	464.211
600.92	469.498
600.972	447.057
601.024	460.354
601.076	463.072
601.128	464.448
601.18	477.708
601.232	459.188
601.284	452.559
601.335	447.233
601.387	470.982
601.439	462.931
601.491	464.079
601.543	466.48
601.595	483.344
601.647	457.909
601.699	477.321
601.751	445.314
601.803	464.709
601.855	468.305
601.907	439.055
601.959	463.733
602.011	476.604
602.063	439.639
602.115	456.534
602.167	461.64
602.219	454.934
602.271	457.354
602.323	457.062
602.375	464.513
602.427	469.238
602.478	463.453
602.53	466.812
602.582	458.497
602.634	459.4
602.686	464.303
602.738	465.382
602.79	460.008
602.842	471.531
602.894	440.17
602.946	469.791
602.998	455.236
603.05	456.219
603.102	453.302
603.154	438.746
603.206	452.686
603.258	469.222
603.31	466.386
603.362	444.199
603.413	465.916
603.465	463.095
603.517	471.871
603.569	462.6
603.621	472.675
603.673	462.179
603.725	477.483
603.777	478.685
603.829	461.927
603.881	446.491
603.933	468.378
603.985	468.366
604.037	477.313
604.089	474.622
604.141	459.031
604.193	471.715
604.244	461.291
604.296	448.364
604.348	467.632
604.4	458.704
604.452	466.521
604.504	473.063
604.556	473.162
604.608	473.241
604.66	472.03
604.712	456.687
604.764	459.389
604.816	472.428
604.868	470.042
604.92	475.375
604.971	465.211
605.023	464.024
605.075	471.832
605.127	462.882
605.179	469.438
605.231	487.663
605.283	453.036
605.335	471.345
605.387	467.696
605.439	480.798
605.491	482.203
605.543	483.545
605.594	458.995
605.646	469.367
605.698	470.744
605.75	470.909
605.802	465.975
605.854	461.082
605.906	476.918
605.958	466.781
606.01	479.886
606.062	479.908
606.114	469.451
606.166	474.489
606.217	466.542
606.269	472.874
606.321	465.009
606.373	470.156
606.425	472.765
606.477	480.566
606.529	471.507
606.581	468.884
606.633	468.803
606.685	486.806
606.737	476.296
606.789	478.727
606.84	460.475
606.892	477.174
606.944	458.987
606.996	486.074
607.048	487.316
607.1	476.923
607.152	480.727
607.204	481.91
607.256	471.419
607.308	490.576
607.359	491.599
607.411	487.429
607.463	479.388
607.515	476.526
607.567	474.993
607.619	465.784
607.671	477.199
607.723	465.48
607.775	474.335
607.827	480.599
607.878	479.131
607.93	478.931
607.982	472.301
608.034	482.339
608.086	461.575
608.138	483.093
608.19	469.978
608.242	470.935
608.294	474.45
608.345	498.44
608.397	470.09
608.449	485.251
608.501	485.151
608.553	487.645
608.605	485.039
608.657	490.06
608.709	469.508
608.761	489.726
608.812	488.214
608.864	473.946
608.916	474.988
608.968	492.613
609.02	465.738
609.072	493.633
609.124	473.223
609.176	489.734
609.228	490.998
609.279	484.636
609.331	492.265
609.383	468.091
609.435	479.527
609.487	502.408
609.539	497.306
609.591	479.493
609.643	490.941
609.694	492.226
609.746	504.967
609.798	498.63
609.85	483.378
609.902	485.913
609.954	499.861
610.006	479.426
610.058	503.451
610.109	488.02
610.161	473.837
610.213	474.882
610.265	487.34
610.317	484.57
610.369	517.325
610.421	491.781
610.473	501.773
610.524	504.199
610.576	497.794
610.628	485.083
610.68	486.314
610.732	506.538
610.784	506.491
610.836	501.375
610.887	491.201
610.939	498.77
610.991	479.777
611.043	500.047
611.095	469.683
611.147	502.6
611.199	500.031
611.25	512.597
611.302	507.385
611.354	488.212
611.406	498.094
611.458	506.679
611.51	486.204
611.562	489.741
611.614	499.601
611.665	503.17
611.717	495.408
611.769	501.512
611.821	492.474
611.873	497.259
611.925	493.203
611.977	490.401
612.028	501.446
612.08	503.727
612.132	514.844
612.184	513.432
612.236	486.915
612.288	518.067
612.339	505.216
612.391	516.083
612.443	495.564
612.495	508.817
612.547	505.848
612.599	497.99
612.651	510.226
612.702	506.359
612.754	516.288
612.806	503.785
612.858	504.954
612.91	502.298
612.962	533.184
613.013	499.214
613.065	512.52
613.117	533.262
613.169	534.128
613.221	518.897
613.273	526.051
613.325	508.407
613.376	515.556
613.428	497.892
613.48	513.63
613.532	516.946
613.584	516.537
613.635	532.19
613.687	513.293
613.739	522.808
613.791	520.003
613.843	528.285
613.895	519.315
613.947	504.196
613.998	521.048
614.05	523.163
614.102	519.186
614.154	521.412
614.206	505.308
614.258	539.546
614.309	540.709
614.361	528.406
614.413	533.269
614.465	538.122
614.517	525.802
614.568	547.78
614.62	535.423
614.672	525.492
614.724	521.658
614.776	531.263
614.828	534.726
614.879	543.081
614.931	546.561
614.983	543.967
615.035	534.082
615.087	546.225
615.139	524.16
615.19	543.622
615.242	558.16
615.294	543.355
615.346	529.76
615.398	545.457
615.449	535.534
615.501	541.48
615.553	525.474
615.605	548.462
615.657	562.881
615.709	551.688
615.76	559.973
615.812	534.189
615.864	549.804
615.916	550.843
615.968	549.466
616.019	554
616.071	559.81
616.123	550.791
616.175	563.517
616.227	545.818
616.278	563.217
616.33	554.401
616.382	538.416
616.434	546.337
616.486	548.108
616.537	556.465
616.589	556.361
616.641	551.945
616.693	535.465
616.745	559.226
616.797	559.919
616.848	566.331
616.9	547.145
616.952	557.683
617.004	562.19
617.056	561.248
617.107	559.709
617.159	542.488
617.211	562.321
617.263	559.963
617.315	558.431
617.366	562.163
617.418	559.403
617.47	553.578
617.522	560.737
617.573	542.365
617.625	547.926
617.677	555.891
617.729	564.142
617.781	574.544
617.832	552.306
617.884	573.792
617.936	564.321
617.988	577.963
618.04	580.019
618.091	564.19
618.143	568.35
618.195	561.085
618.247	563.511
618.299	566.078
618.35	576.852
618.402	564.718
618.454	563.153
618.506	558.548
618.557	573.587
618.609	567.942
618.661	574.204
618.713	564.573
618.765	563.818
618.816	586.514
618.868	577.395
618.92	581.593
618.972	560.183
619.023	578.777
619.075	584.784
619.127	573.207
619.179	576.331
619.231	570.437
619.282	568.285
619.334	575.357
619.386	573.564
619.438	571.32
619.49	571.958
619.541	578.04
619.593	569.914
619.645	584.413
619.697	579.207
619.748	577.154
619.8	577.33
619.852	576.49
619.904	588.459
619.955	585.288
620.007	581.609
620.059	589.576
620.111	582.207
620.162	571.768
620.214	589.086
620.266	579.483
620.318	584.223
620.37	587.033
620.421	592.399
620.473	588.089
620.525	586.402
620.577	582.435
620.628	587.39
620.68	585.964
620.732	582.887
620.784	578.123
620.835	588.828
620.887	577.036
620.939	582.351
620.991	588.441
621.042	591.055
621.094	588.494
621.146	587.449
621.198	583.546
621.249	574.135
621.269	570.319
621.321	569.965
621.373	570.729
621.425	582.047
621.477	581.653
621.529	593.031
621.581	573.997
621.633	612.416
621.685	586.486
621.737	582.864
621.789	572.276
621.841	583.974
621.893	588.69
621.945	571.193
621.997	572.431
622.049	580.683
622.101	592.414
622.153	586.527
622.205	592.271
622.257	581.544
622.309	578.927
622.361	591.442
622.413	584.048
622.465	584.839
622.517	578.677
622.569	602.889
622.621	604.979
622.673	587.279
622.725	602.206
622.776	591.491
622.828	586.588
622.88	586.338
622.932	608.199
622.984	588.225
623.036	583.411
623.088	591.41
623.14	615.677
623.192	592.295
623.244	599.068
623.296	584.891
623.348	591.557
623.4	586.597
623.452	586.281
623.504	602.208
623.556	605.433
623.608	598.282
623.66	600.411
623.712	605.996
623.764	588.412
623.816	591.58
623.868	609.69
623.92	586.182
623.972	601.884
624.024	602.583
624.076	592.944
624.128	599.467
624.18	600.286
624.232	609.209
624.284	600.95
624.336	596.193
624.388	605.253
624.44	606.276
624.492	613.009
624.544	584.104
624.596	607.909
624.648	614.416
624.699	589.93
624.751	582.622
624.803	629.092
624.855	600.088
624.907	589.438
624.959	601.67
625.011	607.066
625.063	606.766
625.115	608.753
625.167	598.214
625.219	596.815
625.271	602.277
625.323	596.389
625.375	615.567
625.427	614.278
625.479	601.618
625.531	612.821
625.583	600.119
625.635	618.07
625.687	589.419
625.739	594.84
625.791	616.147
625.843	621.573
625.895	611.14
625.946	621.134
625.998	614.142
626.05	607.174
626.102	607.033
626.154	615.987
626.206	619.317
626.258	609.098
626.31	621.545
626.362	633.998
626.414	637.383
626.466	612.442
626.518	625.955
626.57	629.232
626.622	622.266
626.674	626.552
626.726	618.344
626.778	633.842
626.83	640.312
626.882	628.794
626.934	617.406
626.985	608.414
627.037	628.885
627.089	624.573
627.141	623.624
627.193	623.713
627.245	616.898
627.297	628.045
627.349	616.527
627.401	616.291
627.453	630.759
627.505	619.338
627.557	612.493
627.609	620.344
627.661	637.21
627.713	635.989
627.765	634.708
627.817	617.595
627.868	642.155
627.92	629.548
627.972	625.989
628.024	629.219
628.076	633.589
628.128	632.328
628.18	635.547
628.232	643.246
628.284	643.076
628.336	633.95
628.388	619.268
628.44	636.124
628.492	645.167
628.544	640.746
628.596	632.942
628.647	648.712
628.699	637.464
628.751	650.928
628.803	637.41
628.855	653.14
628.907	628.423
628.959	650.939
629.011	646.472
629.063	625.121
629.115	629.605
629.167	650.927
629.219	655.368
629.271	646.31
629.322	654.103
629.374	651.765
629.426	641.536
629.478	673.959
629.53	662.53
629.582	653.319
629.634	656.434
629.686	642.709
629.738	653.654
629.79	651.135
629.842	643.01
629.894	641.609
629.945	664.845
629.997	659.001
630.049	666.631
630.101	637.413
630.153	659.688
630.205	665.219
630.257	653.978
630.309	675.125
630.361	661.57
630.413	663.615
630.465	670.096
630.517	660.944
630.568	644.014
630.62	665.082
630.672	662.766
630.724	693.963
630.776	671.624
630.828	668.24
630.88	663.699
630.932	679.172
630.984	684.527
631.036	674.203
631.088	678.308
631.14	676.805
631.191	689.76
631.243	673.816
631.295	676.831
631.347	684.356
631.399	693.056
631.451	692.928
631.503	672.854
631.555	667.234
631.607	677.157
631.659	675.972
631.71	671.447
631.762	673.568
631.814	672.34
631.866	679.951
631.918	673.092
631.97	696.105
632.022	659.214
632.074	698.74
632.126	702.828
632.178	679.326
632.229	693.562
632.281	676.955
632.333	694.753
632.385	692.708
632.437	713.912
632.489	711.829
632.541	720.734
632.593	698.559
632.645	697.362
632.696	702.788
632.748	696.051
632.8	711.473
632.852	721.38
632.904	725.752
632.956	705.754
633.008	715.569
633.06	717.571
633.112	691.885
633.164	723.654
633.215	712.36
633.267	712.183
633.319	734.168
633.371	719.792
633.423	705.461
633.475	722.047
633.527	723.143
633.579	738.53
633.63	719.632
633.682	740.419
633.734	717.053
633.786	725.697
633.838	714.52
633.89	734.244
633.942	757.275
633.994	745.009
634.046	741.52
634.097	709.354
634.149	736.658
634.201	734.258
634.253	739.649
634.305	731.952
634.357	737.59
634.409	736.727
634.461	751.343
634.512	786.912
634.564	749.692
634.616	768.611
634.668	772
634.72	762.056
634.772	765.258
634.824	762.873
634.876	764.847
634.927	782.226
634.979	766.577
635.031	766.417
635.083	789.473
635.135	808.223
635.187	796.215
635.239	805.154
635.291	797.536
635.342	797.546
635.394	802.965
635.446	803.894
635.498	821.295
635.55	791.367
635.602	813.218
635.654	808.718
635.705	811.977
635.757	831.767
635.809	828.45
635.861	837.206
635.913	827.219
635.965	842.501
636.017	856.674
636.068	842.29
636.12	855.465
636.172	856.633
636.224	876.572
636.276	878.945
636.328	891.172
636.38	884.572
636.431	896.493
636.483	917.013
636.535	890.116
636.587	933.492
636.639	935.175
636.691	929.344
636.743	918.253
636.794	940.294
636.846	959.215
636.898	950.775
636.95	981.835
637.002	961.164
637.054	960.092
637.106	975.314
637.157	971.714
637.209	1006.44
637.261	995.052
637.313	1003.46
637.365	1027.3
637.417	1007.38
637.469	1043.43
637.52	1015.95
637.572	1022.45
637.624	1013.59
637.676	1063.89
637.728	1041.9
637.78	1072.54
637.831	1053.93
637.883	1061.69
637.935	1070.58
637.987	1058.68
638.039	1053.35
638.091	1061.14
638.143	1097.37
638.194	1084.19
638.246	1077.48
638.298	1098.06
638.35	1090.03
638.402	1081.93
638.454	1083.66
638.505	1085.4
638.557	1086.12
638.609	1069.44
638.661	1093.33
638.713	1096.53
638.765	1094.36
638.816	1097.69
638.868	1079.18
638.92	1073.75
638.972	1078.09
639.024	1089.96
639.076	1083.12
639.127	1064.16
639.179	1073.57
639.231	1077.55
639.283	1053.27
639.335	1071.7
639.387	1043.33
639.438	1052.15
639.49	1042.43
639.542	1033.77
639.594	1029.42
639.646	1061.06
639.698	1052.3
639.749	1053.38
639.801	1040.28
639.853	1026.06
639.905	1033.6
639.957	1023.57
640.008	1041.8
640.06	1015.25
640.112	1009.43
640.164	1004.8
640.216	1000.32
640.268	1006.93
640.319	999.558
640.371	1008.68
640.423	980.787
640.475	989.975
640.527	984.899
640.578	957.84
640.63	988.503
640.682	973.129
640.734	956.536
640.786	955.154
640.838	972.304
640.889	937.114
640.941	968.547
640.993	972.786
641.045	949.82
641.097	945.403
641.148	964.924
641.2	946.196
641.252	938.28
641.304	951.006
641.356	944.13
641.408	934.074
641.459	952.455
641.511	951.379
641.563	929.71
641.615	920.021
641.667	947.274
641.718	921.041
641.77	927.33
641.822	924.814
641.874	932.067
641.926	925.242
641.977	917.455
642.029	959.812
642.081	930.549
642.133	929.621
642.185	905.87
642.236	942.979
642.288	932.162
642.34	922.346
642.392	925.507
642.444	941.666
642.495	948.016
642.547	919.589
642.599	922.713
642.651	939.986
642.703	948.567
642.754	907.148
642.806	929.782
642.858	924.109
642.91	935.749
642.962	931.065
643.013	932.885
643.065	931.471
643.117	922.505
643.169	922.241
643.221	932.821
643.272	930.381
643.324	944.15
643.376	955.711
643.428	926.137
643.479	936.628
643.531	920.15
643.583	936.212
643.635	931.853
643.687	918.956
643.738	929.907
643.79	935.427
643.842	934.365
643.894	953.707
643.946	944.784
643.997	921.698
644.049	918.01
644.101	929.439
644.153	935.523
644.205	951.401
644.256	943.637
644.308	918.692
644.36	940.151
644.412	936.832
644.463	956.174
644.515	945.368
644.567	937.847
644.619	919.591
644.671	975.75
644.722	944.569
644.774	943.539
644.826	933.84
644.878	938.135
644.929	958.612
644.981	957.55
645.033	940.336
645.085	958.695
645.136	946.802
645.188	946.684
645.24	952.956
645.292	953.809
645.344	953.629
645.395	965.412
645.447	971.95
645.499	937.66
645.551	940.077
645.602	946.82
645.654	942.759
645.706	964.574
645.758	968.071
645.81	955.442
645.861	976.376
645.913	956.349
645.965	981.745
646.017	967.108
646.068	966.426
646.12	977.508
646.172	932.138
646.224	959.157
646.275	944.927
646.327	969.587
646.379	983.387
646.431	961.504
646.482	980.778
646.534	978.509
646.586	991.471
646.638	978.559
646.689	962.437
646.741	951.706
646.793	967.962
646.845	976.588
646.896	985.176
646.948	977.546
647	978.611
647.052	961.351
647.104	971.162
647.155	984.204
647.207	965.802
647.259	990.534
647.31	975.117
647.362	1000.67
647.414	993.76
647.466	965.301
647.518	990.935
647.569	992.947
647.621	988.604
647.673	977.856
647.724	999.493
647.776	981.136
647.828	992.904
647.88	988.387
647.931	1023.72
647.983	993.254
648.035	1000.6
648.087	990.794
648.138	982.188
648.19	990.928
648.242	1011.58
648.294	1007.42
648.345	991.32
648.397	981.6
648.449	1013.85
648.501	1017.95
648.552	1007.98
648.604	995.804
648.656	1009.47
648.708	1031.74
648.759	1010.94
648.811	1034.32
648.863	1025.47
648.915	988.72
648.966	1029.51
649.018	1020.87
649.07	1020.84
649.121	1029.38
649.173	988.358
649.225	1019.31
649.277	1024.39
649.328	1044.5
649.38	1027.04
649.432	1021.47
649.484	1039.6
649.535	1031.99
649.587	1011.47
649.639	1041.34
649.69	1027.1
649.742	1039.61
649.794	1033.85
649.846	1050.63
649.897	1040.68
649.949	1047.98
650.001	1026.46
650.053	1037.16
650.104	1029.69
650.156	1050.09
650.208	1052.29
650.259	1029.83
650.311	1047.05
650.363	1063.24
650.415	1047.33
650.466	1065.8
650.518	1056.45
650.57	1044.99
650.621	1058.2
650.673	1064.94
650.725	1043.68
650.777	1055.59
650.828	1057.72
650.88	1051.16
650.932	1059.58
650.984	1078.73
651.035	1066.79
651.087	1077.49
651.139	1087.21
651.19	1102.38
651.242	1076.8
651.294	1086.63
651.345	1076.01
651.397	1062.1
651.449	1081.46
651.501	1064.33
651.552	1096.69
651.604	1091.59
651.656	1071.54
651.707	1071.96
651.759	1092.77
651.811	1080.14
651.863	1110.38
651.914	1112.5
651.966	1088.7
652.018	1100.37
652.069	1088.42
652.121	1096.99
652.173	1082
652.224	1116.55
652.276	1107.06
652.328	1098.66
652.38	1108.59
652.431	1107.79
652.483	1087.66
652.535	1128.96
652.586	1119.65
652.638	1110.28
652.69	1126.64
652.741	1122.34
652.793	1137.25
652.845	1118.61
652.897	1127.93
652.948	1122.22
653	1130.65
653.052	1130.64
653.103	1125.39
653.155	1138.52
653.207	1146.21
653.258	1145.16
653.31	1142.84
653.362	1148.95
653.413	1116.16
653.465	1153.25
653.517	1156.99
653.568	1157.56
653.62	1129.23
653.672	1147.2
653.724	1157.71
653.775	1156.41
653.827	1143.24
653.879	1151.44
653.93	1160.62
653.982	1162.23
654.034	1131.71
654.085	1196.66
654.137	1166.38
654.189	1138.37
654.24	1186.42
654.292	1162.66
654.344	1191.18
654.395	1184.18
654.447	1181.3
654.499	1191.16
654.55	1170.07
654.602	1162.97
654.654	1183.72
654.705	1174.66
654.757	1187.98
654.809	1188.42
654.86	1177.08
654.912	1171.03
654.964	1227.75
655.016	1197.43
655.067	1218.3
655.119	1200.03
655.17	1231.79
655.222	1187.11
655.274	1219.89
655.326	1189.91
655.377	1209.69
655.429	1193.26
655.481	1219.15
655.532	1211.05
655.584	1206.13
655.635	1212.94
655.687	1245.28
655.739	1228.08
655.79	1197.36
655.842	1238.72
655.894	1230.41
655.945	1238.96
655.997	1233.6
656.049	1237.55
656.1	1227.59
656.152	1229.2
656.204	1259.36
656.255	1267.44
656.307	1254.53
656.359	1243.81
656.41	1229.93
656.462	1263.48
656.514	1237.81
656.565	1272.2
656.617	1281.23
656.669	1267.12
656.72	1215.21
656.772	1259.35
656.824	1266.75
656.875	1282.71
656.927	1278.72
656.979	1303.29
657.03	1287.88
657.082	1284.16
657.134	1304.81
657.185	1288.56
657.237	1318.74
657.288	1299.13
657.34	1294.11
657.392	1306.82
657.443	1322.5
657.495	1319.04
657.547	1339.89
657.598	1329.15
657.65	1332.32
657.702	1327.22
657.753	1314.84
657.805	1320.5
657.857	1329.35
657.908	1337.13
657.96	1324.78
658.011	1316.67
658.063	1343.54
658.115	1328.14
658.166	1340.35
658.218	1335.67
658.27	1326.73
658.321	1331.51
658.373	1344.69
658.425	1350.33
658.476	1356.94
658.528	1322.1
658.579	1343.56
658.631	1369.32
658.683	1359.01
658.734	1348.72
658.786	1366.05
658.838	1366.34
658.889	1378.3
658.941	1382.84
658.992	1386.39
659.044	1369.84
659.096	1397.08
659.147	1337.1
659.199	1384.77
659.251	1373.82
659.302	1389.45
659.354	1397.48
659.406	1363.73
659.457	1375.73
659.509	1373.71
659.56	1384.36
659.612	1391.66
659.664	1366.78
659.715	1388.73
659.767	1362.54
659.818	1382.15
659.87	1401.74
659.922	1384.08
659.973	1412.34
660.025	1391.73
660.077	1375.54
660.128	1404.23
660.18	1387.3
660.231	1377.96
660.283	1408.09
660.335	1360.45
660.386	1389.38
660.438	1394.65
660.49	1362.37
660.541	1392.72
660.593	1411.2
660.644	1362.64
660.696	1396.08
660.748	1395.61
660.799	1376.11
660.851	1382.14
660.902	1373.23
660.954	1373.78
661.006	1364.67
661.057	1393.69
661.109	1388.75
661.16	1407.16
661.212	1372.65
661.264	1371.03
661.315	1400.11
661.367	1382.63
661.418	1400.06
661.47	1382.61
661.522	1378.95
661.573	1361.62
661.625	1378.15
661.676	1396.85
661.728	1395.51
661.78	1386.78
661.831	1364.32
661.883	1377.69
661.934	1374.1
661.986	1355.64
662.038	1384.5
662.089	1400.54
662.141	1381.69
662.192	1363.82
662.244	1373.24
662.296	1371.13
662.347	1392.2
662.399	1380.93
662.45	1364.62
662.502	1355.83
662.554	1354.51
662.605	1380.45
662.657	1380.15
662.708	1346.2
662.76	1373.82
662.811	1354.15
662.863	1374.05
662.915	1361.46
662.966	1366.63
663.018	1366.69
663.069	1360.7
663.121	1357.06
663.173	1390.16
663.224	1359.98
663.276	1378.9
663.327	1358.27
663.379	1364.6
663.43	1337.39
663.482	1345.34
663.534	1333.28
663.585	1340.86
663.637	1373.38
663.688	1351.9
663.74	1376.27
663.792	1388.07
663.843	1348.01
663.895	1353.67
663.946	1356.38
663.998	1359.84
664.049	1364.43
664.101	1352.85
664.153	1351.46
664.204	1367.4
664.256	1395.47
664.307	1358.6
664.359	1351.48
664.41	1376.33
664.462	1365.39
664.513	1358.84
664.565	1352.91
664.617	1343.56
664.668	1396.15
664.72	1349.28
664.771	1363.34
664.823	1349.1
664.874	1365.2
664.926	1369.85
664.978	1358.81
665.029	1358.39
665.081	1387.45
665.132	1389.72
665.184	1326.51
665.235	1354.63
665.287	1363.12
665.339	1361.35
665.39	1379.02
665.442	1354.64
665.493	1363.1
665.545	1357.54
665.596	1372.13
665.648	1365.25
665.699	1358.29
665.751	1363.88
665.802	1365.61
665.854	1369.25
665.906	1360.2
665.957	1362.18
666.009	1369.57
666.06	1361.83
666.112	1366.42
666.163	1374.02
666.215	1357.78
666.266	1370.13
666.318	1374.49
666.37	1358.53
666.421	1362.04
666.473	1360.22
666.524	1371.58
666.576	1362.72
666.627	1352.37
666.679	1362.05
666.73	1364.69
666.782	1368.16
666.833	1373.32
666.885	1367.42
666.937	1365.25
666.988	1353.8
667.04	1362.27
667.091	1371.66
667.143	1364.03
667.194	1336.98
667.246	1355.28
667.297	1351.05
667.349	1360.15
667.4	1347.88
667.452	1353.92
667.503	1357.32
667.555	1357.92
667.607	1365.76
667.658	1371.32
667.71	1373.39
667.761	1358.75
667.813	1348.71
667.864	1375.18
667.916	1374.09
667.967	1357.57
668.019	1354.16
668.07	1366
668.122	1361.59
668.173	1355.13
668.225	1338.72
668.276	1335.34
668.328	1348.62
668.379	1347.84
668.431	1360.82
668.482	1387.38
668.534	1380.14
668.586	1366.35
668.637	1379.75
668.689	1378.13
668.74	1354.76
668.792	1357.21
668.843	1381.35
668.895	1368.45
668.935	1388.89
668.987	1344.54
669.038	1363.88
669.09	1337.47
669.142	1366.3
669.194	1357.47
669.245	1388.12
669.297	1405.04
669.349	1392.64
669.401	1383.41
669.453	1361.8
669.504	1396.83
669.556	1355.82
669.608	1369.32
669.66	1416.37
669.711	1364.93
669.763	1378.2
669.815	1368.19
669.867	1388.37
669.918	1374.9
669.97	1380.31
670.022	1368.01
670.074	1368.47
670.125	1383.81
670.177	1382.5
670.229	1363.36
670.281	1376.76
670.332	1390.04
670.384	1385.24
670.436	1375.99
670.488	1390.73
670.539	1371.59
670.591	1382.84
670.643	1385.59
670.695	1357.81
670.747	1381.6
670.798	1374.96
670.85	1383.13
670.902	1372.48
670.953	1356.65
671.005	1380.79
671.057	1386
671.109	1372.22
671.161	1389.87
671.212	1381.12
671.264	1360.72
671.316	1404.28
671.367	1381.69
671.419	1408.45
671.471	1411.18
671.523	1376.31
671.575	1397.14
671.626	1380.36
671.678	1361.56
671.73	1378.43
671.781	1396.32
671.833	1396.32
671.885	1378.42
671.937	1361.5
671.988	1366.54
672.04	1377.87
672.092	1378.78
672.144	1378.74
672.195	1370.4
672.247	1387.27
672.299	1413.57
672.351	1394.73
672.402	1399.86
672.454	1371.3
672.506	1392.91
672.558	1396.64
672.609	1397.23
672.661	1390.55
672.713	1411.14
672.765	1381.55
672.816	1354.01
672.868	1391.17
672.92	1393.63
672.971	1387.54
673.023	1393.82
673.075	1375.03
673.127	1386.56
673.178	1373.29
673.23	1402.95
673.282	1407.85
673.334	1411.86
673.385	1396.12
673.437	1392.76
673.489	1404.83
673.54	1404.26
673.592	1391.13
673.644	1394.64
673.696	1393.07
673.747	1398.93
673.799	1421.54
673.851	1384.06
673.903	1392.22
673.954	1423.12
674.006	1385.46
674.058	1415.08
674.109	1422.84
674.161	1404.62
674.213	1414.31
674.265	1403.24
674.316	1435.54
674.368	1407.78
674.42	1423.42
674.471	1407.08
674.523	1414.61
674.575	1396.57
674.627	1428.29
674.678	1422.09
674.73	1395.42
674.782	1376.03
674.833	1421.56
674.885	1406.06
674.937	1418.22
674.989	1421.94
675.04	1420.4
675.092	1402.38
675.144	1436
675.195	1453.32
675.247	1447.16
675.299	1404.11
675.351	1418.88
675.402	1440.94
675.454	1417.67
675.506	1430.47
675.557	1436.06
675.609	1402.45
675.661	1435.95
675.713	1441.61
675.764	1432.84
675.816	1454.05
675.868	1447.37
675.919	1462.42
675.971	1458.89
676.023	1435.73
676.074	1445.72
676.126	1448.49
676.178	1449.2
676.23	1444.75
676.281	1465.22
676.333	1456.67
676.385	1446.08
676.436	1451.11
676.488	1455.12
676.54	1478.91
676.591	1454.77
676.643	1467
676.695	1459.37
676.747	1470.44
676.798	1457.49
676.85	1471.67
676.902	1462.93
676.953	1481.4
677.005	1482.18
677.057	1480.93
677.108	1465.07
677.16	1469.09
677.212	1487.76
677.263	1449.8
677.315	1479.91
677.367	1481.65
677.419	1494.85
677.47	1450.26
677.522	1469.68
677.574	1460.74
677.625	1491.76
677.677	1469.19
677.729	1452.92
677.78	1490.28
677.832	1486.55
677.884	1472.25
677.935	1476.89
677.987	1480.53
678.039	1491.64
678.091	1474.38
678.142	1488.79
678.194	1457.74
678.246	1491.97
678.297	1502.74
678.349	1484.77
678.401	1488.87
678.452	1484.56
678.504	1504.71
678.556	1475.47
678.607	1496.07
678.659	1480.85
678.711	1490.9
678.762	1517.64
678.814	1505.99
678.866	1492.96
678.917	1489.24
678.969	1486.52
679.021	1488.11
679.072	1488.78
679.124	1515.98
679.176	1490.45
679.227	1492.3
679.279	1470.8
679.331	1499.77
679.382	1493.82
679.434	1498.39
679.486	1516.72
679.537	1482.51
679.589	1533.68
679.641	1497.53
679.692	1481.36
679.744	1486.16
679.796	1495.1
679.847	1482.97
679.899	1485.58
679.951	1490.37
680.003	1487.89
680.054	1479.19
680.106	1528.23
680.157	1484.85
680.209	1516.93
680.261	1472.32
680.312	1506.25
680.364	1464.64
680.416	1491.11
680.467	1483.01
680.519	1522.01
680.571	1493.02
680.622	1496.48
680.674	1503.09
680.726	1521.21
680.777	1502.86
680.829	1514.88
680.881	1501.98
680.932	1492.32
680.984	1458.76
681.036	1502.35
681.087	1509.33
681.139	1500.47
681.191	1497.61
681.242	1515.32
681.294	1496.47
681.346	1491.2
681.397	1488.23
681.449	1481.45
681.501	1476.09
681.552	1489.74
681.604	1506.7
681.656	1491.49
681.707	1510.42
681.759	1487.55
681.81	1505.96
681.862	1481.59
681.914	1518.39
681.965	1489.85
682.017	1521.65
682.069	1513.24
682.12	1483.29
682.172	1526.17
682.224	1513.16
682.275	1503.3
682.327	1513.13
682.379	1496.88
682.43	1514.76
682.482	1537.65
682.533	1520.86
682.585	1517.41
682.637	1534.62
682.688	1500.93
682.74	1528.54
682.792	1504.42
682.843	1523.05
682.895	1525.32
682.947	1509.11
682.998	1512.76
683.05	1502.96
683.102	1537.81
683.153	1516.49
683.205	1523.17
683.256	1514.24
683.308	1509.52
683.36	1532.99
683.411	1520.17
683.463	1528.27
683.515	1530.18
683.566	1501.83
683.618	1505.71
683.669	1548.06
683.721	1525.49
683.773	1534.01
683.824	1536.08
683.876	1519.23
683.928	1543.1
683.979	1514.87
684.031	1522.33
684.082	1522.69
684.134	1519.06
684.186	1517.6
684.237	1520.3
684.289	1514.52
684.341	1529.51
684.392	1508.79
684.444	1531.97
684.495	1520.66
684.547	1557.61
684.599	1547.63
684.65	1525.23
684.702	1500.83
684.754	1535.18
684.805	1521.29
684.857	1526.21
684.908	1505.81
684.96	1537.78
685.012	1504.49
685.063	1492.07
685.115	1499.49
685.166	1525.73
685.218	1538.22
685.27	1508.64
685.321	1508.47
685.373	1503.09
685.424	1512.49
685.476	1529.35
685.528	1509.53
685.579	1513.93
685.631	1507.84
685.683	1505.93
685.734	1523.95
685.786	1492.54
685.837	1533.65
685.889	1530.64
685.941	1501.41
685.992	1503.76
686.044	1507.19
686.095	1510.59
686.147	1519.18
686.199	1541.36
686.25	1522.41
686.302	1528.64
686.353	1507.48
686.405	1516.82
686.457	1509.34
686.508	1519.75
686.56	1513.36
686.611	1518.57
686.663	1456.53
686.715	1503.93
686.766	1492.51
686.818	1507.43
686.869	1487.59
686.921	1521.3
686.973	1521.16
687.024	1503.95
687.076	1509.67
687.127	1519.46
687.179	1488.24
687.231	1502.29
687.282	1499.7
687.334	1491
687.385	1513.95
687.437	1487.68
687.489	1503.37
687.54	1490.68
687.592	1490.45
687.643	1518.4
687.695	1510.55
687.747	1502.59
687.798	1505.02
687.85	1485.46
687.901	1484.81
687.953	1494.75
688.004	1493.36
688.056	1508.88
688.108	1497.36
688.159	1500.56
688.211	1487.03
688.262	1487.07
688.314	1488.1
688.366	1483.88
688.417	1462.96
688.469	1479.74
688.52	1519.59
688.572	1484.2
688.623	1480.17
688.675	1500.17
688.727	1466.75
688.778	1516.98
688.83	1497.11
688.881	1498.16
688.933	1469.93
688.984	1507.6
689.036	1504.41
689.088	1453
689.139	1486.25
689.191	1495.4
689.242	1502.53
689.294	1499.38
689.346	1486
689.397	1511.57
689.449	1482.91
689.5	1472.1
689.552	1474.84
689.603	1476.39
689.655	1477.75
689.706	1500.93
689.758	1492.56
689.81	1489.39
689.861	1497.78
689.913	1484.25
689.964	1488.63
690.016	1522.41
690.067	1484.88
690.119	1472.46
690.171	1488.28
690.222	1467.32
690.274	1469.43
690.325	1477.91
690.377	1462.42
690.428	1477.56
690.48	1484.52
690.531	1495.86
690.583	1491.52
690.635	1441.91
690.686	1474.18
690.738	1473.65
690.789	1459.25
690.841	1490
690.892	1474.42
690.944	1471.6
690.996	1472.15
691.047	1502.46
691.099	1471.79
691.15	1465.42
691.202	1486.45
691.253	1469.3
691.305	1444.56
691.356	1489.51
691.408	1477.32
691.459	1454.57
691.511	1465.76
691.563	1465.32
691.614	1499.81
691.666	1466.31
691.717	1486.67
691.769	1486.7
691.82	1491.89
691.872	1462.05
691.923	1462.98
691.975	1478.83
692.026	1467.22
692.078	1484.36
692.13	1479.35
692.181	1444.75
692.233	1450.54
692.284	1454.23
692.336	1465.34
692.387	1454.06
692.439	1412.93
692.49	1451.38
692.542	1463.28
692.593	1469.94
692.645	1496.97
692.697	1448.67
692.748	1441.97
692.8	1482.15
692.851	1438.14
692.903	1460
692.954	1457.12
693.006	1428.42
693.057	1428.29
693.109	1455.77
693.16	1463
693.212	1467.13
693.263	1467.17
693.315	1452.5
693.366	1456.12
693.418	1444.91
693.47	1445.45
693.521	1477.93
693.573	1454.8
693.624	1463.55
693.676	1435.86
693.727	1448.62
693.779	1455.98
693.83	1466.5
693.882	1443.97
693.933	1440.73
693.985	1464.31
694.036	1444.28
694.088	1430.78
694.139	1473.94
694.191	1433.78
694.242	1425.56
694.294	1463.15
694.345	1440.72
694.397	1453.44
694.448	1432.95
694.5	1431.67
694.552	1416.51
694.603	1467.62
694.655	1429.09
694.706	1444.09
694.758	1460.3
694.809	1457.44
694.861	1480.36
694.912	1437.07
694.964	1433.3
695.015	1450.85
695.067	1441.55
695.118	1458.93
695.17	1455.94
695.221	1429.42
695.273	1438.27
695.324	1431.11
695.376	1430.39
695.427	1444.63
695.479	1406.31
695.53	1454.78
695.582	1443.22
695.633	1442.44
695.685	1444.99
695.736	1435.86
695.788	1430.07
695.839	1424.33
695.891	1435.8
695.942	1460.13
695.994	1442.47
696.045	1445.18
696.097	1456.46
696.148	1444.05
696.2	1428.43
696.251	1419.31
696.303	1441.5
696.354	1434.62
696.406	1456.89
696.457	1433.85
696.509	1457.27
696.56	1439.66
696.612	1433.97
696.663	1423.96
696.715	1428.02
696.766	1452.65
696.818	1446.92
696.869	1409.7
696.921	1409.31
696.972	1454.53
697.024	1441.19
697.075	1425.69
697.127	1428.66
697.178	1433.75
697.23	1425.67
697.281	1456.72
697.333	1461.66
697.384	1419.86
697.436	1446.88
697.487	1411.94
697.539	1437.17
697.59	1413.31
697.642	1449.52
697.693	1434.17
697.745	1428.45
697.796	1435.71
697.847	1450.6
697.899	1417.3
697.95	1445.56
698.002	1428.98
698.053	1446.52
698.105	1440.94
698.156	1453.89
698.208	1412.64
698.259	1423.96
698.311	1435.07
698.362	1426.24
698.414	1440.54
698.465	1427.37
698.517	1426.39
698.568	1412.27
698.62	1416.92
698.671	1441.41
698.723	1433.95
698.774	1415.47
698.826	1395.91
698.877	1417.17
698.928	1426.34
698.98	1399.14
699.031	1419.4
699.083	1417.59
699.134	1416.85
699.186	1407.24
699.237	1388.72
699.289	1415.44
699.34	1398.97
699.392	1414.44
699.443	1409.92
699.495	1401.98
699.546	1387.33
699.598	1421.22
699.649	1382.21
699.7	1421.63
699.752	1433.54
699.803	1406.98
699.855	1381.7
699.906	1404.06
699.958	1432.08
700.009	1400.54
700.061	1410.91
700.112	1400.13
700.164	1405.67
700.215	1404.26
700.266	1409.19
700.318	1430.47
700.369	1408.64
700.421	1388.04
700.472	1402.97
700.524	1393.94
700.575	1401.75
700.627	1402.02
700.678	1384.68
700.73	1385.93
700.781	1394.64
700.832	1390.94
700.884	1410.18
700.935	1372.12
700.987	1405.78
701.038	1383.55
701.09	1394.61
701.141	1400.36
701.193	1402.82
701.244	1408.45
701.295	1412.72
701.347	1382.6
701.398	1385.32
701.45	1395.68
701.501	1411.6
701.553	1404.58
701.604	1385.66
701.656	1405.36
701.707	1374.63
701.758	1386.82
701.81	1417.71
701.861	1373.85
701.913	1396.98
701.964	1414.52
702.016	1386.88
702.067	1366.81
702.119	1405.95
702.17	1413.17
702.221	1364.45
702.273	1394.88
702.324	1405.72
702.376	1405.75
702.427	1416.87
702.479	1389.61
702.53	1389.7
702.581	1371.01
702.633	1408.19
702.684	1383.86
702.736	1403.48
702.787	1412.28
702.839	1387.26
702.89	1384.37
702.941	1383.79
702.993	1383.23
703.044	1400.19
703.096	1402.75
703.147	1395.34
703.199	1393.43
703.25	1380.61
703.301	1406.49
703.353	1377.55
703.404	1357.55
703.456	1398.23
703.507	1393.66
703.558	1409.9
703.61	1403.87
703.661	1381.11
703.713	1400.25
703.764	1378.56
703.816	1418.94
703.867	1377.69
703.918	1396.38
703.97	1393.06
704.021	1379.77
704.073	1406.3
704.124	1408.25
704.175	1371.09
704.227	1404.85
704.278	1401.85
704.33	1402.19
704.381	1387.06
704.432	1412.13
704.484	1396.18
704.535	1398.14
704.587	1388.99
704.638	1395.43
704.69	1390.68
704.741	1381.42
704.792	1384.43
704.844	1389.68
704.895	1375.96
704.947	1361.13
704.998	1373.18
705.049	1413.25
705.101	1414.12
705.152	1386.92
705.204	1402.35
705.255	1397.6
705.306	1363.63
705.358	1398.26
705.409	1374.45
705.461	1391.18
705.512	1394.45
705.563	1371.8
705.615	1399.9
705.666	1371.49
705.718	1373.44
705.769	1375.21
705.82	1382.44
705.872	1380.48
705.923	1378.44
705.974	1402.5
706.026	1362.2
706.077	1382.16
706.129	1368.38
706.18	1374.06
706.231	1385.48
706.283	1383.22
706.334	1381.94
706.386	1386.16
706.437	1390.25
706.488	1380.62
706.54	1376.74
706.591	1352.44
706.643	1385.29
706.694	1360.01
706.745	1395.26
706.797	1379.02
706.848	1362.63
706.899	1388.44
706.951	1385.54
707.002	1389.45
707.054	1387.59
707.105	1360.48
707.156	1368.83
707.208	1370.22
707.259	1363.5
707.31	1371.63
707.362	1335.02
707.413	1360.4
707.465	1361.8
707.516	1351.83
707.567	1341.91
707.619	1360.68
707.67	1373.59
707.721	1361.02
707.773	1341.42
707.824	1373.43
707.876	1353.79
707.927	1393.96
707.978	1343.55
708.03	1355.3
708.081	1352.21
708.132	1337.69
708.184	1372.59
708.235	1362.62
708.287	1321.54
708.338	1371.28
708.389	1357.71
708.441	1326.84
708.492	1361.52
708.543	1346.64
708.595	1345.47
708.646	1352.22
708.697	1332.37
708.749	1363.06
708.8	1354.62
708.852	1357.77
708.903	1317.44
708.954	1349.8
709.006	1337.61
709.057	1362.46
709.108	1342.59
709.16	1350.38
709.211	1355.79
709.262	1337.96
709.314	1336.07
709.365	1325.86
709.416	1326.99
709.468	1341.79
709.519	1370.32
709.57	1328.45
709.622	1356.97
709.673	1333.76
709.725	1353.4
709.776	1315.66
709.827	1342.71
709.879	1327.27
709.93	1356.91
709.981	1350.72
710.033	1327.08
710.084	1331.04
710.135	1326.82
710.187	1349.23
710.238	1359.02
710.289	1351.59
710.341	1312.98
710.392	1338.14
710.443	1349.32
710.495	1338.28
710.546	1339.82
710.597	1357.46
710.649	1350.67
710.7	1319.54
710.751	1351.24
710.803	1343.56
710.854	1318.49
710.905	1331.8
710.957	1321.82
711.008	1338.62
711.059	1346.2
711.111	1349.29
711.162	1342.06
711.213	1361.82
711.265	1343.27
711.316	1348.08
711.367	1329.7
711.419	1312.31
711.47	1326.12
711.521	1337.96
711.573	1328.98
711.624	1340.01
711.675	1325.66
711.727	1337.47
711.778	1320.02
711.829	1328.37
711.881	1343.34
711.932	1350.05
711.983	1338.38
712.035	1348.11
712.086	1328.87
712.137	1349.61
712.189	1345.48
712.24	1343.11
712.291	1326.71
712.343	1327.71
712.394	1334.13
712.445	1327.28
712.496	1329.51
712.548	1360.15
712.599	1342.16
712.65	1337.52
712.702	1331.04
712.753	1319.49
712.804	1340.61
712.856	1314.53
712.907	1324.64
712.958	1333.92
713.01	1327.93
713.061	1346.93
713.112	1337.65
713.164	1315.73
713.215	1316.97
713.266	1311.87
713.317	1313.87
713.369	1313.59
713.42	1317.25
713.471	1322.79
713.523	1326.38
713.574	1340.08
713.625	1320.37
713.677	1317.73
713.728	1312.42
713.779	1335.75
713.831	1320.54
713.882	1316.41
713.933	1316.7
713.984	1314.91
714.036	1317.66
714.087	1323.73
714.138	1315.51
714.19	1319.59
714.241	1331.57
714.292	1330.73
714.343	1320.89
714.395	1324.36
714.446	1318.39
714.497	1300.93
714.549	1312.63
714.6	1322.1
714.651	1303.37
714.703	1310.18
714.754	1300.74
714.805	1293.04
714.856	1306.72
714.908	1295.91
714.959	1287.04
715.01	1297.23
715.062	1296.06
715.113	1294.35
715.164	1304.99
715.215	1302.05
715.267	1295.03
715.318	1298.85
715.369	1303.15
715.421	1314.4
715.472	1300.37
715.523	1301.21
715.574	1306.31
715.626	1291.76
715.677	1291.67
715.728	1297.36
715.779	1274.02
715.831	1268.01
715.882	1279.26
715.933	1294.64
715.985	1281.92
716.036	1285.65
716.087	1283.58
716.138	1290.57
716.19	1279.85
716.241	1269.26
716.292	1279.78
716.343	1289.36
716.395	1269.07
716.433	1306.06
716.485	1278.93
716.536	1319.17
716.588	1289.98
716.639	1275.62
716.691	1274.79
716.742	1254.43
716.794	1263.37
716.845	1277.11
716.897	1241.82
716.948	1259.08
717	1281.25
717.052	1287.59
717.103	1280.55
717.155	1256.45
717.206	1269.11
717.258	1264.57
717.309	1270.96
717.361	1273.56
717.412	1256.49
717.464	1266.42
717.515	1269.1
717.567	1252.32
717.618	1235.69
717.67	1269.49
717.721	1260.33
717.773	1271.98
717.824	1257.68
717.876	1249.36
717.927	1259.37
717.979	1228.73
718.03	1254.68
718.082	1262.28
718.133	1244.22
718.185	1257.16
718.237	1259.25
718.288	1263.98
718.34	1277.43
718.391	1258.74
718.443	1264.57
718.494	1245.43
718.546	1253.19
718.597	1232.25
718.649	1261.87
718.7	1240.74
718.752	1260.53
718.803	1263.18
718.855	1247.5
718.906	1262.95
718.958	1222.82
719.009	1244.7
719.061	1228.16
719.112	1240.13
719.164	1234.65
719.215	1247.71
719.267	1250.71
719.318	1252.33
719.37	1243.9
719.421	1247.84
719.473	1250.56
719.524	1254.61
719.576	1253.83
719.627	1248.25
719.679	1222.88
719.73	1213.82
719.782	1248.5
719.833	1234.51
719.885	1224.2
719.936	1241.33
719.988	1245.85
720.039	1235.22
720.091	1199.39
720.142	1231.13
720.194	1193.85
720.245	1246.86
720.297	1249.78
720.348	1231.47
720.4	1247.19
720.451	1236.65
720.503	1208.55
720.554	1228.24
720.606	1246.63
720.657	1247.3
720.709	1237.8
720.76	1230.75
720.812	1235.01
720.863	1205.19
720.915	1215.73
720.966	1242.66
721.018	1232.89
721.069	1206.61
721.121	1215.66
721.172	1200.71
721.224	1218.72
721.275	1210.36
721.327	1228.77
721.378	1218.23
721.43	1195.06
721.481	1206.06
721.532	1227.08
721.584	1206.04
721.635	1205.17
721.687	1213.13
721.738	1222.41
721.79	1198.8
721.841	1203.35
721.893	1217
721.944	1184.92
721.996	1182.15
722.047	1221.43
722.099	1198.02
722.15	1230.6
722.202	1185.03
722.253	1189.12
722.305	1188.01
722.356	1175.37
722.408	1185.8
722.459	1187.39
722.511	1218.54
722.562	1172.95
722.614	1178.57
722.665	1202.07
722.716	1169.09
722.768	1184.74
722.819	1179.84
722.871	1191.66
722.922	1208.76
722.974	1187.5
723.025	1188.18
723.077	1200.47
723.128	1186.99
723.18	1175.92
723.231	1167.23
723.283	1182.84
723.334	1181.63
723.386	1144.35
723.437	1177.89
723.488	1189.59
723.54	1201.29
723.591	1171.69
723.643	1178.02
723.694	1171.38
723.746	1164.72
723.797	1149.15
723.849	1153.07
723.9	1148.2
723.952	1193.78
724.003	1127.45
724.055	1162.96
724.106	1136.57
724.157	1175.91
724.209	1148.09
724.26	1175.78
724.312	1178.93
724.363	1154.94
724.415	1165.84
724.466	1155.98
724.518	1170.6
724.569	1157.91
724.621	1187.87
724.672	1175.04
724.723	1138.9
724.775	1167.61
724.826	1164.01
724.878	1163.07
724.929	1136.24
724.981	1130.2
725.032	1170.91
725.084	1174.04
725.135	1151.25
725.187	1151.88
725.238	1140.83
725.289	1172.72
725.341	1130.37
725.392	1146.55
725.444	1149.64
725.495	1160.51
725.547	1172.66
725.598	1165.19
725.65	1143.32
725.701	1129.22
725.752	1150.31
725.804	1141.33
725.855	1125.83
725.907	1141.74
725.958	1168.22
726.01	1129.49
726.061	1162.78
726.112	1137.32
726.164	1132.83
726.215	1137.52
726.267	1140.87
726.318	1136.29
726.37	1135.58
726.421	1137.42
726.473	1172.04
726.524	1110.7
726.575	1159.78
726.627	1135.31
726.678	1146.49
726.73	1101.21
726.781	1148.3
726.833	1156
726.884	1132.04
726.935	1117.23
726.987	1147.28
727.038	1145.49
727.09	1130.4
727.141	1140.53
727.193	1146.8
727.244	1139.94
727.295	1087.95
727.347	1145.04
727.398	1127.54
727.45	1128.53
727.501	1133.32
727.552	1109.88
727.604	1141.02
727.655	1129.29
727.707	1142.87
727.758	1127.02
727.81	1121.91
727.861	1114.26
727.912	1106.81
727.964	1123.72
728.015	1103.39
728.067	1118.13
728.118	1124.94
728.17	1111.53
728.221	1146.42
728.272	1092.13
728.324	1115.78
728.375	1121.73
728.427	1107.36
728.478	1097.07
728.529	1100.39
728.581	1128.19
728.632	1110.11
728.684	1113.74
728.735	1097.1
728.786	1113.07
728.838	1106.04
728.889	1094.98
728.941	1120.7
728.992	1108.26
729.044	1116.11
729.095	1121
729.146	1077.81
729.198	1108.11
729.249	1127.32
729.301	1098.68
729.352	1105.67
729.403	1071.88
729.455	1125.89
729.506	1088.52
729.558	1071.82
729.609	1077.11
729.66	1091.95
729.712	1087.38
729.763	1099.06
729.815	1091.23
729.866	1096.97
729.917	1109.54
729.969	1086.38
730.02	1077.15
730.072	1090.2
730.123	1069
730.174	1086.57
730.226	1087.64
730.277	1102.49
730.329	1097.82
730.38	1080.47
730.431	1082.3
730.483	1102.01
730.534	1077.29
730.586	1072.01
730.637	1082.09
730.688	1078.47
730.74	1066.66
730.791	1068.84
730.842	1090.51
730.894	1032.78
730.945	1083.45
730.997	1082.41
731.048	1067.26
731.099	1063.17
731.151	1089.74
731.202	1069.03
731.254	1058.19
731.305	1078.16
731.356	1091.27
731.408	1076.52
731.459	1077.12
731.51	1084.71
731.562	1062.9
731.613	1056.44
731.665	1058.34
731.716	1051.77
731.767	1098.35
731.819	1073.39
731.87	1055.31
731.922	1070.78
731.973	1069.38
732.024	1065.17
732.076	1066.6
732.127	1051.29
732.178	1066.91
732.23	1040.59
732.281	1045.21
732.333	1041.5
732.384	1042.04
732.435	1072.1
732.487	1071.23
732.538	1063.25
732.589	1073.47
732.641	1063.91
732.692	1013.45
732.744	1069.94
732.795	1041.98
732.846	1036.58
732.898	1090.42
732.949	1066.84
733	1058.78
733.052	1047.9
733.103	1052.49
733.154	1061.25
733.206	1054.4
733.257	1043.24
733.309	1053.21
733.36	1049.04
733.411	1067.47
733.463	1009.65
733.514	1029.49
733.565	1054.99
733.617	1048
733.668	1073.48
733.719	1049.54
733.771	1042.56
733.822	1018.65
733.873	1030.11
733.925	1061.41
733.976	1013.62
734.028	1029.5
734.079	1066.62
734.13	1035.8
734.182	1019.04
734.233	1055.98
734.284	1037.62
734.336	1034.78
734.387	1024.87
734.438	1036.26
734.49	1037.84
734.541	1049.45
734.592	1046.98
734.644	1024.71
734.695	1035.04
734.747	1035.41
734.798	1011.63
734.849	1045.98
734.901	1043.43
734.952	1009.61
735.003	1036.84
735.055	1047
735.106	1037.23
735.157	1055.83
735.209	1030.32
735.26	1006.18
735.311	1013.24
735.363	1040.14
735.414	1001.63
735.465	1044.08
735.517	1006.99
735.568	1029.58
735.619	995.44
735.671	1048.01
735.722	998.421
735.773	1027.03
735.825	1024.47
735.876	1048.96
735.927	1016.59
735.979	1025.4
736.03	1048.33
736.081	1009.95
736.133	1018.34
736.184	1019.45
736.235	1003.4
736.287	1010.04
736.338	1045.11
736.389	975.202
736.441	1020.4
736.492	1020.28
736.543	1010.33
736.595	1013.23
736.646	1020.46
736.697	985.178
736.749	1012.42
736.8	987.152
736.851	1005.91
736.903	1011.84
736.954	967.954
737.005	987.939
737.057	1013.55
737.108	995.076
737.159	997.939
737.211	1013.64
737.262	1015.15
737.313	1018.1
737.365	999.672
737.416	1009.61
737.467	993.833
737.518	996.427
737.57	1015.97
737.621	988.585
737.672	996.729
737.724	1000.69
737.775	1001.94
737.826	965.023
737.878	1004.86
737.929	990.825
737.98	993.821
738.032	995.332
738.083	992.48
738.134	986.684
738.186	1014.88
738.237	979.168
738.288	976.118
738.339	1011.42
738.391	974.426
738.442	967.28
738.493	988.532
738.545	992.771
738.596	984.225
738.647	988.404
738.699	971.268
738.75	1002.3
738.801	938.322
738.853	967.901
738.904	966.321
738.955	959.116
739.006	983.128
739.058	1014.27
739.109	985.938
739.16	991.615
739.212	983.116
739.263	993.011
739.314	957.556
739.366	971.661
739.417	997.082
739.468	975.751
739.519	962.905
739.571	979.785
739.622	981.096
739.673	969.703
739.725	956.967
739.776	955.657
739.827	989.858
739.878	951.925
739.93	956.52
739.981	975.279
740.032	957.108
740.084	944.493
740.135	984.227
740.186	978.466
740.237	952.766
740.289	983.715
740.34	982.021
740.391	966.154
740.443	960.235
740.494	967.125
740.545	947.219
740.596	962.855
740.648	934.753
740.699	980.449
740.75	983.756
740.802	961.558
740.853	933.604
740.904	935.319
740.956	946.833
741.007	948.288
741.058	936.89
741.109	979.41
741.161	949.568
741.212	945.335
741.263	944.008
741.314	958.358
741.366	944.351
741.417	904.791
741.468	930.572
741.52	957.784
741.571	916.781
741.622	949.689
741.673	947.068
741.725	928.808
741.776	963.179
741.827	973.358
741.878	922.299
741.93	930.953
741.981	916.771
742.032	933.858
742.083	949.509
742.135	939.569
742.186	939.667
742.237	954.1
742.289	934.443
742.34	911.972
742.391	915.141
742.442	951.052
742.494	921.286
742.545	925.651
742.596	959.899
742.647	942.775
742.699	915.688
742.75	937.151
742.801	941.567
742.852	943.187
742.904	930.566
742.955	959.345
743.006	938.146
743.057	911.213
743.109	899.981
743.16	908.765
743.211	917.583
743.263	916.427
743.314	908.138
743.365	939.904
743.416	935.903
743.468	918.998
743.519	929.269
743.57	936.664
743.621	935.446
743.672	934.199
743.724	928.617
743.775	928.732
743.826	914.497
743.878	914.606
743.929	923.36
743.98	914.97
744.031	898.018
744.083	922.683
744.134	932.963
744.185	910.128
744.236	913.004
744.287	922.943
744.339	908.425
744.39	919.76
744.441	883.847
744.492	925.57
744.544	918.683
744.595	899.005
744.646	898.045
744.697	882.661
744.749	913.171
744.8	919.104
744.851	881.742
744.902	908.994
744.954	900.217
745.005	864.103
745.056	886.964
745.107	869.638
745.159	894.095
745.21	908.608
745.261	916.055
745.312	906.338
745.363	908.173
745.415	894.154
745.466	904.532
745.517	878.78
745.568	896.118
745.62	903.273
745.671	888.779
745.722	904.554
745.773	908.872
745.824	895.986
745.876	900.446
745.927	876.107
745.978	880.558
746.029	910.893
746.081	874.857
746.132	905.054
746.183	913.588
746.234	899.052
746.285	884.532
746.337	893.095
746.388	884.422
746.439	903.176
746.49	900.388
746.542	916.39
746.593	877.68
746.644	879.334
746.695	889.627
746.746	898.431
746.798	882.637
746.849	859.532
746.9	878.152
746.951	901.019
747.003	879.17
747.054	867.455
747.105	890.421
747.156	838.602
747.207	844.556
747.259	856.379
747.31	858.137
747.361	897.324
747.412	891.622
747.463	888.582
747.515	872.357
747.566	868.987
747.617	869.924
747.668	881.03
747.719	869.275
747.771	873.543
747.822	859.253
747.873	865.187
747.924	853.838
747.975	859.701
748.027	869.8
748.078	859.67
748.129	869.67
748.18	858.084
748.231	849.413
748.283	846.537
748.334	862.399
748.385	829.307
748.436	865.306
748.487	869.608
748.539	855.19
748.59	830.722
748.641	862.47
748.692	848.243
748.743	874.466
748.795	834.531
748.846	863.868
748.897	875.973
748.948	864.98
748.999	851.017
749.05	858.609
749.102	861.728
749.153	858.918
749.204	832.844
749.255	868.847
749.306	859.981
749.358	845.34
749.409	850.978
749.46	863.92
749.511	835.064
749.562	842.414
749.614	842.6
749.665	838.467
749.716	838.643
749.767	822.857
749.818	841.719
749.869	835.955
749.921	830.185
749.972	833.118
750.023	817.29
750.074	840.564
750.125	833.5
750.177	845.282
750.228	836.832
750.279	834.201
750.33	840.288
750.381	840.594
750.432	842.337
750.484	849.839
750.535	847.122
750.586	839.979
750.637	826.979
750.688	822.667
750.739	798.069
750.791	818.516
750.842	837.6
750.893	826.279
750.944	817.908
750.995	829.898
751.046	828.802
751.098	807.302
751.149	832.302
751.2	832.528
751.251	828.355
751.302	799.419
751.353	811.267
751.404	818.783
751.456	811.766
751.507	807.688
751.558	834.252
751.609	812.696
751.66	852.443
751.711	839.687
751.763	803.598
751.814	808.476
751.865	795.874
751.916	815.511
751.967	823.465
752.018	835.794
752.07	817.265
752.121	807.454
752.172	834.307
752.223	793.574
752.274	805.748
752.325	838.562
752.376	806.665
752.428	802.703
752.479	832.579
752.53	794.587
752.581	812.518
752.632	812.688
752.683	805.445
752.734	780.492
752.786	810.153
752.837	822.147
752.888	812.026
752.939	801.912
752.99	802.135
753.041	823.044
753.092	799.631
753.144	799.875
753.195	814.925
753.246	807.801
753.297	796.221
753.348	797.924
753.399	792.172
753.45	787.841
753.502	798.265
753.553	802.722
753.604	793.825
753.655	795.29
753.706	798.254
753.757	795.338
753.808	786.566
753.859	767.51
753.911	787.079
753.962	784.515
754.013	813.175
754.064	792.899
754.115	784.468
754.166	778.95
754.217	792.698
754.269	809.375
754.32	794.766
754.371	790.547
754.422	760.996
754.473	791.005
754.524	786.742
754.575	803.319
754.626	775.161
754.678	787.238
754.729	770.993
754.78	778.638
754.831	749.031
754.882	780.653
754.933	775.017
754.984	806.761
755.035	769.79
755.086	795.582
755.138	754.025
755.189	761.768
755.24	781.431
755.291	786.073
755.342	777.198
755.393	774.292
755.444	790.861
755.495	790.988
755.547	770.191
755.598	771.932
755.649	785.741
755.7	766.615
755.751	764.015
755.802	770.423
755.853	766.289
755.904	763.597
755.955	763.839
756.006	765.514
756.058	752.082
756.109	761.157
756.16	776.208
756.211	746.1
756.262	764.113
756.313	770.1
756.364	770.111
756.415	779.215
756.466	753.804
756.518	779.635
756.569	757.364
756.62	750.158
756.671	750.458
756.722	773.317
756.773	749.384
756.824	740.471
756.875	766.224
756.926	758.8
756.977	760.451
757.029	741.003
757.08	768.364
757.131	724.787
757.182	741.608
757.233	749.381
757.284	704.271
757.335	745.313
757.386	753.115
757.437	757.892
757.488	752.063
757.539	749.238
757.59	740.338
757.642	758.687
757.693	751.31
757.744	745.475
757.795	756.348
757.846	739.969
757.897	740.282
757.948	746.656
757.999	731.748
758.05	750.188
758.101	739.723
758.152	747.443
758.203	726.281
758.255	747.677
758.306	734.156
758.357	738.915
758.408	743.71
758.459	734.827
758.51	732.1
758.561	747.546
758.612	733.878
758.663	749.784
758.714	728.439
758.765	737.13
758.816	748.491
758.867	739.818
758.919	714.933
758.97	715.548
759.021	704.318
759.072	754.357
759.123	716.045
759.174	750.102
759.225	724.534
759.276	730.7
759.327	726.235
759.378	722.947
759.429	726.424
759.48	741.511
759.531	730.117
759.582	717.608
759.633	738.48
759.685	724.802
759.736	714.772
759.787	724.33
759.838	717.479
759.889	739.08
759.94	704.687
759.991	726.432
760.042	724.869
760.093	727.569
760.144	725.566
760.195	718.197
760.246	708.131
760.297	723.057
760.348	713.733
760.399	724.778
760.45	708.393
760.501	717.669
760.552	709.25
760.603	717.874
760.655	695.613
760.706	708.502
760.757	717.551
760.808	729.679
760.859	716.393
760.91	709.905
760.961	715.43
761.012	712.044
761.063	731.475
761.114	709.072
761.165	706.41
761.216	692.142
761.267	695.509
761.318	698.401
761.369	696.125
761.42	701.656
761.471	699.473
761.522	700.133
761.573	709.056
761.624	704.725
761.675	689.209
761.726	692.064
761.777	706.464
761.828	719.65
761.88	682.962
761.931	698.243
761.982	703.435
762.033	710.119
762.084	687.351
762.135	685.927
762.186	701.549
762.237	691.012
762.288	679.088
762.339	697.588
762.39	691.493
762.441	684.572
762.492	676.591
762.543	686.087
762.594	687.95
762.645	689.279
762.696	689.898
762.747	688.673
762.798	695.586
762.849	674.068
762.9	689.234
762.951	689.326
763.002	684.993
763.053	696.644
763.104	690.745
763.155	674.386
763.206	687.454
763.257	678.034
763.308	684.568
763.359	675.218
763.41	677.768
763.461	675.589
763.512	680.777
763.563	670.582
763.614	669.802
763.665	666.059
763.678	664.336
763.729	679.865
763.78	684.48
763.832	654.707
763.883	648.76
763.934	682.307
763.986	704.792
764.037	654.522
764.088	673.38
764.139	688.903
764.191	669.741
764.242	674.391
764.293	650.934
764.345	687.61
764.396	656.574
764.447	645.955
764.498	682.529
764.55	663.583
764.601	674.502
764.652	666.461
764.704	656.982
764.755	650.871
764.806	652.843
764.857	665.962
764.909	660.027
764.96	664.977
765.011	653.864
765.062	655.247
765.114	643.93
765.165	642.208
765.216	661.249
765.268	656.792
765.319	650.924
765.37	675.234
765.421	648.779
765.473	669.77
765.524	635.044
765.575	627.163
765.626	655.759
765.678	657.394
765.729	640.054
765.78	668.87
765.831	656.449
765.883	653.575
765.934	641.115
765.985	666.764
766.036	649.365
766.088	660.548
766.139	663.756
766.19	646.307
766.242	644.854
766.293	646.681
766.344	646.993
766.395	656.905
766.447	636.493
766.498	627.163
766.549	646.476
766.6	641.783
766.652	664.217
766.703	618.034
766.754	629.426
766.805	642.527
766.857	639.727
766.908	611.341
766.959	650.139
767.01	637.626
767.062	631.411
767.113	625.105
767.164	634.772
767.215	654.045
767.267	625.247
767.318	642.987
767.369	619.093
767.42	630.548
767.472	624.422
767.523	648.867
767.574	634.822
767.625	644.91
767.677	640.524
767.728	642.538
767.779	628.379
767.83	646.368
767.882	640.111
767.933	632.188
767.984	622.632
768.035	619.547
768.087	626.196
768.138	616.772
768.189	596.096
768.24	606.15
768.292	629.165
768.343	632.76
768.394	623.352
768.445	615.493
768.497	617.302
768.548	636.919
768.599	606.308
768.65	617.89
768.701	608.455
768.753	629.919
768.804	633.584
768.855	629.141
768.906	618.168
768.958	595.748
769.009	615.598
769.06	610.983
769.111	606.335
769.163	593.519
769.214	592.117
769.265	616.833
769.316	608.926
769.367	620.604
769.419	617.567
769.47	627.573
769.521	609.766
769.572	606.65
769.624	614.98
769.675	585.698
769.726	600.603
769.777	605.71
769.828	589.544
769.88	622.52
769.931	603.094
769.982	627.948
770.033	595.46
770.085	620.436
770.136	612.641
770.187	598.279
770.238	601.972
770.289	589.157
770.341	600.951
770.392	612.684
770.443	611.198
770.494	609.703
770.546	621.42
770.597	596.916
770.648	585.638
770.699	597.495
770.75	587.918
770.802	588.254
770.853	608.43
770.904	622.006
770.955	595.859
771.006	584.564
771.058	594.763
771.109	606.593
771.16	576.954
771.211	587.085
771.263	603.863
771.314	589.141
771.365	592.694
771.416	602.914
771.467	586.566
771.519	598.461
771.57	580.418
771.621	595.619
771.672	587.52
771.723	587.735
771.775	607.946
771.826	584.869
771.877	578.472
771.928	563.761
771.979	587.451
772.031	581.139
772.082	584.869
772.133	607.02
772.184	575.674
772.235	577.798
772.287	583.298
772.338	568.684
772.389	567.458
772.44	594.743
772.491	583.316
772.543	600.371
772.594	571.93
772.645	580.436
772.696	590.618
772.747	584.011
772.799	579.155
772.85	599.642
772.901	581.456
772.952	563.283
773.003	577.152
773.055	580.878
773.106	572.736
773.157	574.68
773.208	578.275
773.259	568.313
773.31	582.014
773.362	572.015
773.413	556.92
773.464	563.818
773.515	565.633
773.566	584.399
773.618	560.851
773.669	559.378
773.72	563.057
773.771	578.673
773.822	548.487
773.873	574.32
773.925	571.238
773.976	566.394
774.027	568.309
774.078	565.104
774.129	563.613
774.18	565.555
774.232	562.406
774.283	564.369
774.334	561.195
774.385	561.404
774.436	565.015
774.488	548.152
774.539	541.566
774.59	548.7
774.641	554.177
774.692	552.836
774.743	558.333
774.795	539.808
774.846	565.792
774.897	562.594
774.948	564.513
774.999	573.295
775.05	551.199
775.102	565.205
775.153	551.778
775.204	541.828
775.255	557.718
775.306	554.69
775.357	548.185
775.409	543.347
775.46	552.252
775.511	554.206
775.562	549.22
775.613	539.04
775.664	540.961
775.716	537.713
775.767	541.393
775.818	560.654
775.869	541.84
775.92	548.983
775.971	535.343
776.023	525.169
776.074	537.551
776.125	537.813
776.176	527.657
776.227	540.051
776.278	533.326
776.329	523.106
776.381	540.696
776.432	546.142
776.483	542.919
776.534	539.715
776.585	531.288
776.636	535.034
776.688	538.743
776.739	549.378
776.79	559.967
776.841	516.44
776.892	547.927
776.943	535.813
776.994	539.447
777.046	546.624
777.097	541.62
777.148	545.378
777.199	536.904
777.25	533.659
777.301	516.386
777.352	539.359
777.404	516.797
777.455	532.787
777.506	545.313
777.557	535.084
777.608	526.63
777.659	530.477
777.71	532.561
777.762	524.058
777.813	520.769
777.864	519.179
777.915	533.386
777.966	537.018
778.017	501.926
778.068	510.904
778.12	542.865
778.171	525.538
778.222	518.81
778.273	536.789
778.324	522.949
778.375	530.248
778.426	509.204
778.477	500.488
778.529	500.6
778.58	516.647
778.631	518.576
778.682	525.858
778.733	540.271
778.784	524.604
778.835	503.626
778.886	525.223
778.938	490.036
778.989	492.103
779.04	529.696
779.091	508.603
779.142	523.028
779.193	494.716
779.244	517.988
779.295	503.88
779.347	512.933
779.398	525.582
779.449	502.619
779.5	499.266
779.551	528.022
779.602	483.627
779.653	480.247
779.704	489.357
779.755	485.964
779.807	518.32
779.858	488.133
779.909	500.876
779.96	504.716
780.011	519.351
780.062	498.212
780.113	500.399
780.164	506.2
780.216	512
780.267	490.798
780.318	509.074
780.369	505.694
780.42	505.845
780.471	496.955
780.522	529.483
780.573	504.413
780.624	499.202
780.675	468.796
780.727	508.757
780.778	489.217
780.829	491.333
780.88	477.173
780.931	493.723
780.982	504.843
781.033	488.805
781.084	505.348
781.135	482.042
781.187	514.927
781.238	502.505
781.289	480.999
781.34	493.962
781.391	521.443
781.442	494.382
781.493	494.539
781.544	503.762
781.595	491.144
781.646	480.331
781.698	491.351
781.749	491.458
781.8	497.036
781.851	478.961
781.902	491.88
781.953	499.389
782.004	494.196
782.055	496.342
782.106	491.207
782.157	506.151
782.208	488.158
782.26	473.741
782.311	499.505
782.362	481.315
782.413	485.07
782.464	485.179
782.515	481.655
782.566	481.822
782.617	487.508
782.668	493.202
782.719	473.218
782.77	491.745
782.821	464.4
782.872	460.916
782.924	466.63
782.975	481.549
783.026	467.064
783.077	478.312
783.128	476.674
783.179	482.392
783.23	486.279
783.281	466.235
783.332	468.331
783.383	485.227
783.434	463.406
783.485	467.435
783.536	454.826
783.588	493.982
783.639	459.102
783.69	476.003
783.741	453.965
783.792	454.112
783.843	487.598
783.894	463.591
783.945	467.391
783.996	476.777
784.047	456.518
784.098	491.997
784.149	458.845
784.2	459.164
784.252	452.074
784.303	476.631
784.354	450.904
784.405	467.999
784.456	451.509
784.507	470.453
784.558	459.52
784.609	476.599
784.66	465.621
784.711	462.075
784.762	449.118
784.813	467.92
784.864	454.869
784.915	460.524
784.966	456.837
785.017	458.805
785.068	447.708
785.12	461.003
785.171	464.96
785.222	455.801
785.273	457.893
785.324	454.349
785.375	416.988
785.426	443.48
785.477	456.829
785.528	458.895
785.579	447.78
785.63	466.76
785.681	461.274
785.732	453.906
785.783	446.546
785.834	454.28
785.885	445.076
785.936	445.327
785.987	456.944
786.038	461.053
786.089	463.303
786.141	469.348
786.192	445.074
786.243	468.089
786.294	449.333
786.345	426.684
786.396	447.577
786.447	453.257
786.498	439.973
786.549	445.691
786.6	449.573
786.651	442.138
786.702	465.13
786.753	448.298
786.804	435.269
786.855	456.459
786.906	435.79
786.957	443.629
787.008	451.437
787.059	424.916
787.11	451.721
787.161	446.121
787.212	429.089
787.263	450.23
787.314	429.443
787.365	443.05
787.416	435.685
787.467	439.798
787.518	455.389
787.57	438.426
787.621	404.165
787.672	446.483
787.723	421.702
787.774	419.89
787.825	441.079
787.876	443.101
787.927	427.871
787.978	431.846
788.029	420.483
788.08	437.936
788.131	424.663
788.182	445.979
788.233	428.841
788.284	423.222
788.335	446.454
788.386	410.023
788.437	425.562
788.488	446.903
788.539	423.956
788.59	435.712
788.641	426.274
788.692	443.844
788.743	424.735
788.794	446.147
788.845	425.045
788.896	434.837
788.947	425.306
788.998	429.327
789.049	419.845
789.1	406.521
789.151	422.268
789.202	438.053
789.253	426.703
789.304	426.961
789.355	407.763
789.406	440.949
789.457	404.153
789.508	413.935
789.559	410.083
789.61	431.494
789.661	429.612
789.712	410.291
789.763	424.107
789.814	432.18
789.865	393.563
789.916	436.794
789.967	419.567
790.018	406.158
790.069	406.346
790.12	398.677
790.171	406.642
790.222	440.08
790.273	405.116
790.324	419.115
790.375	378.264
790.426	423.612
790.477	443.424
790.528	418.02
790.579	420.02
790.63	414.15
790.681	416.16
790.732	400.566
790.783	434.15
790.834	404.94
790.885	397.371
790.936	415.393
790.987	399.933
791.038	421.874
791.089	400.402
791.14	412.407
791.191	408.584
791.242	402.746
791.293	420.577
791.344	404.839
791.395	410.846
791.446	407.025
791.497	389.421
791.548	401.521
791.599	397.834
791.65	402.058
791.701	400.295
791.752	412.347
791.803	396.608
791.854	440.365
791.905	406.793
791.956	410.967
792.007	397.33
792.058	411.558
792.109	399.971
792.16	418.237
792.211	386.675
792.262	378.957
792.313	395.128
792.363	419.251
792.414	401.408
792.465	405.498
792.516	393.59
792.567	407.659
792.618	391.773
792.669	415.906
792.72	402.095
792.771	390.31
792.822	382.538
792.873	390.79
792.924	378.986
792.975	395.242
793.026	383.406
793.077	407.721
793.128	393.911
793.179	408.277
793.23	390.494
793.281	396.87
793.332	389.137
793.383	411.634
793.434	399.8
793.485	393.975
793.536	398.218
793.587	396.368
793.638	398.538
793.689	372.358
793.74	390.69
793.79	386.764
793.841	376.779
793.892	423.56
793.943	387.28
793.994	399.665
794.045	383.637
794.096	387.876
794.147	398.184
794.198	361.737
794.249	400.482
794.3	394.532
794.351	382.497
794.402	374.537
794.453	378.783
794.504	393.197
794.555	374.983
794.606	401.587
794.657	369.08
794.708	381.465
794.758	375.547
794.809	388.055
794.86	376.08
794.911	374.298
794.962	368.369
795.013	391.024
795.064	376.766
795.115	385.002
795.166	372.781
795.217	379.066
795.268	356.752
795.319	363.223
795.37	371.816
795.421	388.655
795.472	403.412
795.523	381.024
795.573	385.3
795.624	389.504
795.675	350.394
795.726	389.623
795.777	356.742
795.828	365.143
795.879	377.711
795.93	375.837
795.981	347.076
796.032	367.847
796.083	361.718
796.134	378.307
796.185	376.305
796.236	372.278
796.286	362.101
796.337	405.802
796.388	377.092
796.439	364.944
796.49	375.598
796.541	367.551
796.592	376.083
796.643	363.801
796.694	376.437
796.745	378.659
796.796	376.703
796.847	378.899
796.897	381.091
796.948	352.04
796.999	370.907
797.05	329.35
797.101	371.188
797.152	367.178
797.203	363.178
797.254	359.186
797.305	365.646
797.356	378.392
797.407	359.777
797.458	366.25
797.508	360.149
797.559	372.87
797.61	372.999
797.661	347.951
797.712	343.847
797.763	362.822
797.814	354.567
797.865	365.246
797.916	369.692
797.967	376.297
798.018	364.008
798.068	341.173
798.119	360.434
798.17	358.589
798.221	363.019
798.272	377.955
798.323	350.616
798.374	359.157
798.425	363.485
798.476	386.877
798.526	353.237
798.577	364.063
798.628	351.654
798.679	356.21
798.73	358.643
798.781	361.04
798.832	348.5
798.883	350.763
798.934	350.85
798.984	353.042
799.035	378.65
799.086	374.524
799.137	376.836
799.188	342.977
799.239	353.855
799.29	345.535
799.341	335.036
799.392	360.778
799.443	348.066
799.493	358.829
799.544	346.106
799.595	374.005
799.646	354.916
799.697	335.827
799.748	325.278
799.799	342.528
799.85	340.476
799.9	374.785
799.951	349.092
800.002	344.8
800.053	355.513
800.104	336.281
800.155	368.516
800.206	336.527
800.257	338.856
800.307	347.639
800.358	339.247
800.409	352.312
800.46	365.377
800.511	350.501
800.562	342.078
800.613	342.273
800.664	327.396
800.714	340.509
800.765	332.045
800.816	345.11
800.867	330.107
800.918	340.985
800.969	343.247
801.02	323.94
801.07	345.697
801.121	332.907
801.172	315.784
801.223	361.392
801.274	318.267
801.325	363.906
801.376	335.908
801.427	303.558
801.477	338.435
801.528	355.986
801.579	310.56
801.63	343.283
801.681	332.529
801.732	326.087
801.783	317.455
801.833	347.971
801.884	330.662
801.935	350.363
801.986	330.911
802.037	335.405
802.088	322.456
802.139	322.55
802.189	331.342
802.24	337.958
802.291	327.145
802.342	320.708
802.393	338.285
802.444	351.505
802.495	338.513
802.545	325.495
802.596	329.945
802.647	325.664
802.698	332.337
802.749	319.363
802.8	326.103
802.85	332.866
802.901	313.345
802.952	322.294
803.003	320.274
803.054	329.217
803.105	329.382
803.155	327.345
803.206	316.503
803.257	312.23
803.308	307.929
803.359	323.404
803.41	312.467
803.46	321.339
803.511	310.424
803.562	317.154
803.613	323.924
803.664	310.883
803.715	308.867
803.765	315.673
803.816	326.893
803.867	324.849
803.918	338.269
803.969	303.033
804.02	314.232
804.07	307.727
804.121	323.357
804.172	325.695
804.223	328.022
804.274	330.342
804.325	319.356
804.375	332.772
804.426	328.451
804.477	321.914
804.528	317.591
804.579	326.583
804.63	313.338
804.68	315.624
804.731	329.011
804.782	324.611
804.833	309.104
804.884	311.407
804.934	304.838
804.985	307.186
805.036	307.314
805.087	336.389
805.138	309.746
805.188	312.038
805.239	318.769
805.29	303.203
805.341	283.184
805.392	298.863
805.443	323.496
805.493	305.806
805.544	321.338
805.595	321.003
805.646	309.907
805.697	314.042
805.747	289.196
805.798	302.459
805.849	296.993
805.9	309.784
805.951	294.422
806.001	312.224
806.052	305.319
806.103	310.818
806.154	301.787
806.205	314.285
806.255	317.668
806.306	287.792
806.357	313.634
806.408	289.281
806.459	290.772
806.509	292.907
806.56	300.524
806.611	306.806
806.662	289.624
806.713	306.749
806.763	307.866
806.814	283.877
806.865	313.067
806.916	293.538
806.967	299.437
807.017	297.729
807.068	297.688
807.119	296.597
807.17	300.834
807.22	308.124
807.271	280.641
807.322	302.322
807.373	290.977
807.424	294.787
807.474	291.23
807.525	295.035
807.576	284.061
807.627	305.004
807.678	305.81
807.728	287.282
807.779	292.312
807.83	300.011
807.881	298.6
807.931	289.727
807.982	284.86
808.033	293.933
808.084	299.635
808.135	287.698
808.185	290.159
808.236	286.698
808.287	290.797
808.338	285.516
808.388	287.198
808.439	295.141
808.49	289.231
808.541	309.649
808.591	284.737
808.642	296.083
808.693	294.458
808.744	288.719
808.795	300.741
808.845	293.026
808.896	289.311
808.947	302.348
808.998	274.913
809.048	286.153
809.099	291.869
809.15	291.63
809.201	271.874
809.251	289.413
809.302	288.1
809.353	276.054
809.404	265.232
809.454	293.396
809.505	287.071
809.556	291.901
809.607	267.133
809.658	294.585
809.708	268.537
809.759	302.441
809.81	278.501
809.861	270.591
809.911	295.155
809.962	284.156
810.013	291.248
810.064	284.222
810.114	277.488
810.165	293.018
810.216	293.556
810.267	290.466
810.317	266.094
810.368	288.718
810.419	279.095
810.469	277.487
810.52	272.096
810.571	267.062
810.622	270.771
810.627	271.216
810.678	285.301
810.729	276.19
810.78	283.308
810.831	288.089
810.882	264.959
810.933	272.021
810.984	279.073
811.035	281.466
811.086	279.198
811.137	300.193
811.188	283.957
811.239	277.036
811.29	277.116
811.341	277.219
811.392	282.003
811.443	286.8
811.494	296.265
811.545	296.392
811.596	289.502
811.648	282.603
811.699	261.686
811.75	275.827
811.801	266.609
811.852	266.75
811.903	269.228
811.954	288.084
812.005	271.78
812.056	276.524
812.107	302.33
812.158	269.521
812.209	250.765
812.26	285.922
812.311	262.517
812.362	264.934
812.413	260.364
812.464	281.648
812.515	253.661
812.566	272.635
812.617	275.126
812.668	261.091
812.719	265.807
812.77	272.827
812.821	261.016
812.872	272.738
812.923	284.508
812.974	237.552
813.025	258.856
813.076	261.388
813.127	249.796
813.178	247.604
813.229	261.889
813.28	261.981
813.331	269.121
813.382	266.804
813.433	259.767
813.484	283.454
813.535	257.557
813.586	260.024
813.637	276.691
813.688	264.981
813.739	262.73
813.79	284.165
813.841	265.36
813.892	265.524
813.943	265.71
813.994	263.533
814.045	254.213
814.096	275.749
814.147	256.816
814.198	287.746
814.249	280.557
814.3	254.31
814.351	261.335
814.402	268.384
814.453	254.122
814.504	261.319
814.555	249.59
814.606	252.181
814.657	259.571
814.708	264.589
814.759	269.58
814.81	260.201
814.861	248.367
814.912	265.143
814.963	269.946
815.014	272.347
815.065	255.64
815.116	270.011
815.167	274.85
815.217	258.2
815.268	272.645
815.319	263.179
815.37	256.091
815.421	260.953
815.472	275.376
815.523	249.071
815.574	268.253
815.625	237.124
815.676	263.463
815.727	256.248
815.778	234.645
815.829	253.725
815.88	239.284
815.931	253.571
815.982	248.757
816.033	232.042
816.084	246.496
816.135	256.239
816.186	227.695
816.237	237.499
816.288	244.903
816.339	257.081
816.39	259.596
816.441	238.006
816.492	245.214
816.543	254.797
816.594	252.365
816.645	252.369
816.696	250.02
816.747	254.94
816.798	262.318
816.849	245.648
816.9	248.234
816.951	250.804
817.001	226.803
817.052	234.129
817.103	248.674
817.154	246.299
817.205	248.739
817.256	224.607
817.307	251.2
817.358	239.171
817.409	253.759
817.46	273.251
817.511	229.904
817.562	259.185
817.613	237.608
817.664	240.228
817.715	252.504
817.766	257.429
817.817	247.717
817.868	245.252
817.919	259.779
817.97	242.77
818.021	228.228
818.071	250.148
818.122	238.095
818.173	250.348
818.224	260.173
818.275	255.398
818.326	240.877
818.377	250.681
818.428	236.15
818.479	228.924
818.53	243.63
818.581	236.422
818.632	238.97
818.683	231.769
818.734	227.008
818.785	241.782
818.836	239.468
818.887	242.036
818.938	249.488
818.988	256.932
819.039	232.546
819.09	244.862
819.141	235.134
819.192	222.946
819.243	218.102
819.294	245.124
819.345	247.647
819.396	245.278
819.447	238.017
819.498	218.497
819.549	230.915
819.6	216.334
819.651	233.731
819.702	231.468
819.753	236.593
819.803	241.713
819.854	234.478
819.905	227.207
819.956	239.666
820.007	237.272
820.058	232.373
820.109	224.971
820.16	244.743
820.211	242.255
820.262	229.886
820.313	239.79
820.364	212.647
820.415	225.105
820.465	240.087
820.516	222.912
820.567	250.323
820.618	233.105
820.669	213.353
820.72	240.703
820.771	223.37
820.822	235.819
820.873	225.949
820.924	213.622
820.975	221.196
821.026	228.797
821.076	216.497
821.127	241.509
821.178	244.09
821.229	226.705
821.28	229.223
821.331	239.206
821.382	229.262
821.433	236.777
821.484	244.315
821.535	226.934
821.586	239.484
821.637	212.115
821.687	237.145
821.738	207.254
821.789	224.803
821.84	229.875
821.891	227.463
821.942	230.059
821.993	225.159
822.044	230.265
822.095	252.895
822.146	225.428
822.196	227.991
822.247	243.068
822.298	210.522
822.349	220.585
822.4	205.603
822.451	228.271
822.502	233.44
822.553	238.657
822.604	238.879
822.655	231.549
822.706	234.256
822.756	206.677
822.807	229.458
822.858	226.995
822.909	232.079
822.96	234.637
823.011	232.154
823.062	227.147
823.113	237.274
823.164	219.604
823.214	217.05
823.265	209.433
823.316	232.092
823.367	234.581
823.418	224.49
823.469	211.907
823.52	217.009
823.571	199.407
823.622	209.563
823.672	222.233
823.723	209.626
823.774	204.575
823.825	234.87
823.876	224.753
823.927	224.745
823.978	209.597
824.029	217.19
824.08	212.17
824.13	209.687
824.181	217.318
824.232	212.321
824.283	217.438
824.334	220.03
824.385	220.096
824.436	212.576
824.487	210.118
824.537	222.857
824.588	187.469
824.639	220.471
824.69	205.315
824.741	210.415
824.792	205.362
824.843	202.839
824.893	200.322
824.944	213.036
824.995	218.161
825.046	202.999
825.097	225.905
825.148	215.81
825.199	210.78
825.25	213.363
825.3	203.249
825.351	218.556
825.402	203.386
825.453	228.916
825.504	206.13
825.555	208.778
825.606	203.771
825.657	208.926
825.707	206.409
825.758	203.866
825.809	211.496
825.86	214.022
825.911	219.1
825.962	196.168
826.013	198.726
826.063	208.94
826.114	193.675
826.165	208.982
826.216	186.046
826.267	211.513
826.318	203.836
826.369	221.631
826.419	226.687
826.47	213.924
826.521	221.548
826.572	196.076
826.623	218.993
826.674	218.997
826.725	201.182
826.775	206.297
826.826	221.618
826.877	201.29
826.928	196.256
826.979	221.82
827.03	193.838
827.08	211.757
827.131	206.711
827.182	219.528
827.233	201.715
827.284	204.331
827.335	209.51
827.386	176.354
827.436	184.069
827.487	186.648
827.538	196.862
827.589	212.149
827.64	199.296
827.691	196.666
827.741	201.723
827.792	194.061
827.843	201.785
827.894	199.359
827.945	194.423
827.996	207.433
828.046	182.015
828.097	202.71
828.148	182.304
828.199	200.352
828.25	200.367
828.301	200.333
828.351	192.572
828.402	200.218
828.453	197.624
828.504	202.769
828.555	195.12
828.606	202.908
828.656	190.165
828.707	215.98
828.758	190.361
828.809	195.583
828.86	203.361
828.911	211.122
828.961	193.119
829.012	195.705
829.063	206.012
829.114	195.717
829.165	195.724
829.216	200.884
829.266	195.747
829.317	198.343
829.368	195.795
829.419	208.713
829.47	211.333
829.52	213.957
829.571	190.798
829.622	216.624
829.673	214.084
829.724	206.385
829.774	180.629
829.825	191.011
829.876	196.255
829.927	178.269
829.978	193.877
830.029	193.978
830.079	199.237
830.13	188.947
830.181	212.288
830.232	209.731
830.283	163.147
830.333	196.845
830.384	199.472
830.435	186.552
830.486	181.391
830.537	191.761
830.587	181.382
830.638	186.537
830.689	189.099
830.74	189.079
830.791	165.767
830.841	186.514
830.892	194.339
830.943	197.007
830.994	197.097
831.045	189.404
831.095	189.48
831.146	192.133
831.197	192.167
831.248	197.375
831.299	192.184
831.349	179.205
831.4	184.418
831.451	181.858
831.502	200.101
831.553	197.565
831.603	187.221
831.654	200.263
831.705	189.877
831.756	189.878
831.807	195.074
831.857	195.072
831.908	179.476
831.959	195.109
832.01	179.536
832.061	197.792
832.111	184.814
832.162	179.632
832.213	187.46
832.264	192.686
832.315	179.693
832.365	190.155
832.416	185.008
832.467	161.624
832.518	203.424
832.568	193.072
832.619	198.355
832.67	187.957
832.721	182.757
832.772	172.321
832.822	182.767
832.873	193.216
832.924	188.009
832.975	185.427
833.025	198.532
833.076	190.754
833.127	196.049
833.178	172.585
833.229	167.412
833.279	183.16
833.33	185.818
833.381	193.703
833.432	185.877
833.482	178.046
833.533	191.165
833.584	188.577
833.635	180.751
833.685	206.983
833.736	178.19
833.787	167.733
833.838	186.108
833.889	180.898
833.939	183.562
833.99	170.494
834.041	181.034
834.092	183.698
834.142	181.097
834.193	178.476
834.244	167.966
834.295	170.575
834.345	181.065
834.396	188.955
834.447	168.003
834.498	194.331
834.548	162.895
834.599	162.969
834.65	176.177
834.701	176.218
834.751	173.609
834.802	173.617
834.853	173.623
834.904	176.265
834.954	186.805
835.005	178.926
835.056	173.67
835.107	168.4
835.157	163.117
835.208	178.874
835.259	165.701
835.31	178.847
835.36	176.235
835.411	194.691
835.462	176.323
835.513	184.265
835.563	168.497
835.614	181.668
835.665	168.493
835.716	189.537
835.766	168.474
835.817	179.025
835.868	173.812
835.919	171.257
835.969	173.988
836.02	192.548
836.071	168.889
836.122	171.586
836.172	187.461
836.223	168.99
836.274	166.344
836.325	176.886
836.375	168.936
836.426	179.451
836.477	163.569
836.528	179.338
836.578	176.641
836.629	171.318
836.68	166.015
836.73	171.272
836.781	173.912
836.832	187.11
836.883	150.241
836.933	176.635
836.984	171.401
837.035	171.442
837.086	168.847
837.136	176.801
837.187	174.186
837.238	184.743
837.288	171.517
837.339	174.101
837.39	166.125
837.441	179.255
837.491	155.515
837.542	171.36
837.593	166.161
837.643	179.458
837.694	176.928
837.745	195.504
837.796	174.406
837.846	166.467
837.897	171.702
837.948	182.197
837.999	161.011
838.049	166.245
838.1	174.137
838.151	153.025
838.201	174.135
838.252	174.133
838.303	168.84
838.354	163.53
838.404	171.394
838.455	171.34
838.506	171.292
838.556	163.355
838.607	163.34
838.658	150.168
838.708	158.081
838.759	163.365
838.81	166.015
838.861	150.216
838.911	160.77
838.962	163.422
839.013	147.625
839.063	142.374
839.114	163.494
839.165	152.977
839.216	155.652
839.266	155.695
839.317	168.937
839.368	171.622
839.418	161.09
839.469	166.383
839.52	155.811
839.57	168.991
839.621	168.962
839.672	168.942
839.722	155.742
839.773	145.202
839.824	171.645
839.875	161.133
839.925	126.836
839.976	161.24
840.027	158.643
840.077	169.262
840.128	148.137
840.179	153.456
840.229	164.062
840.28	169.367
840.331	161.429
840.381	150.836
840.432	161.407
840.483	164.042
840.534	171.976
840.584	177.278
840.635	172.01
840.686	158.812
840.736	161.501
840.787	158.897
840.838	169.537
840.888	156.334
840.939	156.374
840.99	159.065
841.04	164.41
841.091	159.148
841.142	151.23
841.192	145.959
841.243	167.227
841.294	140.71
841.344	154.008
841.395	169.963
841.446	159.361
841.496	159.385
841.547	162.07
841.598	159.45
841.648	156.835
841.699	162.202
841.75	159.594
841.8	162.3
841.851	164.996
841.902	154.365
841.952	154.356
842.003	164.967
842.054	162.253
842.104	162.189
842.155	148.835
842.206	154.1
842.256	135.473
842.307	154.056
842.358	148.75
842.408	159.396
842.459	154.108
842.51	151.476
842.56	159.468
842.611	162.141
842.662	151.519
842.712	164.817
842.763	151.53
842.814	164.823
842.864	146.21
842.915	175.444
842.966	146.195
843.016	156.824
843.067	154.173
843.118	148.88
843.168	132.963
843.219	162.267
843.269	151.676
843.32	165.026
843.371	157.07
843.421	162.413
843.472	143.788
843.523	146.472
843.573	154.5
843.624	154.557
843.675	143.962
843.725	149.36
843.776	146.747
843.827	165.46
843.877	157.463
843.928	144.107
843.979	157.426
844.029	165.401
844.08	157.374
844.13	168.025
844.181	146.681
844.232	154.682
844.282	146.689
844.333	146.709
844.384	160.08
844.434	149.449
844.485	149.494
844.536	157.549
844.586	160.258
844.637	149.6
844.687	152.287
844.738	146.953
844.789	146.96
844.839	146.969
844.89	157.67
844.941	160.357
844.991	138.99
845.042	144.349
845.092	152.382
845.143	141.703
845.194	141.721
845.244	141.741
845.295	147.111
845.346	149.805
845.396	123.066
845.447	163.207
845.497	155.192
845.548	133.803
845.599	139.184
845.649	141.902
845.7	144.632
845.75	150.042
845.801	152.767
845.852	158.156
845.902	155.488
845.953	144.765
846.004	142.084
846.054	144.771
846.105	152.833
846.155	150.179
846.206	142.163
846.257	166.331
846.307	134.151
846.358	150.255
846.409	144.893
846.459	155.639
846.51	142.247
846.56	144.973
846.611	153.083
846.661	142.39
846.712	150.488
846.763	155.876
846.813	142.426
846.864	142.393
846.915	134.294
846.965	147.686
847.016	153.033
847.066	139.607
847.117	147.679
847.168	145.021
847.218	139.677
847.269	155.816
847.319	147.766
847.37	147.765
847.421	142.387
847.471	137.014
847.522	139.71
847.572	142.418
847.623	112.885
847.674	134.423
847.724	129.08
847.775	147.938
847.825	139.894
847.876	142.603
847.926	118.399
847.977	145.321
848.028	145.337
848.078	150.741
848.129	148.078
848.179	134.649
848.23	137.381
848.281	156.283
848.331	142.846
848.382	148.264
848.432	140.193
848.483	145.595
848.534	151
848.584	151.025
848.635	140.277
848.685	145.729
848.736	124.196
848.786	148.558
848.837	132.396
848.888	148.639
848.938	148.657
848.989	145.968
849.039	145.991
849.09	146.031
849.14	132.559
849.191	146.146
849.242	124.539
849.292	127.274
849.343	140.82
849.393	138.1
849.444	157.039
849.494	132.671
849.545	146.235
849.596	132.742
849.646	119.256
849.697	141.012
849.747	127.51
849.798	146.545
849.848	138.422
849.899	132.992
849.95	143.835
850	124.824
850.051	132.954
850.101	146.519
850.152	135.671
850.202	138.394
850.253	141.12
850.303	143.845
850.354	132.999
850.405	141.155
850.455	135.744
850.506	133.052
850.556	130.365
850.607	141.262
850.657	135.861
850.708	125.02
850.758	141.355
850.809	127.786
850.86	133.243
850.91	144.134
850.961	122.383
851.011	133.258
851.062	138.685
851.112	135.95
851.163	135.94
851.213	135.945
851.264	125.095
851.314	133.306
851.365	122.491
851.416	152.532
851.466	136.279
851.517	139.084
851.567	141.875
851.618	122.814
851.668	120.106
851.719	131.037
851.769	125.583
851.82	120.127
851.87	128.324
851.921	139.259
851.971	139.281
852.022	117.459
852.073	136.618
852.123	125.726
852.174	131.229
852.224	144.929
852.275	139.476
852.325	142.157
852.376	117.838
852.426	131.395
852.477	139.546
852.527	131.14
852.578	123.087
852.628	123.828
852.679	126.104
852.729	123.433
852.78	124.511
852.831	133.942
852.881	130.905
852.932	142.497
852.982	133.249
853.033	132.317
853.083	129.117
853.134	123.968
853.184	130.392
853.235	119.417
853.285	133.993
853.336	135.521
853.386	119.805
853.437	136.694
853.487	125.771
853.538	128.405
853.588	113.071
853.639	140.701
853.689	123.474
853.74	134.383
853.79	119.213
853.841	130.978
853.891	122.224
853.942	127.976
853.992	123.321
854.043	118.704
854.093	124.558
854.144	123.279
854.194	132.385
854.245	135.052
854.295	126.397
854.346	123.891
854.396	130.794
854.447	121.537
854.497	121.622
854.548	122.351
854.598	123.207
854.649	127.852
854.699	129.89
854.75	127.416
854.8	120.802
854.851	123.538
854.901	127.094
854.952	128.119
855.002	126.943
855.053	125.604
855.103	126.361
855.154	127.697
855.204	131.718
855.255	120.887
855.305	116.092
855.356	123.198
855.406	126.527
855.457	127.348
855.507	121.354
855.558	119.17
855.608	124.981
855.659	117.437
855.709	123.246
855.76	117.467
855.81	125.586
855.861	128.27
855.911	125.591
855.962	127.108
856.012	117.664
856.063	119.677
856.113	123.579
856.164	131.4
856.214	123.877
856.265	110.756
856.315	120.168
856.366	127.972
856.416	120.075
856.467	117.37
856.517	121.038
856.568	118.194
856.618	120.555
856.668	125.512
856.719	126.034
856.769	124.599
856.82	110.192
856.87	110.834
856.921	113.937
856.971	108.466
857.022	117.594
857.072	116.982
857.123	114.625
857.173	125.205
857.224	127.387
857.274	118.418
857.325	108.336
857.352	105.324
857.403	121.964
857.453	116.427
857.504	113.661
857.555	124.754
857.606	127.529
857.656	127.527
857.707	99.7992
857.758	127.513
857.809	116.417
857.859	113.641
857.91	119.19
857.961	121.978
858.012	108.141
858.063	116.493
858.113	108.205
858.164	127.66
858.215	119.353
858.266	124.908
858.316	122.121
858.367	127.646
858.418	119.291
858.469	130.356
858.519	122.012
858.57	108.134
858.621	121.988
858.672	99.804
858.722	119.203
858.773	119.192
858.824	127.492
858.875	110.851
858.925	119.16
858.976	113.624
859.027	119.184
859.078	124.751
859.128	113.681
859.179	110.918
859.23	105.368
859.281	99.8076
859.331	116.42
859.382	124.717
859.433	133.025
859.483	102.547
859.534	110.879
859.585	124.76
859.636	119.229
859.686	119.232
859.737	121.998
859.788	121.987
859.839	121.982
859.889	105.355
859.94	97.0557
859.991	119.272
860.042	119.305
860.092	119.33
860.143	116.563
860.194	116.555
860.245	110.985
860.295	110.96
860.346	113.714
860.397	105.388
860.447	105.399
860.498	116.523
860.549	122.117
860.6	111.06
860.65	113.875
860.701	133.346
860.752	119.462
860.802	113.895
860.853	99.9865
860.904	113.849
860.955	111.054
861.005	111.047
861.056	130.486
861.107	127.728
861.158	111.09
861.208	108.338
861.259	100.028
861.31	113.948
861.36	102.854
861.411	125.12
861.462	111.239
861.513	111.256
861.563	116.829
861.614	111.269
861.665	111.265
861.715	111.255
861.766	97.3339
861.817	113.997
861.868	111.189
861.918	108.376
861.969	97.225
862.02	105.518
862.07	119.36
862.121	105.451
862.172	97.1095
862.223	105.429
862.273	102.661
862.324	122.102
862.375	116.573
862.425	105.486
862.476	108.269
862.527	113.816
862.577	111.021
862.628	102.667
862.679	102.634
862.73	105.378
862.78	113.677
862.831	110.906
862.882	116.479
862.932	102.66
862.983	111.053
863.034	119.464
863.084	111.198
863.135	116.809
863.186	116.831
863.237	108.476
863.287	100.1
863.338	111.17
863.389	119.447
863.439	113.839
863.49	108.252
863.541	116.563
863.591	105.467
863.642	108.266
863.693	127.742
863.744	113.904
863.794	102.835
863.845	113.992
863.896	111.237
863.946	108.467
863.997	102.902
864.048	108.458
864.098	114.016
864.149	108.462
864.2	114.046
864.25	105.732
864.301	108.549
864.352	94.6561
864.402	103.02
864.453	111.37
864.504	108.57
864.555	100.199
864.605	102.963
864.656	108.514
864.707	97.3753
864.757	111.276
864.808	102.917
864.859	114.02
864.909	100.089
864.96	105.623
865.011	94.4918
865.061	102.833
865.112	102.853
865.163	105.664
865.213	114.043
865.264	111.29
865.315	111.304
865.365	108.52
865.416	108.509
865.467	119.623
865.517	108.489
865.568	102.932
865.619	111.3
865.669	105.767
865.72	116.942
865.771	100.27
865.821	108.658
865.872	100.322
865.923	97.5525
865.973	103.143
866.024	97.5834
866.075	105.966
866.125	105.985
866.176	97.6316
866.227	97.64
866.277	106.01
866.328	106.005
866.379	114.364
866.429	114.356
866.48	94.8288
866.531	89.2528
866.581	92.0477
866.632	92.0536
866.683	106.004
866.733	108.792
866.784	114.363
866.835	114.355
866.885	103.197
866.936	105.996
866.987	92.07
867.037	111.641
867.088	103.314
867.138	106.155
867.189	95.0175
867.24	95.0404
867.29	109.024
867.341	109.015
867.392	103.407
867.442	95.006
867.493	94.996
867.544	94.9975
867.594	111.778
867.645	92.2402
867.696	111.84
867.746	106.28
867.797	89.5219
867.848	106.328
867.898	103.543
867.949	95.156
867.999	125.95
868.05	114.763
868.101	106.374
868.151	92.3865
868.202	100.796
868.253	100.806
868.303	106.418
868.354	98.028
868.405	120.453
868.455	103.667
868.506	100.893
868.556	98.1237
868.607	109.38
868.658	98.1994
868.708	101.04
868.759	106.684
868.81	115.131
868.86	101.106
868.911	115.163
868.961	103.942
869.012	109.577
869.063	95.5448
869.113	95.5618
869.164	95.5779
869.215	112.462
869.265	101.23
869.316	92.8062
869.367	115.317
869.417	95.6359
869.468	90.011
869.518	92.8176
869.569	104.055
869.62	92.7918
869.67	104.028
869.721	92.7789
869.771	89.9743
869.822	89.988
869.873	101.253
869.923	106.891
869.974	101.267
870.025	95.6348
870.075	104.062
870.126	106.865
870.176	104.055
870.227	95.6322
870.278	98.4713
870.328	98.5062
870.379	101.36
870.43	95.7667
870.48	90.1676
870.531	95.8385
870.581	101.513
870.632	110.013
870.683	104.408
870.733	98.7955
870.784	107.292
870.834	112.962
870.885	96.0308
870.936	107.338
870.986	90.3937
871.037	90.3935
871.087	90.3894
871.138	98.8552
871.189	104.494
871.239	96.0147
871.29	84.7192
871.34	110.148
871.391	107.349
871.442	96.0817
871.492	115.91
871.543	90.5032
871.593	101.855
871.644	93.3965
871.695	96.2504
871.745	104.761
871.796	99.1068
871.846	99.1087
871.897	90.6113
871.948	101.934
871.998	93.4412
872.049	107.61
872.099	93.4682
872.15	107.656
872.201	96.346
872.251	87.8572
872.302	96.3606
872.352	87.8492
872.403	102.003
872.453	99.1567
872.504	107.652
872.555	93.493
872.605	102.005
872.656	87.8465
872.706	99.1846
872.757	87.8436
872.808	107.665
872.858	96.3192
872.909	99.1457
872.959	84.9863
873.01	102.001
873.06	99.1941
873.111	104.895
873.162	104.926
873.212	99.2776
873.263	87.9446
873.313	96.4602
873.364	99.2935
873.415	96.4476
873.465	82.256
873.516	90.7611
873.566	87.9299
873.617	93.6197
873.667	73.7819
873.718	93.6763
873.769	96.5402
873.819	107.909
873.87	93.6988
873.92	87.9882
873.971	102.124
874.021	102.06
874.072	93.5016
874.123	90.6317
874.173	107.607
874.224	87.7922
874.274	96.3162
874.325	99.1915
874.375	87.8983
874.426	90.7784
874.477	93.6578
874.527	96.5338
874.578	93.7237
874.628	102.265
874.679	88.0697
874.729	93.7481
874.78	88.0537
874.83	85.1958
874.881	93.696
874.932	88.0043
874.982	90.8385
875.033	82.3262
875.083	79.4963
875.134	88.0238
875.184	88.0275
875.235	82.3414
875.285	99.3616
875.336	85.1538
875.387	90.8247
875.437	96.5081
875.488	96.5287
875.538	85.199
875.589	90.909
875.639	96.6157
875.69	93.7843
875.74	96.6195
875.791	93.7568
875.841	110.77
875.892	105.06
875.943	102.204
875.993	96.5279
876.044	105.065
876.094	93.7375
876.145	96.6143
876.195	85.2766
876.246	93.8257
876.296	79.6171
876.347	99.5185
876.397	99.5085
876.448	99.4977
876.499	79.5934
876.549	102.337
876.6	93.8186
876.65	105.209
876.701	102.387
876.751	91.0293
876.802	96.7369
876.852	93.907
876.903	85.3819
876.953	74.0072
877.004	99.6381
877.054	105.347
877.105	82.5822
877.155	102.534
877.206	91.1596
877.257	99.7256
877.307	96.8936
877.358	88.3559
877.408	105.464
877.459	94.0624
877.509	94.0565
877.56	88.348
877.61	88.3403
877.661	102.584
877.711	88.3358
877.762	99.7386
877.812	74.0973
877.863	94.0554
877.913	91.2145
877.964	96.9266
878.014	96.9408
878.065	96.9596
878.115	88.4263
878.166	91.3062
878.216	79.9202
878.267	108.503
878.318	82.836
878.368	94.2974
878.419	80.0399
878.469	94.3672
878.52	82.9573
878.57	80.1213
878.621	83.0038
878.671	91.6067
878.722	80.163
878.772	91.6141
878.823	83.0167
878.873	83.0016
878.924	85.8441
878.974	97.2675
879.025	74.3678
879.075	91.5233
879.126	85.8106
879.176	77.2501
879.227	85.8712
879.277	100.241
879.328	97.4395
879.378	88.899
879.429	88.9495
879.479	97.6007
879.53	89.0152
879.58	94.773
879.631	94.7778
879.681	100.521
879.732	89.0294
879.782	97.6424
879.833	80.4109
879.883	97.6436
879.934	89.0316
879.984	91.9091
880.035	71.81
880.085	94.8003
880.136	97.6893
880.186	91.9639
880.237	89.1163
880.287	97.7751
880.338	83.4292
880.388	89.2189
880.439	83.4953
880.489	103.687
880.54	89.3163
880.59	97.9931
880.641	89.3784
880.691	100.948
880.742	86.557
880.792	83.6955
880.842	89.4836
880.893	86.6015
880.943	83.7104
880.994	98.1339
881.044	80.8115
881.095	98.1336
881.145	66.3981
881.196	98.1877
881.246	83.7847
881.297	92.4937
881.347	95.4226
881.398	89.6686
881.448	89.6911
881.499	81.0286
881.549	75.257
881.6	95.5417
881.65	78.1916
881.701	72.4192
881.751	95.6156
881.802	89.8355
881.852	86.9452
881.902	89.8461
881.953	86.9493
882.003	84.0551
882.054	81.1657
882.104	84.0789
882.155	81.1954
882.205	98.6101
882.256	89.9155
882.306	104.413
882.357	75.3989
882.407	110.179
882.458	75.3758
882.508	86.9714
882.559	92.7842
882.609	89.9136
882.659	81.2481
882.71	95.8041
882.76	78.4229
882.811	75.5502
882.861	81.3897
882.912	90.1342
882.962	93.0614
883.013	84.3515
883.063	96.0009
883.114	87.2867
883.164	90.2109
883.214	93.1387
883.265	78.6037
883.315	75.7122
883.366	84.4713
883.416	84.4921
883.467	75.7654
883.517	93.2591
883.568	87.4327
883.618	84.518
883.669	81.6059
883.719	81.6153
883.769	84.549
883.82	84.5752
883.87	70.0173
883.921	90.467
883.971	75.8933
884.022	84.6635
884.072	87.5931
884.123	78.8444
884.173	78.8602
884.223	90.5684
884.274	84.7528
884.324	84.7793
884.375	78.9511
884.425	96.5078
884.476	73.1134
884.526	81.8835
884.577	81.8805
884.627	84.8072
884.677	84.8179
884.728	90.6875
884.778	76.0823
884.829	93.668
884.879	90.7654
884.93	87.855
884.98	73.2202
885.03	84.9353
885.081	79.0687
885.131	102.474
885.182	76.1015
885.232	81.9292
885.283	84.8314
885.333	78.9675
885.383	81.8916
885.434	93.6061
885.484	76.0777
885.535	108.301
885.585	79.0507
885.635	79.0548
885.686	93.6838
885.736	93.6653
885.787	61.4581
885.837	81.9419
885.888	87.8086
885.938	99.5484
885.988	93.731
886.039	82.0466
886.089	82.0688
886.14	82.077
886.19	76.2097
886.241	90.8514
886.291	73.2564
886.341	87.9031
886.392	79.1203
886.442	85.0009
886.493	73.2996
886.543	85.0535
886.593	82.1384
886.644	82.1452
886.694	79.208
886.745	90.9326
886.795	79.1925
886.845	85.0604
886.896	73.3412
886.946	85.1053
886.997	70.4653
887.047	82.2533
887.097	73.4793
887.148	91.1578
887.198	64.7188
887.249	82.3965
887.299	67.7005
887.349	73.6019
887.4	76.5558
887.45	82.4499
887.501	76.5617
887.551	76.5616
887.602	82.4532
887.652	76.5714
887.702	73.6408
887.753	88.3941
887.803	82.5285
887.853	94.3489
887.904	82.5774
887.954	97.3416
888.005	85.5525
888.055	79.659
888.105	67.8651
888.156	82.6338
888.206	79.7055
888.257	76.7826
888.307	88.6332
888.357	91.6251
888.408	79.8279
888.458	82.7995
888.509	82.8022
888.559	76.8811
888.609	62.0874
888.66	70.9482
888.71	79.8132
888.76	82.7751
888.811	65.0493
888.861	76.8961
888.912	71.0006
888.962	88.7723
889.012	79.9093
889.063	71.0379
889.113	85.8421
889.163	74.0045
889.214	68.088
889.264	82.8983
889.315	65.1447
889.365	82.9281
889.415	62.2098
889.466	85.9268
889.516	77.0514
889.566	85.9537
889.617	80.0344
889.667	80.0427
889.718	74.1235
889.768	91.9308
889.818	71.1911
889.869	86.0515
889.919	83.1159
889.969	83.1486
890.02	77.2375
890.07	80.2325
890.12	68.3613
890.171	80.2614
890.221	74.3218
890.272	80.2719
890.322	83.2518
890.372	83.2656
890.423	71.3915
890.473	83.3269
890.523	80.3978
890.574	71.5136
890.624	71.5651
890.674	74.5977
890.725	77.626
890.775	95.5799
890.826	80.6655
890.876	77.6852
890.926	74.6964
890.977	83.6552
891.027	83.6518
891.077	89.6298
891.128	83.6657
891.178	86.6747
891.228	71.7542
891.279	80.7528
891.329	80.7805
891.379	80.8024
891.43	56.8705
891.48	77.8279
891.53	71.8412
891.581	86.8078
891.631	80.8263
891.681	83.8361
891.732	80.8707
891.782	83.9093
891.832	77.9656
891.883	81.0203
891.933	78.0715
891.983	78.1152
892.034	75.1411
892.084	75.1583
892.134	69.1516
892.185	81.179
892.235	78.175
892.286	69.1651
892.336	81.22
892.386	90.2898
892.437	84.3242
892.487	87.3955
892.537	66.3424
892.587	87.4976
892.638	63.3859
892.688	75.483
892.738	75.5049
892.789	90.6362
892.839	60.4492
892.889	78.6223
892.94	75.6365
892.99	78.6971
893.04	63.5832
893.091	84.7907
893.141	81.7626
893.191	78.7263
893.242	72.6608
893.292	69.6262
893.342	57.5158
893.393	60.5462
893.443	78.7197
893.493	75.7049
893.544	72.6917
893.594	93.9158
893.644	66.6685
893.695	81.8464
893.745	69.7451
893.795	72.8026
893.846	75.8602
893.896	88.0223
893.946	78.9361
893.996	97.176
894.047	94.165
894.097	88.1171
894.147	79.0266
894.198	69.9271
894.248	72.9795
894.298	85.1457
894.349	76.0174
894.399	85.1307
894.449	72.967
894.5	76.0167
894.55	72.9986
894.6	82.1612
894.65	63.937
894.701	85.2933
894.751	63.9987
894.801	82.3157
894.852	64.047
894.902	82.3807
894.952	67.1595
895.003	82.4734
895.053	67.2453
895.103	88.7
895.153	67.3294
895.204	82.6719
895.254	61.2617
895.304	79.6631
895.355	67.4222
895.405	73.565
895.455	76.643
895.505	67.4572
895.556	70.5365
895.606	88.9557
895.656	73.6352
895.707	67.515
895.757	73.6696
895.807	61.4043
895.858	73.6992
895.908	79.8554
895.958	73.7282
896.008	79.8924
896.059	79.9153
896.109	73.7899
896.159	58.4339
896.21	73.8306
896.26	67.6938
896.31	64.6306
896.36	67.7223
896.411	80.0516
896.461	73.9073
896.511	67.7575
896.561	70.8414
896.612	76.9999
896.662	73.9151
896.712	76.992
896.763	67.7581
896.813	83.1794
896.863	61.6434
896.913	80.1885
896.964	64.8153
897.014	80.3038
897.064	77.2579
897.115	68.0094
897.165	55.6493
897.215	74.1918
897.265	71.0851
897.316	61.7974
897.366	67.9612
897.416	64.8597
897.466	64.8506
897.517	64.8446
897.567	67.9307
897.617	74.1121
897.667	71.0408
897.718	71.0709
897.768	58.7462
897.818	80.4482
897.868	71.2191
897.919	83.6594
897.969	71.297
898.019	86.8112
898.069	77.5015
898.12	77.4744
898.17	68.143
898.22	74.2964
898.27	68.0715
898.321	71.1429
898.371	83.5106
898.421	83.5318
898.471	58.8151
898.522	71.256
898.572	74.4263
898.622	68.2909
898.672	68.3487
898.723	68.3906
898.773	68.4146
898.823	74.6434
898.873	68.4222
898.924	62.1994
898.974	71.5306
899.024	74.6494
899.074	71.5531
899.125	71.568
899.175	71.5776
899.225	80.9127
899.275	65.3404
899.326	68.4294
899.376	65.294
899.426	74.5973
899.476	68.3697
899.527	62.159
899.577	49.7437
899.627	87.0994
899.677	65.3696
899.728	68.5327
899.778	56.1111
899.828	74.859
899.878	62.4113
899.928	74.9182
899.979	68.6899
