#Acq. time (s)=	5
#Accumulations=	2
#Range (nm)=	520...900
#Windows=	8
#Auto scanning=	Off
#Autofocus=	Off
#AutoExposure=	Off
#Spike filter=	Multiple accum.
#Delay time (s)=	0
#Binning=	1
#Readout mode=	Signal
#DeNoise=	Off
#ICS correction=	On
#Dark correction=	Off
#Inst. Process=	Off
#Detector temperature (°C)=	-59.98
#Instrument=	LabRAM HR Evol
#Detector=	Syncerity OE
#Objective=	x50_VIS
#Grating=	600 (500nm)
#ND Filter=	10%
#Laser=	514nm_Edge
#Hole=	199.981
#Range=	Auto
#StageXY=	Marzhauser
#StageZ=	Marzhauser
#X (µm)=	-601.1
#Y (µm)=	-1002.1
#Z (µm)=	-42.7
#Full time(mm:ss)=	2:04
#Project=	
#Sample=	
#Site=	
#Title=	PL_M7_011123
#Remark=	
#Date=	11.11.2023 11:51
#Acquired=	11.11.2023 11:51:00
520.044	41.4395
520.097	35.9548
520.149	30.4954
520.201	39.3828
520.254	41.0931
520.306	33.8871
520.359	28.4939
520.411	32.0183
520.464	35.5483
520.516	26.6518
520.569	39.0916
520.621	37.3308
520.674	37.3582
520.726	26.7098
520.778	23.1733
520.831	33.9056
520.883	35.7259
520.936	28.6027
520.988	33.984
521.041	35.7829
521.093	44.7326
521.146	25.0491
521.198	30.4129
521.25	39.3505
521.303	37.5515
521.355	37.5356
521.408	26.7941
521.46	35.6942
521.513	37.4381
521.565	33.8318
521.617	33.7915
521.67	35.5323
521.722	39.052
521.775	30.1571
521.827	33.689
521.88	35.4493
521.932	31.8958
521.984	31.8907
522.037	31.8913
522.089	31.9001
522.142	35.4654
522.194	28.3974
522.247	30.2052
522.299	33.7985
522.352	39.1795
522.404	33.8709
522.456	32.1157
522.509	41.0668
522.561	28.5873
522.614	28.6054
522.666	35.7784
522.719	46.537
522.771	39.3936
522.823	37.6109
522.876	28.6545
522.928	39.3855
522.981	39.3569
523.033	30.3781
523.086	32.1167
523.138	37.4012
523.19	40.8814
523.243	33.7047
523.295	31.8744
523.348	31.8296
523.4	35.3303
523.453	37.0706
523.505	37.0496
523.557	42.3168
523.61	36.9996
523.662	28.1658
523.715	31.6593
523.767	42.185
523.82	38.6595
523.872	29.8802
523.924	36.9371
523.977	38.7377
524.029	31.7351
524.082	37.0739
524.134	26.5157
524.186	38.9372
524.239	40.7546
524.291	31.9315
524.344	39.0723
524.396	33.7834
524.449	33.8218
524.501	30.294
524.553	23.1882
524.606	37.4877
524.658	30.3654
524.711	30.3764
524.763	42.8882
524.815	39.3061
524.868	44.6439
524.92	39.2574
524.973	32.0903
525.025	35.6207
525.078	37.3665
525.13	33.7805
525.182	33.7599
525.235	37.2992
525.287	35.5165
525.34	35.5153
525.392	31.9652
525.444	37.2947
525.497	33.7428
525.549	35.516
525.602	35.5111
525.654	39.0568
525.706	31.9545
525.759	37.2868
525.811	37.305
525.864	35.5586
525.916	32.0409
525.969	35.6531
526.021	30.3541
526.073	33.9811
526.126	42.9916
526.178	39.4665
526.231	37.723
526.283	34.1725
526.335	43.2162
526.388	30.6455
526.44	34.2858
526.493	34.3161
526.545	45.1849
526.597	34.3582
526.65	23.5155
526.702	36.1814
526.755	37.9868
526.807	28.9341
526.859	37.9586
526.912	43.3553
526.964	37.9102
527.017	36.0802
527.069	34.2551
527.121	34.2383
527.174	41.4322
527.226	34.2191
527.279	39.6158
527.331	37.8087
527.383	41.3997
527.436	35.9879
527.488	30.577
527.54	44.9454
527.593	37.7364
527.645	35.9239
527.698	41.2975
527.75	41.2868
527.802	43.0764
527.855	39.4883
527.907	41.2931
527.96	41.3116
528.012	41.338
528.064	39.572
528.117	41.4077
528.169	43.2495
528.222	37.8817
528.274	37.9232
528.326	43.3935
528.379	43.4526
528.431	34.4513
528.484	39.9531
528.536	30.9197
528.588	41.8903
528.641	40.116
528.693	38.3293
528.745	27.4
528.798	40.2157
528.85	45.7314
528.903	36.6097
528.955	42.1256
529.007	38.4772
529.06	31.1507
529.112	40.3017
529.164	42.1089
529.217	36.5873
529.269	34.7277
529.322	32.8722
529.374	38.3209
529.426	43.7617
529.479	43.725
529.531	34.5813
529.584	23.6338
529.636	41.7621
529.688	30.8309
529.741	41.6701
529.793	43.4491
529.845	43.4279
529.898	43.4153
529.95	37.9806
530.003	39.7806
530.055	41.5771
530.107	39.7559
530.16	34.323
530.212	37.9261
530.264	50.5631
530.317	45.1509
530.369	45.167
530.422	36.1551
530.474	39.8028
530.526	39.8421
530.579	27.1959
530.631	36.307
530.683	47.2645
530.736	45.5153
530.788	43.766
530.841	32.881
530.893	45.7472
530.945	40.3233
530.998	40.3804
531.05	34.9131
531.102	36.7805
531.155	38.6418
531.207	36.8191
531.259	44.2055
531.312	40.5484
531.364	38.7379
531.417	33.2368
531.469	42.5133
531.521	35.1536
531.574	44.4401
531.626	40.7606
531.678	44.4843
531.731	42.6441
531.783	37.0935
531.835	38.9639
531.888	42.6974
531.94	42.7248
531.992	40.8955
532.045	42.7825
532.097	39.0839
532.15	52.1335
532.202	37.2496
532.254	39.1223
532.307	46.5889
532.359	44.7458
532.411	41.0437
532.464	44.8127
532.516	41.1186
532.568	37.4187
532.621	46.8179
532.673	37.4835
532.726	41.2539
532.778	37.5139
532.83	46.8947
532.883	39.3876
532.935	43.132
532.987	46.8759
533.04	50.6211
533.092	37.4951
533.144	41.2423
533.197	48.7361
533.249	48.7284
533.301	44.9713
533.354	48.7104
533.406	46.8323
533.458	43.0861
533.511	31.8489
533.563	44.9667
533.615	44.965
533.668	56.1926
533.72	50.5494
533.773	39.2905
533.825	46.7404
533.877	41.1033
533.93	52.2826
533.982	44.7911
534.034	48.4988
534.087	42.8748
534.139	50.2864
534.191	37.2067
534.244	40.8737
534.296	46.3861
534.348	44.4799
534.401	42.5915
534.453	48.1254
534.505	42.5679
534.558	44.4244
534.61	37.0293
534.662	48.1504
534.715	46.3093
534.767	55.5842
534.819	46.3341
534.872	50.0627
534.924	53.8046
534.976	46.4201
535.029	50.179
535.081	48.3638
535.133	50.2629
535.186	50.291
535.238	44.7172
535.29	55.9028
535.343	48.4498
535.395	52.1791
535.447	41.0055
535.5	52.2088
535.552	57.8355
535.604	42.9397
535.657	39.2341
535.709	50.4788
535.761	59.8658
535.814	52.4171
535.866	54.3287
535.918	56.2495
535.971	52.5491
536.023	48.8416
536.075	46.9998
536.128	48.9015
536.18	52.6619
536.232	48.8751
536.285	46.9523
536.337	52.528
536.389	52.4716
536.442	50.556
536.494	52.4045
536.546	56.1419
536.599	54.2771
536.651	50.5409
536.703	46.7948
536.755	59.8736
536.808	48.6089
536.86	41.0844
536.912	46.6261
536.965	59.606
537.017	53.9611
537.069	50.195
537.122	46.4376
537.174	50.1063
537.226	48.1994
537.279	46.2899
537.331	46.2309
537.383	55.4088
537.436	51.6599
537.488	51.6179
537.54	49.7473
537.593	58.9398
537.645	55.2422
537.697	44.181
537.75	42.322
537.802	49.652
537.854	53.2892
537.906	53.2448
537.959	49.5337
538.011	60.5031
538.063	54.9818
538.116	42.1484
538.168	54.9853
538.22	56.8393
538.273	47.6953
538.325	56.8971
538.377	47.7424
538.43	51.4334
538.482	49.6085
538.534	47.778
538.586	53.2957
538.639	56.9768
538.691	49.6324
538.743	55.1601
538.796	40.4636
538.848	51.5182
538.9	58.8999
538.953	47.8709
539.005	49.721
539.057	57.0874
539.109	51.5536
539.162	57.0578
539.214	47.8334
539.266	53.3266
539.319	53.3022
539.371	47.7702
539.423	44.0834
539.476	49.5847
539.528	55.0873
539.58	45.9017
539.633	53.2404
539.685	47.7264
539.737	53.2236
539.789	44.0369
539.842	44.0244
539.894	45.8436
539.946	53.1593
539.999	49.4743
540.051	45.7922
540.103	54.9308
540.155	53.0825
540.208	58.5583
540.26	53.0594
540.312	56.7168
540.365	54.8956
540.417	58.5769
540.469	54.9474
540.521	51.3214
540.574	60.532
540.626	47.7239
540.678	49.5828
540.731	58.7783
540.783	45.9218
540.835	56.9396
540.888	58.7759
540.94	58.7851
540.992	67.9954
541.044	49.6454
541.097	53.3568
541.149	62.5955
541.201	66.3143
541.254	60.8161
541.306	57.1527
541.358	55.3286
541.41	55.3465
541.463	46.1345
541.515	49.834
541.567	60.9119
541.62	51.6811
541.672	55.37
541.724	51.6809
541.776	51.6923
541.829	55.4082
541.881	48.0482
541.933	53.6249
541.985	59.2015
542.038	62.9172
542.09	49.96
542.142	53.6393
542.195	59.148
542.247	62.7897
542.299	68.2635
542.351	51.6082
542.404	62.6089
542.456	64.3956
542.508	55.1549
542.56	62.4688
542.613	64.2721
542.665	60.5732
542.717	58.7167
542.77	53.1949
542.822	66.0137
542.874	58.6577
542.926	60.4654
542.979	64.0991
543.031	56.7436
543.083	62.2017
543.135	58.5142
543.188	54.8365
543.24	62.1359
543.292	62.1384
543.344	63.985
543.397	49.3863
543.449	67.7247
543.501	51.2889
543.554	64.1521
543.606	58.6777
543.658	62.3526
543.71	62.3422
543.763	60.4863
543.815	62.292
543.867	64.1007
543.919	60.4264
543.972	60.4279
544.024	58.6091
544.076	60.4606
544.128	69.6475
544.181	66.0065
544.233	64.1958
544.285	64.2181
544.337	62.4055
544.39	60.5921
544.442	56.9399
544.494	56.9576
544.547	56.9714
544.599	62.4954
544.651	68.0173
544.703	64.3457
544.755	66.1879
544.808	64.3514
544.86	58.8344
544.912	68.0208
544.965	68.0088
545.017	60.6427
545.069	69.8152
545.121	62.4556
545.174	64.2859
545.226	66.1175
545.278	58.7619
545.33	67.9193
545.383	62.3724
545.435	78.81
545.487	71.4001
545.539	69.4924
545.591	71.2553
545.644	67.5593
545.696	69.3642
545.748	67.5324
545.8	67.528
545.853	71.1627
545.905	62.0095
545.957	69.2529
546.009	71.0094
546.062	70.9407
546.114	65.4261
546.166	72.6426
546.218	70.7851
546.271	72.5635
546.323	70.7146
546.375	61.6164
546.427	77.8844
546.48	74.2244
546.532	68.766
546.584	72.3684
546.636	68.7465
546.689	72.3733
546.741	74.2005
546.793	79.6554
546.845	76.0623
546.898	70.656
546.95	63.4326
547.002	74.3311
547.054	70.7226
547.106	85.2407
547.159	76.1714
547.211	79.7869
547.263	79.7681
547.315	83.3725
547.368	74.2951
547.42	83.348
547.472	83.3529
547.524	77.9329
547.577	74.3321
547.629	85.2416
547.681	83.4565
547.733	78.0326
547.785	81.673
547.838	90.752
547.89	87.1224
547.942	79.8635
547.994	76.2389
548.047	87.1434
548.099	79.8985
548.151	78.1003
548.203	78.114
548.255	87.2026
548.308	72.6627
548.36	94.4391
548.412	74.4348
548.464	81.6614
548.517	88.8804
548.569	87.0311
548.621	81.5652
548.673	79.7357
548.725	77.9166
548.778	81.5426
548.83	85.1753
548.882	85.1848
548.934	87
548.987	88.7999
549.039	81.5188
549.091	85.0844
549.143	94.0498
549.195	92.1446
549.248	93.8548
549.3	84.7569
549.352	104.529
549.404	81.0704
549.456	88.2576
549.509	99.0435
549.561	90.0076
549.613	97.1522
549.665	93.4809
549.718	98.7869
549.77	93.3206
549.822	93.2598
549.874	91.4292
549.926	94.9969
549.979	91.406
550.031	78.8537
550.083	89.5866
550.135	102.084
550.187	94.8555
550.24	98.3495
550.292	87.5358
550.344	94.5921
550.396	96.3002
550.448	112.289
550.501	96.2257
550.553	105.142
550.605	101.606
550.657	103.423
550.709	103.447
550.762	114.149
550.814	101.636
550.866	106.932
550.918	110.429
550.97	112.146
551.023	112.095
551.075	113.837
551.127	104.918
551.179	115.555
551.231	115.509
551.284	126.106
551.336	118.933
551.388	129.517
551.44	136.568
551.492	134.782
551.545	124.158
551.597	141.932
551.649	143.74
551.701	143.756
551.753	140.196
551.806	156.133
551.858	172.053
551.91	180.879
551.962	179.087
552.014	195.051
552.067	212.811
552.119	243
552.171	274.97
552.223	324.686
552.275	401.04
552.327	564.429
552.38	1068.9
552.432	2240.14
552.484	3658.06
552.536	7241.66
552.588	14443.8
552.641	21029.3
552.693	14597.9
552.745	7209.19
552.797	2560.26
552.849	1044.03
552.901	590.936
552.954	436.38
553.006	331.655
553.058	290.855
553.11	251.859
553.162	209.329
553.215	186.322
553.267	186.401
553.319	163.41
553.371	165.284
553.423	154.709
553.475	156.559
553.528	161.934
553.58	151.25
553.632	138.748
553.684	126.226
553.736	152.795
553.788	136.727
553.841	134.9
553.893	138.436
553.945	136.684
553.997	140.283
554.049	135.011
554.102	131.505
554.154	135.088
554.206	119.099
554.258	133.314
554.31	110.195
554.362	124.397
554.414	126.154
554.467	126.126
554.519	120.762
554.571	129.593
554.623	134.864
554.675	122.396
554.727	127.68
554.78	129.427
554.832	131.18
554.884	132.928
554.936	120.486
554.988	116.892
555.04	129.216
555.093	123.828
555.145	134.359
555.197	123.683
555.249	134.218
555.301	132.389
555.353	139.372
555.406	135.75
555.458	126.826
555.51	130.218
555.562	126.562
555.614	135.208
555.666	136.835
555.719	126.213
555.771	126.145
555.823	127.856
555.875	145.35
555.927	129.584
555.979	141.836
556.031	134.812
556.084	134.769
556.136	118.956
556.188	141.607
556.24	141.513
556.292	132.705
556.344	134.407
556.396	136.144
556.449	148.386
556.501	129.22
556.553	132.749
556.605	136.263
556.657	144.995
556.709	130.996
556.762	127.467
556.814	151.868
556.866	143.105
556.918	144.83
556.97	123.888
557.022	137.862
557.074	153.607
557.127	143.189
557.179	145.009
557.231	160.828
557.283	145.187
557.335	155.78
557.387	152.367
557.439	140.181
557.492	156.025
557.544	152.589
557.596	152.662
557.648	156.253
557.7	151.073
557.752	147.651
557.804	147.747
557.856	151.364
557.909	158.505
557.961	149.79
558.013	153.404
558.065	153.495
558.117	148.295
558.169	153.692
558.221	155.56
558.273	168.028
558.326	159.239
558.378	159.246
558.43	157.43
558.482	166.182
558.534	144.873
558.586	151.861
558.638	165.95
558.691	153.609
558.743	158.964
558.795	162.571
558.847	146.72
558.899	167.952
558.951	164.386
559.003	160.778
559.055	167.738
559.108	155.262
559.16	160.425
559.212	165.566
559.264	172.438
559.316	165.213
559.368	173.789
559.42	171.827
559.472	171.642
559.525	162.747
559.577	166.149
559.629	176.57
559.681	162.526
559.733	165.942
559.785	164.077
559.837	170.886
559.889	167.188
559.941	173.914
559.994	170.205
560.046	168.263
560.098	173.285
560.15	173.122
560.202	169.502
560.254	172.779
560.306	174.287
560.358	175.753
560.41	175.468
560.463	173.463
560.515	169.77
560.567	164.407
560.619	181.327
560.671	189.688
560.723	172.428
560.775	179.066
560.827	173.749
560.879	185.453
560.932	159.756
560.984	179.985
561.036	179.863
561.088	171.3
561.14	161.066
561.192	189.817
561.244	174.477
561.296	172.671
561.348	174.238
561.4	180.884
561.453	187.56
561.505	180.769
561.557	185.859
561.609	187.607
561.661	194.438
561.713	177.582
561.765	197.904
561.817	213.128
561.869	184.363
561.921	192.816
561.974	191.14
562.026	203.018
562.078	192.91
562.13	196.33
562.182	184.498
562.234	204.807
562.286	206.488
562.338	206.49
562.39	189.596
562.442	218.451
562.494	182.984
562.547	217.004
562.599	200.173
562.651	203.676
562.703	190.181
562.755	202.14
562.807	192.009
562.859	205.67
562.911	214.247
562.963	221.138
563.015	199.11
563.067	211.114
563.12	219.716
563.172	216.387
563.224	218.154
563.276	223.312
563.328	219.925
563.38	218.22
563.432	218.202
563.484	228.4
563.536	230.068
563.588	228.327
563.64	224.882
563.692	223.131
563.744	228.171
563.797	238.278
563.849	227.937
563.901	229.498
563.953	248.062
564.005	232.677
564.057	219.044
564.109	230.921
564.161	229.233
564.213	232.629
564.265	241.08
564.317	234.196
564.369	242.527
564.421	228.771
564.474	238.718
564.526	228.339
564.578	243.324
564.63	241.389
564.682	231.008
564.734	222.308
564.786	233.79
564.838	228.434
564.89	233.17
564.942	242.957
564.994	232.685
565.046	217.457
565.098	234.036
565.15	232.213
565.202	242.049
565.255	250.149
565.307	226.532
565.359	246.188
565.411	237.534
565.463	238.864
565.515	236.899
565.567	230.007
565.619	244.652
565.671	251.042
565.723	240.945
565.775	252.319
565.827	235.671
565.879	247.042
565.931	245.219
565.983	245.024
566.035	257.953
566.087	234.73
566.139	237.788
566.192	244.126
566.244	252.109
566.296	247.013
566.348	243.573
566.4	263.009
566.452	251.391
566.504	259.349
566.556	231.425
566.608	252.397
566.66	255.449
566.712	265.026
566.764	245.378
566.816	271.27
566.868	271.205
566.92	272.802
566.972	251.699
567.024	264.723
567.076	263.151
567.128	255.088
567.18	260.018
567.232	268.188
567.285	274.719
567.337	266.611
567.389	260.13
567.441	271.552
567.493	261.861
567.545	283.105
567.597	266.945
567.649	271.94
567.701	281.811
567.753	280.263
567.805	283.591
567.857	262.469
567.909	275.598
567.961	275.71
568.013	280.736
568.065	284.137
568.117	292.343
568.169	276.253
568.221	268.507
568.273	285.949
568.325	285.687
568.377	284.095
568.429	278.215
568.481	287.371
568.533	282.582
568.585	279.747
568.637	295.05
568.69	287.656
568.742	292.256
568.794	295.232
568.846	273.048
568.898	292.771
568.95	298.063
569.002	289.54
569.054	296.088
569.106	291.781
569.158	303.853
569.21	312.225
569.262	302.147
569.314	294.308
569.366	298.892
569.418	307.722
569.47	296.271
569.522	305.019
569.574	308.199
569.626	310.382
569.678	313.07
569.73	323.366
569.782	328.06
569.834	315.456
569.886	297.786
569.938	310.944
569.99	317.259
570.042	320.477
570.094	311.747
570.146	326.332
570.198	327.132
570.25	333.777
570.302	327.114
570.354	319.838
570.406	326.128
570.458	329.175
570.51	335.727
570.562	336.886
570.614	329.001
570.666	339.809
570.718	336.82
570.77	336.531
570.822	351.582
570.874	355.935
570.926	349.282
570.978	355.656
571.03	355.56
571.082	356.186
571.134	343.762
571.186	356.278
571.238	358.523
571.29	360.876
571.342	362.093
571.394	362.005
571.446	360.449
571.498	376.61
571.55	368.751
571.602	378.718
571.654	377.49
571.706	394.2
571.758	387.372
571.81	378.065
571.862	389.338
571.914	396.705
571.966	395.357
572.018	397.778
572.07	408.432
572.122	411.502
572.174	405.743
572.226	434.518
572.278	424.263
572.33	432.574
572.382	425.335
572.434	429.385
572.486	430.592
572.538	450.961
572.59	440.491
572.642	445.501
572.694	446.413
572.746	468.277
572.798	470.331
572.85	454.629
572.902	472.133
572.954	477.591
573.006	488.404
573.058	484.274
573.11	495.183
573.162	505.705
573.214	495.237
573.266	505.981
573.312	507.136
573.364	521.041
573.416	517.957
573.469	541.174
573.521	530.388
573.573	552.078
573.625	550.555
573.677	578.363
573.73	587.532
573.782	568.788
573.834	599.438
573.886	600.724
573.938	605.183
573.991	636.045
574.043	633.144
574.095	633.503
574.147	649.406
574.199	673.016
574.252	673.251
574.304	671.661
574.356	685.253
574.408	724.867
574.46	694.824
574.513	726.612
574.565	732.279
574.617	765.788
574.669	762.36
574.721	772.798
574.774	784.731
574.826	802.757
574.878	813.05
574.93	809.507
574.982	847.447
575.035	839.346
575.087	865.012
575.139	863.059
575.191	887.147
575.243	908.153
575.296	880.179
575.348	925.71
575.4	932.99
575.452	906.609
575.504	935.196
575.556	948.387
575.609	927.914
575.661	945.599
575.713	946.593
575.765	949.28
575.817	967.382
575.87	968.846
575.922	967.272
575.974	945.79
576.026	959.158
576.078	969.293
576.131	936.728
576.183	958.907
576.235	975.071
576.287	967.068
576.339	931.888
576.391	916.545
576.444	927.036
576.496	913.24
576.548	920.638
576.6	899.16
576.652	933.715
576.705	890.908
576.757	878.38
576.809	899.134
576.861	842.7
576.913	855.899
576.965	846.449
577.018	831.013
577.07	811.107
577.122	816.93
577.174	798.636
577.226	816.607
577.279	778.758
577.331	780.174
577.383	763.497
577.435	757.388
577.487	739.2
577.539	764.729
577.592	741.945
577.644	759.822
577.696	721.874
577.748	712.542
577.8	713.749
577.852	693.897
577.905	705.688
577.957	694.94
578.009	705.271
578.061	687.033
578.113	656.765
578.165	667.058
578.218	666.812
578.27	666.556
578.322	640.788
578.374	645.041
578.426	652.275
578.478	623.499
578.531	647.13
578.583	624.263
578.635	620.815
578.687	629.284
578.739	645.179
578.791	628.206
578.844	609.772
578.896	622.656
578.948	616.171
579	612.665
579.052	588.354
579.104	596.721
579.157	600.591
579.209	597.003
579.261	614.088
579.313	591.178
579.365	597.806
579.417	591.135
579.47	585.971
579.522	585.284
579.574	592.027
579.626	592.986
579.678	589.64
579.73	605.428
579.782	572.883
579.835	582.82
579.887	585.375
579.939	574.694
579.991	566.886
580.043	585.326
580.095	576.019
580.148	550.738
580.2	593.984
580.252	596.503
580.304	552.545
580.356	581.326
580.408	576.664
580.46	587.959
580.513	597.775
580.565	581.487
580.617	581.193
580.669	573.713
580.721	576.435
580.773	560.378
580.826	567.515
580.878	596.369
580.93	581.794
580.982	600.504
581.034	584.493
581.086	575.729
581.138	579.994
581.191	553.892
581.243	605.888
581.295	611.624
581.347	588.481
581.399	584.186
581.451	592.955
581.503	575.712
581.556	596.057
581.608	578.726
581.66	581.57
581.712	580.013
581.764	601.586
581.816	581.273
581.868	574.071
581.92	588.658
581.973	593.18
582.025	604.924
582.077	599.216
582.129	606.408
582.181	575.861
582.233	608.911
582.285	617.363
582.338	620.096
582.39	614.259
582.442	601.287
582.494	623.062
582.546	597.136
582.598	611.649
582.65	626.091
582.703	618.766
582.755	622.945
582.807	625.644
582.859	638.459
582.911	605.092
582.963	643.985
583.015	638.159
583.067	615.031
583.12	632.31
583.172	636.543
583.224	626.275
583.276	630.379
583.328	648.865
583.38	648.594
583.432	641.129
583.484	646.624
583.537	663.583
583.589	678.985
583.641	652.543
583.693	636.072
583.745	645.372
583.797	654.647
583.849	653.966
583.901	662.006
583.953	630.176
584.006	657.05
584.058	653.953
584.11	679.35
584.162	646.111
584.214	665.494
584.266	683.268
584.318	675.308
584.37	694.315
584.423	697.711
584.475	685.604
584.527	680.703
584.579	694.292
584.631	661.306
584.683	670.767
584.735	694.334
584.787	710.797
584.839	690.552
584.892	688.593
584.944	683.77
584.996	681.72
585.048	716.154
585.1	693
585.152	723.188
585.204	694.586
585.256	715.104
585.308	695.13
585.361	703.208
585.413	702.924
585.465	715.201
585.517	689.724
585.569	715.856
585.621	702.88
585.673	735.932
585.725	710.508
585.777	721.429
585.83	719.954
585.882	700.512
585.934	739.675
585.986	706.465
586.038	728.995
586.09	750.102
586.142	740.458
586.194	743.275
586.246	725.108
586.298	750.152
586.351	726.439
586.403	747.45
586.455	746.283
586.507	763.371
586.559	762.382
586.611	747.392
586.663	772.811
586.715	754.76
586.767	751.939
586.819	739.25
586.872	740.534
586.924	767.042
586.976	751.76
587.028	754.771
587.08	759.27
587.132	766.597
587.184	761.292
587.236	776.895
587.288	767.2
587.34	758.82
587.392	779.791
587.445	781.151
587.497	765.726
587.549	779.714
587.601	768.502
587.653	781.061
587.705	772.577
587.757	779.438
587.809	784.866
587.861	788.89
587.913	774.764
587.965	776.073
588.018	790.017
588.07	781.619
588.122	805.373
588.174	780.136
588.226	784.168
588.278	799.258
588.33	798.847
588.382	785.772
588.434	778.232
588.486	786.021
588.538	809.158
588.59	789.188
588.642	799.92
588.695	771.762
588.747	797.856
588.799	821.133
588.851	788.797
588.903	791.142
588.955	828.113
589.007	798.445
589.059	836.626
589.111	809.612
589.163	796.373
589.215	830.024
589.267	800.084
589.319	818.443
589.372	807.936
589.424	825.088
589.476	808.018
589.528	836.428
589.58	819.584
589.632	815.104
589.684	799.588
589.736	792.206
589.788	798.419
589.84	789.489
589.892	784.649
589.944	793.512
589.996	790.168
590.048	788.31
590.101	812.466
590.153	809.42
590.205	777.783
590.257	795.144
590.309	801.524
590.361	780.628
590.413	796.437
590.465	820.444
590.517	788.916
590.569	782.009
590.621	765.75
590.673	790.308
590.725	805.366
590.777	771.453
590.829	809.384
590.881	783.324
590.933	776.127
590.986	821.709
591.038	787.236
591.09	782.632
591.142	795.727
591.194	779.193
591.246	793.922
591.298	783.06
591.35	800.642
591.402	780.331
591.454	770.771
591.506	763.839
591.558	782.537
591.61	783.652
591.662	782.097
591.714	775.192
591.766	753.478
591.818	774.994
591.87	757.352
591.923	759.95
591.975	765.246
592.027	761.112
592.079	746.214
592.131	736.742
592.183	774.503
592.235	760.969
592.287	768.979
592.339	768.849
592.391	733.629
592.443	772.593
592.495	760.362
592.547	764.378
592.599	760.37
592.651	767.19
592.703	738.958
592.755	740.363
592.807	768.696
592.859	763.263
592.911	760.485
592.963	754.976
593.015	740.003
593.068	785.644
593.12	750.388
593.172	758.207
593.224	744.442
593.276	760.262
593.328	755.878
593.38	752.841
593.432	751.155
593.484	748.139
593.536	750.513
593.588	746.205
593.64	739.263
593.692	753.849
593.744	748.381
593.796	756.383
593.848	748.319
593.9	746.949
593.952	745.528
594.004	757.436
594.056	770.598
594.108	748.857
594.16	760.584
594.212	746.878
594.264	741.241
594.316	774.432
594.368	770.19
594.42	775.315
594.472	767.07
594.524	754.813
594.576	761.258
594.628	779.722
594.68	775.49
594.732	772.585
594.784	773.642
594.837	783.95
594.889	772.822
594.941	756.282
594.993	778.287
595.045	777.668
595.097	771.828
595.149	780.762
595.201	780.595
595.253	785.921
595.305	786.062
595.357	788.898
595.409	767.778
595.461	773.118
595.513	787.631
595.565	799.378
595.617	795.132
595.669	790.896
595.721	762.845
595.773	802.551
595.825	783.982
595.877	790.638
595.929	793.246
595.981	801.019
596.033	780.778
596.085	801.469
596.137	786.273
596.189	798.819
596.241	813.988
596.293	814.652
596.345	788.993
596.397	787.173
596.449	798.607
596.501	811.432
596.553	823.028
596.605	825.511
596.657	810.975
596.709	818.883
596.761	834.706
596.813	814.951
596.865	789.874
596.917	821.354
596.969	809.375
597.021	784.259
597.073	805.24
597.125	813.095
597.177	815.684
597.229	810.33
597.281	812.785
597.333	803.32
597.385	805.639
597.437	815.853
597.489	813.004
597.541	826.038
597.593	830.005
597.645	826.181
597.697	822.373
597.749	814.562
597.801	832.911
597.853	824.853
597.905	800.945
597.957	819.028
598.009	812.229
598.061	860.666
598.113	818.739
598.165	833.375
598.217	842.842
598.269	844.42
598.321	809.126
598.373	811.789
598.425	835.359
598.477	835.234
598.529	811.5
598.581	811.487
598.633	820.759
598.685	823.526
598.737	831.545
598.789	823.744
598.841	827.695
598.893	859.199
598.945	847.39
598.997	831.762
599.049	833.389
599.101	850.971
599.153	823.938
599.205	845.614
599.257	826.378
599.309	817.523
599.361	844.109
599.413	853.42
599.465	854.737
599.517	836.253
599.569	850.784
599.62	849.556
599.672	856.328
599.724	840.745
599.776	841.059
599.828	865.184
599.88	852.322
599.932	865.838
599.984	848.857
600.036	851.595
600.088	860.844
600.14	854.168
600.192	825.021
600.244	847.504
600.296	870.092
600.348	847.823
600.4	858.681
600.452	849.696
600.504	856.526
600.556	861.921
600.608	857.915
600.66	845.851
600.712	845.632
600.764	865.244
600.816	854.468
600.868	851.716
600.92	827.903
600.972	858.402
601.024	841.336
601.076	862.637
601.128	852.149
601.18	842.936
601.232	869.413
601.284	868.066
601.335	865.355
601.387	857.293
601.439	880.891
601.491	854.117
601.543	843.101
601.595	865.001
601.647	859.075
601.699	847.838
601.751	874.818
601.803	847.798
601.855	845.844
601.907	864.966
601.959	859.155
602.011	857.362
602.063	821.535
602.115	847.474
602.167	848.526
602.219	828.583
602.271	857.048
602.323	853.881
602.375	829.58
602.427	871.816
602.478	870.77
602.53	850.171
602.582	833.631
602.634	855.031
602.686	877.885
602.738	859.267
602.79	844.648
602.842	845.639
602.894	864.759
602.946	863.014
602.998	853.406
603.05	847.635
603.102	861.273
603.154	855.49
603.206	867.863
603.258	847.96
603.31	868.176
603.362	841.912
603.413	854.395
603.465	853.952
603.517	848.337
603.569	846.596
603.621	865.497
603.673	865.138
603.725	858.44
603.777	878.876
603.829	858.232
603.881	846.661
603.933	859.55
603.985	877.543
604.037	860.707
604.089	866.925
604.141	831.913
604.193	848.316
604.244	851.91
604.296	855.617
604.348	885.16
604.4	871.153
604.452	875.209
604.504	868.996
604.556	862.749
604.608	874.467
604.66	866.888
604.712	867.062
604.764	868.592
604.816	858.608
604.868	858.954
604.92	861.858
604.971	860.834
605.023	877.778
605.075	867.603
605.127	878.058
605.179	871.814
605.231	879.857
605.283	878.966
605.335	891.036
605.387	856.582
605.439	869.831
605.491	888.133
605.543	876.587
605.594	872.737
605.646	881.841
605.698	875.532
605.75	860.314
605.802	886.646
605.854	878.128
605.906	841.086
605.958	889.478
606.01	871.576
606.062	897.557
606.114	870.17
606.166	881.564
606.217	877.359
606.269	865.425
606.321	852.3
606.373	867.782
606.425	860.044
606.477	895.07
606.529	879.542
606.581	869.12
606.633	867.675
606.685	872.625
606.737	849.05
606.789	899.231
606.84	873.093
606.892	885.811
606.944	881.771
606.996	879.071
607.048	878.979
607.1	862.08
607.152	855.487
607.204	873.381
607.256	889.885
607.308	866.254
607.359	865.782
607.411	874.277
607.463	880.167
607.515	860.323
607.567	894.634
607.619	869.807
607.671	823.2
607.723	898.814
607.775	874.113
607.827	890.522
607.878	892.751
607.93	896.231
607.982	863.746
608.034	894.122
608.086	882.121
608.138	895.708
608.19	869.523
608.242	886.843
608.294	900.305
608.345	853.738
608.397	900.579
608.449	879.837
608.501	871.995
608.553	875.719
608.605	883.281
608.657	869.09
608.709	904.569
608.761	865.949
608.812	875.725
608.864	912.219
608.916	897.765
608.968	887.212
609.02	893.301
609.072	899.481
609.124	907.01
609.176	904.418
609.228	891.682
609.279	908.215
609.331	898.034
609.383	900.566
609.435	894.185
609.487	904.334
609.539	899.222
609.591	905.567
609.643	900.483
609.694	896.691
609.746	901.817
609.798	926.027
609.85	899.338
609.902	920.946
609.954	899.241
610.006	885.094
610.058	920.452
610.109	894.704
610.161	903.212
610.213	933.257
610.265	921.377
610.317	923.474
610.369	912.926
610.421	903.712
610.473	878.102
610.524	939.99
610.576	915.79
610.628	933.436
610.68	911.839
610.732	943.427
610.784	890.158
610.836	944.509
610.887	927.966
610.939	908.925
610.991	934.237
611.043	939.329
611.095	922.907
611.147	920.378
611.199	943.096
611.25	944.192
611.302	912.281
611.354	947.333
611.406	934.242
611.458	914.803
611.51	924.418
611.562	908.797
611.614	924.766
611.665	929.414
611.717	931.568
611.769	914.819
611.821	923.232
611.873	951.716
611.925	953.693
611.977	949.367
612.028	940.053
612.08	903.191
612.132	953.09
612.184	938.991
612.236	941.201
612.288	964.634
612.339	938.975
612.391	949.492
612.443	946.077
612.495	955.126
612.547	950.495
612.599	949.801
612.651	928.138
612.702	942.876
612.754	942.787
612.806	925.268
612.858	952.556
612.91	957.234
612.962	941.793
613.013	939.916
613.065	960.353
613.117	967.081
613.169	957.704
613.221	959.588
613.273	934.236
613.325	941.173
613.376	957.992
613.428	957.389
613.48	964.138
613.532	975.767
613.584	974.995
613.635	976.711
613.687	958.723
613.739	944.507
613.791	962.375
613.843	966.675
613.895	967.255
613.947	944.445
613.998	981.881
614.05	955.449
614.102	974.548
614.154	970.44
614.206	977.502
614.258	999.386
614.309	983.33
614.361	979.573
614.413	994.209
614.465	989.213
614.517	1000.13
614.568	981.593
614.62	997.332
614.672	998.312
614.724	971.068
614.776	1011.11
614.828	994.811
614.879	1007.88
614.931	1003.86
614.983	986.475
615.035	1005.83
615.087	1002.02
615.139	1000.67
615.19	1017.61
615.242	995.406
615.294	993.912
615.346	1018.02
615.398	1025.02
615.449	995.435
615.501	1026.86
615.553	1009.49
615.605	993.326
615.657	1008.8
615.709	1015.69
615.76	1033.52
615.812	1025.79
615.864	1002.3
615.916	1020.21
615.968	1021.13
616.019	1027.91
616.071	1017.09
616.123	1032.28
616.175	1016.5
616.227	1020.27
616.278	1026.12
616.33	1028.02
616.382	1018.3
616.434	1020.44
616.486	1042.63
616.537	1027.37
616.589	1040.96
616.641	1026.06
616.693	1020.43
616.745	1028.5
616.797	1016.85
616.848	1016.47
616.9	1041.09
616.952	1028.19
617.004	1025.15
617.056	1031.4
617.107	1030.94
617.159	1055.26
617.211	1028.29
617.263	1022.18
617.315	1023.7
617.366	1032.54
617.418	1027.43
617.47	1050.41
617.522	1037.37
617.573	1041.05
617.625	1047.38
617.677	1025.02
617.729	1052
617.781	1031.16
617.832	1028.73
617.884	1032.42
617.936	1039.53
617.988	1034.78
618.04	1027.12
618.091	1045.55
618.143	1047.99
618.195	1034.06
618.247	1046.8
618.299	1050.58
618.35	1052.78
618.402	1030.28
618.454	1026.66
618.506	1050.34
618.557	1056
618.609	1062.29
618.661	1052.3
618.713	1041.18
618.765	1049.74
618.816	1071.84
618.868	1055.92
618.92	1065.11
618.972	1050.5
619.023	1062.01
619.075	1065.06
619.127	1056.58
619.179	1048.34
619.231	1066.67
619.282	1067.44
619.334	1072.64
619.386	1077.51
619.438	1050.29
619.49	1071.76
619.541	1073.22
619.593	1061.09
619.645	1063.05
619.697	1058.5
619.748	1063.64
619.8	1063.99
619.852	1067.12
619.904	1073.78
619.955	1083.87
620.007	1061.74
620.059	1068.68
620.111	1073.93
620.162	1085.12
620.214	1078.08
620.266	1063.45
620.318	1053.57
620.37	1067.09
620.421	1066.98
620.473	1056.61
620.525	1078.01
620.577	1079.39
620.628	1067.3
620.68	1080.53
620.732	1089.2
620.784	1073.54
620.835	1077.58
620.887	1073.61
620.939	1081.45
620.991	1085.57
621.042	1078.42
621.094	1076
621.146	1079.28
621.198	1071.74
621.249	1074.58
621.269	1079.49
621.321	1088.22
621.373	1078.04
621.425	1086.64
621.477	1084.74
621.529	1088.79
621.581	1085.91
621.633	1073.78
621.685	1089.86
621.737	1086.14
621.789	1080.19
621.841	1095.39
621.893	1088.43
621.945	1092.06
621.997	1087.5
622.049	1094.63
622.101	1097.02
622.153	1071.2
622.205	1075.69
622.257	1088.2
622.309	1083
622.361	1092.88
622.413	1091
622.465	1089.13
622.517	1076.85
622.569	1099.66
622.621	1115.54
622.673	1098.82
622.725	1084.44
622.776	1081.68
622.828	1091.71
622.88	1116.83
622.932	1075.69
622.984	1082.29
623.036	1100.58
623.088	1108.46
623.14	1123.32
623.192	1076.58
623.244	1094.81
623.296	1087.39
623.348	1101.92
623.4	1064.22
623.452	1065.96
623.504	1112.93
623.556	1102.05
623.608	1100.52
623.66	1094.39
623.712	1079
623.764	1086.66
623.816	1099.97
623.868	1102.75
623.92	1089.28
623.972	1113.83
624.024	1079.58
624.076	1101.84
624.128	1088.48
624.18	1100.53
624.232	1081.63
624.284	1100.78
624.336	1099.34
624.388	1093.36
624.44	1088.54
624.492	1107.78
624.544	1094.76
624.596	1104.56
624.648	1093.57
624.699	1096.24
624.751	1105.72
624.803	1117.5
624.855	1122.45
624.907	1090.92
624.959	1113.15
625.011	1106.87
625.063	1126.85
625.115	1110.35
625.167	1106.41
625.219	1109.35
625.271	1096.4
625.323	1108.55
625.375	1108.25
625.427	1128.45
625.479	1105.43
625.531	1132.41
625.583	1122.95
625.635	1105.48
625.687	1115.24
625.739	1079.57
625.791	1123.36
625.843	1111.57
625.895	1121.37
625.946	1106.25
625.998	1117.24
626.05	1130.52
626.102	1129.13
626.154	1145.92
626.206	1133.34
626.258	1119.7
626.31	1141.2
626.362	1124.21
626.414	1133.25
626.466	1136.58
626.518	1117.21
626.57	1127.18
626.622	1148.36
626.674	1143.4
626.726	1145.12
626.778	1098.21
626.83	1128.17
626.882	1151.47
626.934	1153.54
626.985	1132.17
627.037	1106.48
627.089	1153.15
627.141	1160.26
627.193	1136.69
627.245	1141.15
627.297	1153.3
627.349	1147.24
627.401	1163.73
627.453	1130.63
627.505	1146.17
627.557	1162.95
627.609	1162.86
627.661	1152.62
627.713	1151.32
627.765	1149.91
627.817	1154.05
627.868	1168.27
627.92	1171.25
627.972	1172.04
628.024	1172.89
628.076	1145.64
628.128	1169.02
628.18	1141.73
628.232	1143.67
628.284	1162.48
628.336	1158.87
628.388	1183.46
628.44	1176.72
628.492	1144.22
628.544	1167.96
628.596	1171.45
628.647	1156.89
628.699	1179.37
628.751	1190.56
628.803	1178.14
628.855	1169.13
628.907	1165.79
628.959	1160.22
629.011	1199.63
629.063	1174.91
629.115	1164.77
629.167	1191.68
629.219	1196.07
629.271	1184.71
629.322	1178.96
629.374	1175.43
629.426	1198.81
629.478	1160.33
629.53	1174.59
629.582	1174.18
629.634	1186.07
629.686	1176.62
629.738	1167.16
629.79	1205.89
629.842	1215.45
629.894	1185.8
629.945	1192.02
629.997	1209.47
630.049	1214.7
630.101	1206.61
630.153	1210.92
630.205	1214.16
630.257	1209.58
630.309	1210.53
630.361	1227.03
630.413	1215.51
630.465	1215.11
630.517	1219.17
630.568	1200.97
630.62	1195.14
630.672	1235.15
630.724	1223.92
630.776	1222.76
630.828	1229.38
630.88	1220.31
630.932	1217.83
630.984	1211.86
631.036	1240.31
631.088	1239.67
631.14	1221.14
631.191	1221.54
631.243	1230.88
631.295	1252.53
631.347	1237.62
631.399	1227.29
631.451	1227.06
631.503	1241.34
631.555	1247.87
631.607	1248.86
631.659	1262.04
631.71	1268.54
631.762	1249.49
631.814	1243.72
631.866	1266.73
631.918	1279.65
631.97	1244.79
632.022	1244.2
632.074	1257.95
632.126	1263.98
632.178	1244.69
632.229	1233.37
632.281	1258.78
632.333	1266.71
632.385	1252.63
632.437	1275.08
632.489	1264.24
632.541	1262.12
632.593	1276.45
632.645	1274.07
632.696	1271.66
632.748	1271.48
632.8	1305.66
632.852	1284.54
632.904	1262.32
632.956	1323.01
633.008	1285.15
633.06	1277.03
633.112	1300.88
633.164	1314.73
633.215	1306.55
633.267	1290.76
633.319	1322.61
633.371	1285.03
633.423	1304.94
633.475	1298.36
633.527	1335.88
633.579	1316.99
633.63	1315.65
633.682	1295.46
633.734	1330.41
633.786	1317.94
633.838	1336.42
633.89	1343.91
633.942	1337.08
633.994	1326.91
634.046	1332.09
634.097	1360.33
634.149	1341.18
634.201	1341.92
634.253	1346.12
634.305	1349.43
634.357	1346.38
634.409	1357.82
634.461	1371.59
634.512	1366.63
634.564	1352.75
634.616	1356.37
634.668	1378.57
634.72	1386.26
634.772	1370.63
634.824	1392.35
634.876	1394.14
634.927	1394.79
634.979	1387.77
635.031	1410.6
635.083	1407.18
635.135	1414.94
635.187	1401.91
635.239	1421.96
635.291	1397.89
635.342	1440.87
635.394	1417.58
635.446	1422.78
635.498	1446.62
635.55	1450.66
635.602	1419.56
635.654	1451.29
635.705	1442.41
635.757	1454.49
635.809	1483.07
635.861	1481.89
635.913	1500.43
635.965	1496.92
636.017	1483.51
636.068	1495.45
636.12	1507.51
636.172	1504.33
636.224	1549.67
636.276	1532.38
636.328	1550.2
636.38	1583.21
636.431	1585.09
636.483	1558.04
636.535	1595.62
636.587	1608.9
636.639	1586.07
636.691	1620.59
636.743	1634.64
636.794	1618.36
636.846	1635.28
636.898	1701.73
636.95	1664.95
637.002	1729
637.054	1723.55
637.106	1748.54
637.157	1762.26
637.209	1764.84
637.261	1770.69
637.313	1824.87
637.365	1835.32
637.417	1837.17
637.469	1839.16
637.52	1876.27
637.572	1902.43
637.624	1882.54
637.676	1917.42
637.728	1988.48
637.78	1946.78
637.831	2003.79
637.883	1984.23
637.935	2002
637.987	2009.96
638.039	2025.59
638.091	2049.92
638.143	2021.53
638.194	2053.27
638.246	2074.95
638.298	2099.68
638.35	2052.98
638.402	2078.45
638.454	2012.97
638.505	2110.63
638.557	2086.93
638.609	2027.35
638.661	2060.92
638.713	2038.92
638.765	2082.66
638.816	2054.35
638.868	2062.14
638.92	2027.23
638.972	2026.06
639.024	2031.24
639.076	2043.83
639.127	1997.21
639.179	1966.94
639.231	1968.42
639.283	1931.9
639.335	1933.86
639.387	1916.41
639.438	1914.39
639.49	1900.39
639.542	1900.52
639.594	1855.79
639.646	1861.22
639.698	1887.37
639.749	1880.8
639.801	1861.15
639.853	1841.45
639.905	1824.89
639.957	1815.79
640.008	1791.24
640.06	1822.21
640.112	1798.67
640.164	1750.23
640.216	1769.63
640.268	1776.3
640.319	1786.56
640.371	1764.37
640.423	1757.56
640.475	1749.65
640.527	1739.41
640.578	1757.31
640.63	1749.81
640.682	1715.81
640.734	1718.71
640.786	1737.84
640.838	1712.17
640.889	1750.95
640.941	1692.78
640.993	1706.74
641.045	1714.26
641.097	1710.88
641.148	1684.53
641.2	1705.99
641.252	1666.24
641.304	1666.71
641.356	1688.98
641.408	1687.43
641.459	1683.94
641.511	1687.23
641.563	1673.26
641.615	1701.77
641.667	1677.87
641.718	1696.2
641.77	1714.25
641.822	1699.48
641.874	1675.98
641.926	1647.17
641.977	1680.55
642.029	1662.01
642.081	1670.86
642.133	1686.37
642.185	1659.49
642.236	1685.83
642.288	1675.06
642.34	1672.84
642.392	1678.09
642.444	1681.08
642.495	1682.95
642.547	1700.04
642.599	1644.36
642.651	1695.23
642.703	1666.78
642.754	1666.55
642.806	1669.48
642.858	1678.82
642.91	1658.73
642.962	1712.38
643.013	1683.53
643.065	1695.95
643.117	1695.41
643.169	1667.84
643.221	1670.63
643.272	1688.55
643.324	1673.92
643.376	1668.98
643.428	1679.16
643.479	1667.76
643.531	1674.87
643.583	1673.51
643.635	1676.69
643.687	1694.12
643.738	1669.51
643.79	1699.99
643.842	1677.31
643.894	1668.45
643.946	1667.96
643.997	1681.32
644.049	1689.14
644.101	1703.43
644.153	1688.69
644.205	1683.83
644.256	1706.1
644.308	1676.72
644.36	1702.41
644.412	1690.39
644.463	1726.93
644.515	1681.61
644.567	1689.2
644.619	1706.58
644.671	1708.91
644.722	1693.97
644.774	1730.72
644.826	1707.01
644.878	1712.37
644.929	1711.27
644.981	1690.81
645.033	1707.05
645.085	1715.73
645.136	1715.67
645.188	1689.58
645.24	1724.81
645.292	1748.11
645.344	1686.36
645.395	1707.79
645.447	1742.4
645.499	1728.74
645.551	1735.69
645.602	1710.32
645.654	1722.64
645.706	1730.62
645.758	1738.64
645.81	1742.47
645.861	1749.7
645.913	1721.43
645.965	1739.68
646.017	1751.4
646.068	1747.79
646.12	1722.28
646.172	1749.52
646.224	1737.52
646.275	1730.74
646.327	1728.16
646.379	1750.41
646.431	1753.2
646.482	1722.58
646.534	1755.91
646.586	1772.1
646.638	1765.73
646.689	1735.63
646.741	1766.06
646.793	1766.12
646.845	1746.61
646.896	1750.82
646.948	1748.55
647	1734.47
647.052	1759.41
647.104	1764.96
647.155	1773.73
647.207	1774.78
647.259	1759.39
647.31	1774.02
647.362	1780.89
647.414	1767.17
647.466	1779.44
647.518	1769.22
647.569	1771.11
647.621	1789.42
647.673	1789.5
647.724	1782.03
647.776	1755.03
647.828	1764.56
647.88	1790.1
647.931	1803.65
647.983	1761.11
648.035	1782.31
648.087	1781.06
648.138	1798.34
648.19	1785.61
648.242	1821.49
648.294	1809.9
648.345	1779.84
648.397	1808.95
648.449	1794.72
648.501	1739.36
648.552	1815.43
648.604	1817.02
648.656	1825.02
648.708	1791.01
648.759	1814.1
648.811	1815.72
648.863	1818.51
648.915	1809.6
648.966	1824.5
649.018	1816.91
649.07	1837.3
649.121	1833.95
649.173	1824
649.225	1822.5
649.277	1830.57
649.328	1855.81
649.38	1802.69
649.432	1851.76
649.484	1810.71
649.535	1854.57
649.587	1853.28
649.639	1851.87
649.69	1886.77
649.742	1813.15
649.794	1839.27
649.846	1841.82
649.897	1843.43
649.949	1878.44
650.001	1877.2
650.053	1883.6
650.104	1870.8
650.156	1871.95
650.208	1884.9
650.259	1898.92
650.311	1863.69
650.363	1888.54
650.415	1911.36
650.466	1897.86
650.518	1927.36
650.57	1855.02
650.621	1891.03
650.673	1909.81
650.725	1881.2
650.777	1900.7
650.828	1883.49
650.88	1910.13
650.932	1904.46
650.984	1903.07
651.035	1892.11
651.087	1915.65
651.139	1922.21
651.19	1913.88
651.242	1927.08
651.294	1933.82
651.345	1965.16
651.397	1923.38
651.449	1934.16
651.501	1907.41
651.552	1949.56
651.604	1964
651.656	1925.98
651.707	1957.91
651.759	1953.22
651.811	1988.14
651.863	1961.46
651.914	1963.55
651.966	1970.85
652.018	1945.82
652.069	1943.46
652.121	1964.91
652.173	1953.19
652.224	1966.34
652.276	1962.36
652.328	1973.5
652.38	1976.08
652.431	1988.42
652.483	1985.79
652.535	2006.93
652.586	1992.53
652.638	2034.08
652.69	2026.88
652.741	1997.79
652.793	1997.47
652.845	2019.53
652.897	2018.85
652.948	2004.27
653	2021.18
653.052	2050.23
653.103	2039.71
653.155	2056.22
653.207	2036.04
653.258	2033.93
653.31	2029.33
653.362	2025.47
653.413	2039.65
653.465	2050.47
653.517	2032.25
653.568	2055.02
653.62	2074.73
653.672	2029.09
653.724	2058.75
653.775	2050.83
653.827	2043.88
653.879	2053.93
653.93	2076.67
653.982	2068.21
654.034	2094.1
654.085	2094.42
654.137	2061.78
654.189	2075.4
654.24	2106.22
654.292	2121.9
654.344	2063.44
654.395	2088.1
654.447	2096.4
654.499	2099.21
654.55	2109.54
654.602	2122.15
654.654	2082.7
654.705	2100.96
654.757	2125.57
654.809	2125.53
654.86	2149.82
654.912	2138.91
654.964	2157.87
655.016	2158.98
655.067	2126.44
655.119	2161.12
655.17	2154.57
655.222	2138.5
655.274	2166.92
655.326	2127.19
655.377	2155.15
655.429	2152.11
655.481	2199.77
655.532	2185.82
655.584	2195.18
655.635	2195.14
655.687	2167.86
655.739	2137.78
655.79	2204.32
655.842	2189.7
655.894	2213.26
655.945	2194.37
655.997	2213.28
656.049	2208.55
656.1	2206.7
656.152	2255.46
656.204	2259.88
656.255	2210.63
656.307	2252.45
656.359	2245.83
656.41	2287.78
656.462	2264.13
656.514	2258.24
656.565	2271.18
656.617	2286.18
656.669	2241.19
656.72	2277.59
656.772	2257.35
656.824	2310.09
656.875	2268.19
656.927	2286.52
656.979	2309.23
657.03	2283.58
657.082	2304.53
657.134	2316.15
657.185	2332.07
657.237	2298.28
657.288	2321.31
657.34	2330.24
657.392	2360.94
657.443	2321.51
657.495	2348.48
657.547	2357.49
657.598	2330.77
657.65	2347.68
657.702	2362.78
657.753	2366.5
657.805	2334.41
657.857	2377.39
657.908	2377
657.96	2380.79
658.011	2356.03
658.063	2423.45
658.115	2390.44
658.166	2373.43
658.218	2396.78
658.27	2381.96
658.321	2396.72
658.373	2419.8
658.425	2405.53
658.476	2418.71
658.528	2402.09
658.579	2374.86
658.631	2424.2
658.683	2446.01
658.734	2430.68
658.786	2399.37
658.838	2432.84
658.889	2434.37
658.941	2466.77
658.992	2471.66
659.044	2448.04
659.096	2429.98
659.147	2461.11
659.199	2454
659.251	2510.84
659.302	2471.55
659.354	2470.42
659.406	2480.77
659.457	2494.05
659.509	2478.23
659.56	2416.22
659.612	2462.91
659.664	2424.96
659.715	2512.74
659.767	2454.06
659.818	2462.49
659.87	2481.56
659.922	2491.14
659.973	2467.86
660.025	2470.4
660.077	2464.68
660.128	2431.58
660.18	2475.42
660.231	2458.82
660.283	2514.76
660.335	2492.92
660.386	2455.92
660.438	2538.92
660.49	2468.03
660.541	2467.07
660.593	2492.49
660.644	2464.67
660.696	2483.81
660.748	2460.65
660.799	2491.88
660.851	2476.38
660.902	2486.27
660.954	2472.6
661.006	2518.17
661.057	2459.64
661.109	2463.7
661.16	2503.85
661.212	2485.8
661.264	2507.02
661.315	2482.74
661.367	2488.1
661.418	2504.03
661.47	2503.07
661.522	2484.22
661.573	2479.22
661.625	2465.89
661.676	2433.66
661.728	2474.33
661.78	2434.78
661.831	2478.57
661.883	2454.73
661.934	2463.46
661.986	2485.7
662.038	2489.78
662.089	2470.43
662.141	2459.27
662.192	2453.19
662.244	2452.29
662.296	2413.64
662.347	2463.37
662.399	2469.31
662.45	2428.43
662.502	2448.67
662.554	2439.79
662.605	2426.79
662.657	2445.1
662.708	2455.82
662.76	2471.41
662.811	2447.93
662.863	2449.26
662.915	2476.53
662.966	2452.64
663.018	2413.33
663.069	2412.99
663.121	2427.71
663.173	2449.18
663.224	2419.02
663.276	2429.75
663.327	2442.6
663.379	2441.7
663.43	2405.01
663.482	2455.34
663.534	2456.31
663.585	2413.35
663.637	2456.69
663.688	2405.57
663.74	2431.77
663.792	2453.13
663.843	2391.7
663.895	2449.91
663.946	2430.79
663.998	2444.47
664.049	2441.37
664.101	2432.16
664.153	2447.81
664.204	2442.16
664.256	2425.61
664.307	2423.69
664.359	2428.55
664.41	2456.3
664.462	2444.96
664.513	2429.35
664.565	2418.56
664.617	2424.95
664.668	2449.77
664.72	2425.8
664.771	2438.35
664.823	2431.16
664.874	2421
664.926	2443.21
664.978	2438.76
665.029	2461.7
665.081	2435.09
665.132	2419.47
665.184	2451.68
665.235	2421.9
665.287	2425.37
665.339	2439.6
665.39	2432.36
665.442	2420.64
665.493	2432.96
665.545	2438.58
665.596	2446.02
665.648	2442.02
665.699	2411.77
665.751	2421.81
665.802	2408.58
665.854	2423.66
665.906	2441.37
665.957	2428.53
666.009	2424.95
666.06	2429.18
666.112	2429.15
666.163	2432.59
666.215	2425.26
666.266	2428.55
666.318	2444.97
666.37	2418.65
666.421	2413.31
666.473	2413.48
666.524	2419.45
666.576	2417.25
666.627	2416.56
666.679	2414.32
666.73	2427.4
666.782	2419.3
666.833	2410.43
666.885	2436.43
666.937	2434.97
666.988	2437.44
667.04	2442.62
667.091	2440.33
667.143	2429.35
667.194	2424.29
667.246	2430.65
667.297	2431.78
667.349	2456.13
667.4	2431.81
667.452	2417.33
667.503	2434.98
667.555	2437.09
667.607	2425.64
667.658	2428.62
667.71	2411.24
667.761	2417.5
667.813	2422.31
667.864	2434.95
667.916	2432.51
667.967	2438.6
668.019	2438.11
668.07	2432.65
668.122	2450.16
668.173	2443.69
668.225	2452.26
668.276	2424.64
668.328	2416.13
668.379	2451.58
668.431	2424.5
668.482	2439.05
668.534	2436.48
668.586	2424.63
668.637	2437.52
668.689	2439.25
668.74	2461.99
668.792	2455.95
668.843	2437.41
668.895	2424.55
668.935	2472.73
668.987	2432.87
669.038	2469.36
669.09	2438.3
669.142	2446.82
669.194	2444.7
669.245	2441.21
669.297	2430.11
669.349	2463.74
669.401	2467.17
669.453	2435.37
669.504	2479.19
669.556	2469.12
669.608	2416.44
669.66	2448.56
669.711	2453.31
669.763	2451.42
669.815	2464.83
669.867	2463.21
669.918	2469.79
669.97	2447.01
670.022	2446.47
670.074	2461.98
670.125	2461.04
670.177	2483.45
670.229	2454.47
670.281	2477.96
670.332	2480.19
670.384	2469.43
670.436	2455.09
670.488	2458.25
670.539	2452.64
670.591	2474.16
670.643	2466.07
670.695	2469.52
670.747	2456.18
670.798	2500.79
670.85	2479.33
670.902	2425.48
670.953	2464.24
671.005	2455.78
671.057	2431.54
671.109	2449.2
671.161	2461.42
671.212	2451.36
671.264	2456.85
671.316	2474.8
671.367	2442.34
671.419	2478.16
671.471	2445.98
671.523	2466.46
671.575	2463.08
671.626	2466.2
671.678	2461.08
671.73	2453.92
671.781	2451.94
671.833	2484.44
671.885	2493.73
671.937	2434.76
671.988	2464.8
672.04	2462.36
672.092	2464.21
672.144	2430.6
672.195	2436.97
672.247	2452.87
672.299	2438.38
672.351	2485.57
672.402	2447.65
672.454	2456.61
672.506	2495.72
672.558	2502.22
672.609	2461.64
672.661	2481.86
672.713	2495.91
672.765	2477.58
672.816	2482.18
672.868	2474
672.92	2450.87
672.971	2473.34
673.023	2489.26
673.075	2464.42
673.127	2481.44
673.178	2498.78
673.23	2498.87
673.282	2475.45
673.334	2400.27
673.385	2484.3
673.437	2507.81
673.489	2484.2
673.54	2496.69
673.592	2476.81
673.644	2494.36
673.696	2531.82
673.747	2479.27
673.799	2543.21
673.851	2480.72
673.903	2481.51
673.954	2487.35
674.006	2448.4
674.058	2515.01
674.109	2488.15
674.161	2498.48
674.213	2491.1
674.265	2517.76
674.316	2504.95
674.368	2520.99
674.42	2539.02
674.471	2532.32
674.523	2502.14
674.575	2506.4
674.627	2519.36
674.678	2499.74
674.73	2524.76
674.782	2523.06
674.833	2560.45
674.885	2545.97
674.937	2519.78
674.989	2540.72
675.04	2529.51
675.092	2533.77
675.144	2525.88
675.195	2562.61
675.247	2503.95
675.299	2578.5
675.351	2561.61
675.402	2542.78
675.454	2552.84
675.506	2555.67
675.557	2589.45
675.609	2534.53
675.661	2566.33
675.713	2563.1
675.764	2596.06
675.816	2577.39
675.868	2604.23
675.919	2551.48
675.971	2586.69
676.023	2581.62
676.074	2579.72
676.126	2534.34
676.178	2539.74
676.23	2599.1
676.281	2603.56
676.333	2598.74
676.385	2538.95
676.436	2605.96
676.488	2606.53
676.54	2597.71
676.591	2611.71
676.643	2581.84
676.695	2577.87
676.747	2606.12
676.798	2643.72
676.85	2628.14
676.902	2609.47
676.953	2636.85
677.005	2630.93
677.057	2635.56
677.108	2619.34
677.16	2610.44
677.212	2654.93
677.263	2627.05
677.315	2637.83
677.367	2653.74
677.419	2642.24
677.47	2635.87
677.522	2658.86
677.574	2632.48
677.625	2595.59
677.677	2662.84
677.729	2644.92
677.78	2624.83
677.832	2620.42
677.884	2632.78
677.935	2627.23
677.987	2663.9
678.039	2669.14
678.091	2648.19
678.142	2627.27
678.194	2632.59
678.246	2651.33
678.297	2620.02
678.349	2642.18
678.401	2625.06
678.452	2656.58
678.504	2641.95
678.556	2665.77
678.607	2664.62
678.659	2676.31
678.711	2684.68
678.762	2635.52
678.814	2624.9
678.866	2625.36
678.917	2670.91
678.969	2632.85
679.021	2627.69
679.072	2663.97
679.124	2651.92
679.176	2679.01
679.227	2659.55
679.279	2626.12
679.331	2642
679.382	2679.81
679.434	2657.48
679.486	2642.67
679.537	2643.87
679.589	2668.41
679.641	2669.87
679.692	2661.82
679.744	2607.36
679.796	2627.46
679.847	2638.02
679.899	2654.92
679.951	2646.74
680.003	2646.08
680.054	2677.03
680.106	2648.16
680.157	2675.88
680.209	2657.25
680.261	2610.11
680.312	2639.34
680.364	2673.66
680.416	2672.27
680.467	2634.26
680.519	2661.16
680.571	2670.29
680.622	2671.09
680.674	2666.7
680.726	2650.9
680.777	2642.53
680.829	2649.99
680.881	2699.39
680.932	2662.41
680.984	2645.37
681.036	2657.52
681.087	2638.2
681.139	2685.21
681.191	2654.66
681.242	2662.23
681.294	2654.96
681.346	2643.63
681.397	2677.35
681.449	2667.02
681.501	2649.07
681.552	2671.14
681.604	2661.38
681.656	2672.43
681.707	2714.39
681.759	2671.77
681.81	2686.84
681.862	2700.51
681.914	2707.78
681.965	2689.2
682.017	2688.57
682.069	2684.21
682.12	2679.26
682.172	2717.22
682.224	2686.94
682.275	2702.41
682.327	2745.86
682.379	2698.75
682.43	2706.41
682.482	2679.45
682.533	2705.14
682.585	2692.09
682.637	2678.84
682.688	2710.19
682.74	2659.64
682.792	2663.34
682.843	2692.31
682.895	2731.04
682.947	2704.78
682.998	2713
683.05	2696.4
683.102	2668.3
683.153	2695.17
683.205	2693.88
683.256	2691.53
683.308	2701.74
683.36	2692.37
683.411	2715.47
683.463	2686.71
683.515	2730.97
683.566	2701.21
683.618	2739.09
683.669	2704.67
683.721	2674.04
683.773	2735.95
683.824	2698.31
683.876	2753.41
683.928	2711.38
683.979	2716.53
684.031	2701.14
684.082	2712.23
684.134	2714.25
684.186	2717.47
684.237	2691.37
684.289	2706.89
684.341	2713.78
684.392	2694.27
684.444	2708.16
684.495	2678.16
684.547	2734.2
684.599	2735.05
684.65	2717.34
684.702	2692.49
684.754	2702.3
684.805	2689.02
684.857	2719.67
684.908	2679.8
684.96	2704.78
685.012	2707.46
685.063	2685.73
685.115	2677.44
685.166	2722.56
685.218	2680.33
685.27	2701.05
685.321	2729.12
685.373	2663.76
685.424	2720.39
685.476	2695.26
685.528	2647.18
685.579	2715.82
685.631	2668.93
685.683	2694.49
685.734	2666.39
685.786	2712.84
685.837	2682.57
685.889	2721.73
685.941	2675.83
685.992	2689.95
686.044	2691.48
686.095	2665.62
686.147	2694.33
686.199	2705.01
686.25	2707.1
686.302	2708.01
686.353	2707.79
686.405	2636.03
686.457	2686.3
686.508	2715.57
686.56	2679.66
686.611	2655.39
686.663	2683.79
686.715	2647.13
686.766	2701.04
686.818	2674.02
686.869	2666.94
686.921	2613.36
686.973	2630.99
687.024	2708.16
687.076	2634.57
687.127	2698.45
687.179	2644.6
687.231	2645.54
687.282	2646.77
687.334	2665.13
687.385	2664.89
687.437	2611.3
687.489	2662.64
687.54	2666.64
687.592	2681.98
687.643	2654.06
687.695	2661.55
687.747	2652.05
687.798	2678.04
687.85	2657.92
687.901	2628.51
687.953	2652.69
688.004	2612.33
688.056	2597.41
688.108	2627.7
688.159	2652.9
688.211	2672.9
688.262	2660.41
688.314	2649.93
688.366	2659.28
688.417	2658.21
688.469	2622.74
688.52	2623.99
688.572	2652.52
688.623	2643.39
688.675	2695.91
688.727	2638.48
688.778	2638.5
688.83	2657.34
688.881	2623.87
688.933	2649.02
688.984	2658.45
689.036	2644.75
689.088	2621.47
689.139	2630.48
689.191	2627.93
689.242	2640.15
689.294	2623.39
689.346	2614.36
689.397	2629.81
689.449	2639.31
689.5	2652.09
689.552	2648.02
689.603	2651.01
689.655	2658.89
689.706	2583.66
689.758	2619.31
689.81	2625.55
689.861	2629.77
689.913	2600.59
689.964	2631.31
690.016	2634.86
690.067	2617.42
690.119	2624
690.171	2635.69
690.222	2628.39
690.274	2595.9
690.325	2595
690.377	2644.73
690.428	2617.21
690.48	2563.79
690.531	2611.45
690.583	2609.89
690.635	2604.06
690.686	2614.8
690.738	2609.42
690.789	2639.49
690.841	2665.15
690.892	2627.63
690.944	2608.22
690.996	2656.62
691.047	2575.79
691.099	2617.57
691.15	2624.67
691.202	2598.91
691.253	2615.14
691.305	2620.52
691.356	2611.94
691.408	2625.52
691.459	2619.07
691.511	2624.38
691.563	2601.13
691.614	2614.86
691.666	2593.34
691.717	2628.72
691.769	2574.68
691.82	2638.12
691.872	2599.67
691.923	2588.84
691.975	2584.51
692.026	2584.6
692.078	2617.78
692.13	2594.97
692.181	2597.8
692.233	2616.7
692.284	2613.38
692.336	2542.05
692.387	2583.11
692.439	2586.82
692.49	2575.52
692.542	2601.39
692.593	2615.71
692.645	2562.28
692.697	2609.09
692.748	2590.22
692.8	2583.11
692.851	2580.14
692.903	2620.55
692.954	2575.28
693.006	2613.79
693.057	2557.07
693.109	2579.04
693.16	2566.91
693.212	2559.22
693.263	2571.01
693.315	2585.3
693.366	2591.37
693.418	2591.24
693.47	2612.47
693.521	2590.91
693.573	2533.9
693.624	2570.55
693.676	2578.14
693.727	2616.49
693.779	2560.77
693.83	2591.46
693.882	2608.32
693.933	2564.5
693.985	2602.03
694.036	2556.58
694.088	2570.06
694.139	2585.81
694.191	2541.71
694.242	2529.46
694.294	2594.97
694.345	2583.26
694.397	2614.06
694.448	2569.91
694.5	2532.13
694.552	2572.36
694.603	2543.24
694.655	2574.07
694.706	2559.19
694.758	2576.62
694.809	2584.72
694.861	2543.87
694.912	2568.33
694.964	2569.24
695.015	2597.84
695.067	2537.44
695.118	2536.81
695.17	2561.81
695.221	2550.46
695.273	2523.14
695.324	2526.94
695.376	2580.05
695.427	2533.47
695.479	2546.8
695.53	2585.79
695.582	2581.92
695.633	2572.79
695.685	2523.09
695.736	2566.95
695.788	2512.28
695.839	2526.41
695.891	2549.18
695.942	2539.64
695.994	2562.25
696.045	2539.55
696.097	2566.29
696.148	2514.43
696.2	2558.46
696.251	2601.53
696.303	2541.22
696.354	2552.11
696.406	2557.65
696.457	2570.79
696.509	2538.6
696.56	2560.48
696.612	2529.45
696.663	2540.63
696.715	2564.81
696.766	2534.83
696.818	2537.25
696.869	2542.88
696.921	2564.75
696.972	2533.49
697.024	2557.65
697.075	2555.81
697.127	2561.58
697.178	2546.58
697.23	2559.68
697.281	2502.99
697.333	2543.2
697.384	2535.7
697.436	2569.93
697.487	2546.73
697.539	2529.24
697.59	2555.55
697.642	2525.99
697.693	2533.33
697.745	2551.27
697.796	2550.31
697.847	2531.7
697.899	2539.5
697.95	2565.13
698.002	2542.72
698.053	2568.78
698.105	2511.2
698.156	2545.69
698.208	2530.2
698.259	2504.31
698.311	2529.81
698.362	2549.62
698.414	2522.05
698.465	2554.06
698.517	2526.75
698.568	2508.38
698.62	2570.51
698.671	2537.9
698.723	2496.47
698.774	2493.62
698.826	2473.16
698.877	2503.48
698.928	2510.72
698.98	2504.78
699.031	2513.2
699.083	2528.25
699.134	2525.6
699.186	2457.7
699.237	2539.92
699.289	2512.65
699.34	2523.89
699.392	2475.27
699.443	2473.99
699.495	2521.13
699.546	2504.04
699.598	2487.96
699.649	2509.4
699.7	2496.68
699.752	2484.15
699.803	2472.98
699.855	2476.47
699.906	2449.37
699.958	2463.35
700.009	2488.5
700.061	2488.16
700.112	2448.85
700.164	2468.75
700.215	2504.69
700.266	2492.59
700.318	2466.9
700.369	2469.82
700.421	2499.36
700.472	2477.51
700.524	2456.21
700.575	2468.49
700.627	2489.91
700.678	2458.47
700.73	2488.5
700.781	2492.71
700.832	2462.24
700.884	2487.65
700.935	2461.22
700.987	2469.2
701.038	2493.03
701.09	2486.53
701.141	2482.55
701.193	2484.12
701.244	2449.09
701.295	2465.37
701.347	2448.17
701.398	2431.74
701.45	2482.32
701.501	2486.79
701.553	2464.06
701.604	2461.44
701.656	2437.13
701.707	2510.81
701.758	2465.94
701.81	2504.62
701.861	2453.15
701.913	2448.83
701.964	2419.08
702.016	2456.16
702.067	2414.98
702.119	2488.97
702.17	2477.17
702.221	2461.06
702.273	2473.69
702.324	2471.25
702.376	2469.12
702.427	2467.18
702.479	2451.02
702.53	2455.58
702.581	2459.92
702.633	2489.3
702.684	2468.12
702.736	2443.74
702.787	2467.92
702.839	2437.58
702.89	2463.54
702.941	2455.68
702.993	2469.82
703.044	2469.56
703.096	2469.11
703.147	2464.12
703.199	2442.62
703.25	2495.01
703.301	2475.12
703.353	2450.08
703.404	2440.72
703.456	2468.95
703.507	2459.59
703.558	2486.38
703.61	2457.61
703.661	2499.25
703.713	2424.75
703.764	2469.69
703.816	2458.54
703.867	2426.72
703.918	2445.05
703.97	2458.09
704.021	2475.6
704.073	2485.17
704.124	2486.65
704.175	2435.51
704.227	2438.48
704.278	2442.39
704.33	2451.88
704.381	2445.99
704.432	2511.57
704.484	2473.93
704.535	2466.51
704.587	2492.6
704.638	2428.34
704.69	2463.27
704.741	2465.79
704.792	2482.8
704.844	2456.26
704.895	2424.15
704.947	2468.17
704.998	2438.34
705.049	2444.33
705.101	2471.62
705.152	2471.99
705.204	2430.82
705.255	2472.76
705.306	2459.7
705.358	2495.05
705.409	2466.35
705.461	2457.94
705.512	2485.66
705.563	2417.57
705.615	2471.28
705.666	2442.47
705.718	2455.23
705.769	2469.95
705.82	2486.59
705.872	2444.12
705.923	2415.1
705.974	2396.36
706.026	2443.58
706.077	2423.31
706.129	2432.93
706.18	2439.49
706.231	2464.34
706.283	2433.42
706.334	2454.5
706.386	2418.38
706.437	2425.24
706.488	2463.93
706.54	2453.74
706.591	2443.74
706.643	2455.63
706.694	2449.4
706.745	2432.85
706.797	2482.47
706.848	2449.53
706.899	2459.81
706.951	2403.51
707.002	2384.86
707.054	2416.54
707.105	2395.45
707.156	2430.42
707.208	2437.73
707.259	2451.78
707.31	2434.75
707.362	2392.48
707.413	2403.07
707.465	2377.12
707.516	2384.63
707.567	2428.99
707.619	2417.07
707.67	2423.31
707.721	2368.29
707.773	2431.33
707.824	2439.1
707.876	2406.73
707.927	2415.88
707.978	2447.1
708.03	2393.59
708.081	2402.28
708.132	2413.36
708.184	2398.01
708.235	2420.52
708.287	2408.45
708.338	2403.18
708.389	2422.01
708.441	2459.19
708.492	2388.12
708.543	2399.78
708.595	2379.03
708.646	2389.12
708.697	2352.94
708.749	2399.45
708.8	2388.41
708.852	2376.39
708.903	2398.06
708.954	2360.43
709.006	2404.93
709.057	2356.69
709.108	2358.16
709.16	2417.31
709.211	2347.26
709.262	2388.73
709.314	2409.08
709.365	2403.63
709.416	2387.43
709.468	2382.46
709.519	2321.93
709.57	2399.74
709.622	2343.86
709.673	2378.16
709.725	2412.84
709.776	2373.02
709.827	2394.74
709.879	2376.39
709.93	2332.73
709.981	2370.99
710.033	2352.44
710.084	2368.34
710.135	2370.23
710.187	2370.98
710.238	2393.91
710.289	2399.74
710.341	2360.59
710.392	2378.27
710.443	2370.3
710.495	2395.68
710.546	2359.2
710.597	2368.88
710.649	2404.04
710.7	2402.12
710.751	2376
710.803	2350.07
710.854	2362.59
710.905	2357.68
710.957	2374.86
711.008	2359.47
711.059	2320.92
711.111	2392.13
711.162	2352.99
711.213	2356.06
711.265	2376.97
711.316	2338.61
711.367	2416.31
711.419	2340.53
711.47	2386.89
711.521	2388.57
711.573	2389.73
711.624	2364.35
711.675	2339.1
711.727	2387.48
711.778	2365.71
711.829	2375.33
711.881	2389.8
711.932	2369.62
711.983	2354.13
712.035	2359.82
712.086	2375.67
712.137	2355.12
712.189	2403.61
712.24	2397.04
712.291	2389.62
712.343	2373.79
712.394	2340.52
712.445	2374
712.496	2366.25
712.548	2374.67
712.599	2368.27
712.65	2387.28
712.702	2365.28
712.753	2360.6
712.804	2383.19
712.856	2374.73
712.907	2349.02
712.958	2353.26
713.01	2351.91
713.061	2370.63
713.112	2329.12
713.164	2363.93
713.215	2341.09
713.266	2328.51
713.317	2355.42
713.369	2351.75
713.42	2362.04
713.471	2340.73
713.523	2352.37
713.574	2337.96
713.625	2335.98
713.677	2345.7
713.728	2333.99
713.779	2343.55
713.831	2323.97
713.882	2342.74
713.933	2334.26
713.984	2342.08
714.036	2346.45
714.087	2329.42
714.138	2327.41
714.19	2337.96
714.241	2326.72
714.292	2304.73
714.343	2327.87
714.395	2329.75
714.446	2328.01
714.497	2315.58
714.549	2323.82
714.6	2316.77
714.651	2309.27
714.703	2307.66
714.754	2339.36
714.805	2329.16
714.856	2307.11
714.908	2310.48
714.959	2333.5
715.01	2316.2
715.062	2271.82
715.113	2289.42
715.164	2285.52
715.215	2300.14
715.267	2287.56
715.318	2281.43
715.369	2281.26
715.421	2283.35
715.472	2282.09
715.523	2297.31
715.574	2308.41
715.626	2291.07
715.677	2271.18
715.728	2264.87
715.779	2278.08
715.831	2281.15
715.882	2255.69
715.933	2260.33
715.985	2293.85
716.036	2292.55
716.087	2301.77
716.138	2270.23
716.19	2235.51
716.241	2249.89
716.292	2236.16
716.343	2259.25
716.395	2291.03
716.433	2268.8
716.485	2270.8
716.536	2253.58
716.588	2246.48
716.639	2264.1
716.691	2234.25
716.742	2253.33
716.794	2269.9
716.845	2269.19
716.897	2252.41
716.948	2236.74
717	2223.53
717.052	2297.34
717.103	2228.11
717.155	2231.24
717.206	2218.49
717.258	2204.42
717.309	2247.77
717.361	2238.23
717.412	2228.59
717.464	2225.12
717.515	2214.48
717.567	2184.51
717.618	2186.7
717.67	2236.95
717.721	2238.14
717.773	2241.64
717.824	2235.06
717.876	2222.05
717.927	2245.71
717.979	2228.68
718.03	2251.04
718.082	2223.14
718.133	2222.61
718.185	2213.88
718.237	2225.24
718.288	2201.17
718.34	2206.8
718.391	2233.36
718.443	2238.65
718.494	2217.53
718.546	2203.29
718.597	2223.24
718.649	2205.79
718.7	2211.8
718.752	2199.43
718.803	2196.04
718.855	2248.72
718.906	2173.02
718.958	2199.09
719.009	2222.85
719.061	2231.78
719.112	2231.99
719.164	2189.83
719.215	2173.55
719.267	2212.98
719.318	2190.03
719.37	2184.29
719.421	2182.17
719.473	2186.3
719.524	2190.58
719.576	2185.18
719.627	2202.5
719.679	2192.71
719.73	2231.77
719.782	2207.34
719.833	2184.13
719.885	2209.56
719.936	2179.83
719.988	2207.47
720.039	2196.08
720.091	2181.95
720.142	2196.47
720.194	2163.22
720.245	2170.09
720.297	2150.72
720.348	2149.11
720.4	2142.7
720.451	2172.93
720.503	2169.36
720.554	2204.79
720.606	2203.63
720.657	2188.45
720.709	2159.22
720.76	2179.02
720.812	2126.89
720.863	2166.82
720.915	2165.09
720.966	2172.12
721.018	2160.08
721.069	2131.47
721.121	2172.26
721.172	2156.22
721.224	2158.05
721.275	2146.28
721.327	2160.15
721.378	2152.79
721.43	2139.2
721.481	2145.79
721.532	2181.33
721.584	2109.94
721.635	2128.41
721.687	2134.08
721.738	2115.71
721.79	2167.5
721.841	2123.03
721.893	2151.38
721.944	2129.04
721.996	2151.34
722.047	2109.74
722.099	2146.98
722.15	2154.51
722.202	2145.07
722.253	2139.15
722.305	2124.09
722.356	2126.91
722.408	2106.81
722.459	2086.9
722.511	2135
722.562	2142.29
722.614	2116.3
722.665	2109.4
722.716	2138.21
722.768	2072
722.819	2101.9
722.871	2133.19
722.922	2069.77
722.974	2088.72
723.025	2095.06
723.077	2082.19
723.128	2084.63
723.18	2072.65
723.231	2106.68
723.283	2097.97
723.334	2076.22
723.386	2041.54
723.437	2041.67
723.488	2097.24
723.54	2092.29
723.591	2115.49
723.643	2065.07
723.694	2084.02
723.746	2118.38
723.797	2070.53
723.849	2068.06
723.9	2037.67
723.952	2037.27
724.003	2070.64
724.055	2070.64
724.106	2092.52
724.157	2039.46
724.209	2079.22
724.26	2047.92
724.312	2060.55
724.363	2069.32
724.415	2067.72
724.466	2062.12
724.518	2060.21
724.569	2030.88
724.621	2062.25
724.672	2041.74
724.723	2040.69
724.775	2044.94
724.826	2057.11
724.878	2038.29
724.929	2035.12
724.981	2059.26
725.032	2039.36
725.084	2044.19
725.135	2032.23
725.187	2041.14
725.238	2033.2
725.289	2069.5
725.341	2049.76
725.392	2040.33
725.444	1996.89
725.495	2025.03
725.547	2006.17
725.598	2045.94
725.65	2007.34
725.701	2065.23
725.752	2052.54
725.804	2045
725.855	2049.23
725.907	2011.77
725.958	2016.29
726.01	2027.59
726.061	2027.35
726.112	2062.62
726.164	2037.79
726.215	2005.08
726.267	2027.34
726.318	2023.28
726.37	2015.16
726.421	2041.04
726.473	2011.65
726.524	2042.64
726.575	2063.15
726.627	2028.56
726.678	1987.6
726.73	1996.93
726.781	2022.39
726.833	2026.96
726.884	2006.5
726.935	1992.5
726.987	2029.9
727.038	1971.82
727.09	2012.98
727.141	1998.58
727.193	2006.91
727.244	2040.74
727.295	2038.91
727.347	2011.82
727.398	2009.85
727.45	1974.26
727.501	2023.7
727.552	1952.63
727.604	1972.06
727.655	2007.32
727.707	1983.64
727.758	1993.34
727.81	1991.1
727.861	1990.42
727.912	1953.98
727.964	1974.21
728.015	1989.59
728.067	1997.33
728.118	1975.7
728.17	2001.02
728.221	1954.7
728.272	1953.7
728.324	1975.21
728.375	1943.79
728.427	2014.85
728.478	1963.11
728.529	1964.22
728.581	1942.55
728.632	1980.59
728.684	1982.25
728.735	1996.21
728.786	1972.3
728.838	1982.45
728.889	1987.3
728.941	1975.87
728.992	1983.42
729.044	1979.8
729.095	1942.98
729.146	1949.34
729.198	1930.65
729.249	1921.23
729.301	1944.55
729.352	1966.7
729.403	1944.15
729.455	1930.29
729.506	1934.69
729.558	1924.35
729.609	1947.03
729.66	1920.19
729.712	1936.95
729.763	1902.38
729.815	1907.24
729.866	1933.81
729.917	1909.34
729.969	1948.32
730.02	1907.75
730.072	1910.26
730.123	1931.1
730.174	1927.39
730.226	1894.74
730.277	1928.32
730.329	1932.6
730.38	1924.06
730.431	1879.13
730.483	1878.27
730.534	1860.65
730.586	1901.32
730.637	1931.12
730.688	1923.75
730.74	1904.16
730.791	1941.71
730.842	1915.35
730.894	1879.05
730.945	1925.97
730.997	1908.49
731.048	1912.99
731.099	1878.32
731.151	1918.9
731.202	1896.93
731.254	1890.52
731.305	1882.94
731.356	1913.21
731.408	1908.69
731.459	1927.93
731.51	1868.88
731.562	1914.62
731.613	1851.22
731.665	1874.48
731.716	1864.05
731.767	1864.67
731.819	1893.14
731.87	1882.18
731.922	1889.29
731.973	1879.48
732.024	1882.27
732.076	1869.71
732.127	1876.9
732.178	1880.07
732.23	1875.02
732.281	1851.92
732.333	1865.44
732.384	1872.03
732.435	1875.83
732.487	1878.16
732.538	1884.6
732.589	1896.51
732.641	1851.99
732.692	1888.96
732.744	1838.61
732.795	1853.04
732.846	1854.87
732.898	1863.85
732.949	1870.13
733	1855.34
733.052	1858.86
733.103	1831.28
733.154	1850.12
733.206	1863.19
733.257	1853.55
733.309	1841
733.36	1838.3
733.411	1790.41
733.463	1872.43
733.514	1878.22
733.565	1861.41
733.617	1837.52
733.668	1848.94
733.719	1880.13
733.771	1798.34
733.822	1825.38
733.873	1848.26
733.925	1840.15
733.976	1836.39
734.028	1829.9
734.079	1871.53
734.13	1814.07
734.182	1866.83
734.233	1833.1
734.284	1817.61
734.336	1814.76
734.387	1851.57
734.438	1853.09
734.49	1823.66
734.541	1834.05
734.592	1813.44
734.644	1784.39
734.695	1824.79
734.747	1822.61
734.798	1828.88
734.849	1837.92
734.901	1814.29
734.952	1780.67
735.003	1846.42
735.055	1834.02
735.106	1817.28
735.157	1821.77
735.209	1799.16
735.26	1804.87
735.311	1797.68
735.363	1787.56
735.414	1795.83
735.465	1835.31
735.517	1805.19
735.568	1850.41
735.619	1810.54
735.671	1804.9
735.722	1822.15
735.773	1805.48
735.825	1810.23
735.876	1785.21
735.927	1809.95
735.979	1787.69
736.03	1816.45
736.081	1799.42
736.133	1803.43
736.184	1757.38
736.235	1796.45
736.287	1798.47
736.338	1810.48
736.389	1804.19
736.441	1778.24
736.492	1817.77
736.543	1772.33
736.595	1732.7
736.646	1762.74
736.697	1774.46
736.749	1766.4
736.8	1781.13
736.851	1758.92
736.903	1772.15
736.954	1789.51
737.005	1761.23
737.057	1758.43
737.108	1793.98
737.159	1761.32
737.211	1750.05
737.262	1764.43
737.313	1764.6
737.365	1756.18
737.416	1777.48
737.467	1782.93
737.518	1758.32
737.57	1784.7
737.621	1769.79
737.672	1759.18
737.724	1777.12
737.775	1762.63
737.826	1755.49
737.878	1748.56
737.929	1771.56
737.98	1739.19
738.032	1730.83
738.083	1739.33
738.134	1753.32
738.186	1762.91
738.237	1732.7
738.288	1739.42
738.339	1751.89
738.391	1768.72
738.442	1748.76
738.493	1741.63
738.545	1751.53
738.596	1714.59
738.647	1768.35
738.699	1710
738.75	1738.07
738.801	1706.56
738.853	1723.23
738.904	1717.27
738.955	1705.72
739.006	1718.35
739.058	1714.05
739.109	1732.47
739.16	1709.83
739.212	1715.5
739.263	1736.71
739.314	1692.72
739.366	1716.7
739.417	1717.98
739.468	1734.83
739.519	1711.99
739.571	1733.03
739.622	1732.84
739.673	1711.49
739.725	1707.25
739.776	1725.85
739.827	1676.67
739.878	1731.03
739.93	1683.48
739.981	1675.55
740.032	1702.94
740.084	1654.99
740.135	1666.38
740.186	1694.59
740.237	1685.77
740.289	1700.95
740.34	1708.97
740.391	1704.23
740.443	1676.87
740.494	1696.36
740.545	1693.38
740.596	1690.66
740.648	1682.55
740.699	1673.28
740.75	1676.92
740.802	1674.93
740.853	1694.11
740.904	1622.26
740.956	1663.7
741.007	1689.32
741.058	1675.05
741.109	1666.42
741.161	1666.36
741.212	1703.31
741.263	1704.89
741.314	1699.49
741.366	1670.01
741.417	1677.49
741.468	1660.82
741.52	1671.15
741.571	1635.99
741.622	1679.02
741.673	1682.25
741.725	1672.71
741.776	1687.34
741.827	1670.65
741.878	1611.18
741.93	1645.54
741.981	1651.33
742.032	1629.98
742.083	1676.94
742.135	1627.16
742.186	1671.47
742.237	1656.15
742.289	1656.64
742.34	1671.47
742.391	1654.95
742.442	1671.11
742.494	1670.01
742.545	1650.2
742.596	1665.92
742.647	1685.87
742.699	1634.55
742.75	1627.53
742.801	1627.77
742.852	1640.94
742.904	1639.91
742.955	1617.47
743.006	1620.69
743.057	1666.75
743.109	1632.82
743.16	1577.48
743.211	1623.64
743.263	1662.72
743.314	1621.78
743.365	1620.87
743.416	1639.98
743.468	1629
743.519	1638.03
743.57	1647.04
743.621	1608.74
743.672	1611.92
743.724	1642.28
743.775	1618.12
743.826	1626.89
743.878	1621.35
743.929	1625.92
743.98	1630.6
744.031	1619.59
744.083	1611.47
744.134	1629.1
744.185	1620.72
744.236	1606.37
744.287	1599
744.339	1601.58
744.39	1584.11
744.441	1598.39
744.492	1610.06
744.544	1609.13
744.595	1592.65
744.646	1613.61
744.697	1612.94
744.749	1636.52
744.8	1579.31
744.851	1602.38
744.902	1553.34
744.954	1580.41
745.005	1594.49
745.056	1614.36
745.107	1609.91
745.159	1612.82
745.21	1584.31
745.261	1583.32
745.312	1555.16
745.363	1577.43
745.415	1562.25
745.466	1549.8
745.517	1564.52
745.568	1610.71
745.62	1589.01
745.671	1558.6
745.722	1571.45
745.773	1590.17
745.824	1537
745.876	1543
745.927	1569.21
745.978	1530.53
746.029	1562.35
746.081	1578.2
746.132	1547.82
746.183	1551.95
746.234	1551.73
746.285	1557.3
746.337	1522.58
746.388	1536.93
746.439	1551.39
746.49	1548.67
746.542	1559.02
746.593	1539.18
746.644	1533.79
746.695	1551.44
746.746	1545.94
746.798	1569.13
746.849	1564.75
746.9	1519.82
746.951	1572.82
747.003	1539.27
747.054	1549.03
747.105	1533.02
747.156	1544.64
747.207	1536.34
747.259	1495.06
747.31	1530.22
747.361	1549.4
747.412	1522.11
747.463	1498.76
747.515	1522.66
747.566	1529.01
747.617	1526.69
747.668	1521.65
747.719	1537.06
747.771	1508.19
747.822	1495.42
747.873	1524.51
747.924	1475.86
747.975	1514.92
748.027	1526.47
748.078	1523.5
748.129	1534.88
748.18	1516.04
748.231	1490.07
748.283	1501.6
748.334	1497.32
748.385	1536.23
748.436	1518.96
748.487	1516.06
748.539	1500.18
748.59	1511.71
748.641	1493.12
748.692	1522.23
748.743	1521.31
748.795	1493.22
748.846	1465.26
748.897	1508.06
748.948	1504.69
748.999	1488.2
749.05	1459.92
749.102	1496.46
749.153	1492.26
749.204	1493.62
749.255	1458.68
749.306	1506.05
749.358	1475.37
749.409	1489.57
749.46	1498.14
749.511	1480.87
749.562	1452.19
749.614	1494.42
749.665	1490.45
749.716	1503.77
749.767	1488.08
749.818	1475.18
749.869	1522.94
749.921	1481.03
749.972	1465.19
750.023	1492.82
750.074	1458.33
750.125	1484.67
750.177	1486.48
750.228	1465.18
750.279	1435.23
750.33	1456.02
750.381	1469.59
750.432	1480.25
750.484	1463.29
750.535	1457.8
750.586	1479.76
750.637	1476.95
750.688	1449.46
750.739	1419.11
750.791	1461.43
750.842	1434.23
750.893	1427.47
750.944	1452.77
750.995	1459.23
751.046	1445.31
751.098	1476.42
751.149	1436.16
751.2	1443.83
751.251	1442.71
751.302	1432.84
751.353	1449.21
751.404	1446.71
751.456	1447.19
751.507	1406.89
751.558	1458.48
751.609	1428.42
751.66	1431.93
751.711	1441.34
751.763	1461.09
751.814	1437.13
751.865	1442.52
751.916	1437.76
751.967	1425.68
752.018	1466.31
752.07	1446.72
752.121	1415.25
752.172	1429.19
752.223	1412.27
752.274	1415.94
752.325	1453.51
752.376	1405.78
752.428	1446.34
752.479	1445.59
752.53	1393.11
752.581	1418.59
752.632	1430.69
752.683	1422.07
752.734	1391.31
752.786	1385.67
752.837	1427.32
752.888	1395.21
752.939	1419.22
752.99	1376.78
753.041	1420.01
753.092	1396.77
753.144	1388.32
753.195	1409.48
753.246	1424.75
753.297	1432.61
753.348	1415.24
753.399	1399.26
753.45	1396.49
753.502	1427.69
753.553	1402.54
753.604	1423.26
753.655	1374.36
753.706	1396.57
753.757	1399.62
753.808	1383.53
753.859	1407.6
753.911	1403.7
753.962	1368.82
754.013	1369.64
754.064	1358.62
754.115	1383.22
754.166	1364.65
754.217	1380.16
754.269	1395.58
754.32	1406.47
754.371	1371.17
754.422	1364.13
754.473	1376.44
754.524	1355.94
754.575	1384.57
754.626	1325.23
754.678	1380.65
754.729	1361.54
754.78	1348.45
754.831	1350.34
754.882	1337.41
754.933	1379.8
754.984	1372.99
755.035	1372.17
755.086	1362.36
755.138	1383.88
755.189	1360.41
755.24	1363.76
755.291	1374.51
755.342	1335.76
755.393	1334.42
755.444	1343.56
755.495	1330.3
755.547	1341.09
755.598	1325.03
755.649	1360.05
755.7	1306.7
755.751	1319.39
755.802	1347.11
755.853	1362.79
755.904	1358.84
755.955	1324.69
756.006	1324.99
756.058	1337.2
756.109	1331.27
756.16	1340.31
756.211	1331.25
756.262	1305.61
756.313	1331.13
756.364	1311.59
756.415	1349.34
756.466	1324.05
756.518	1360.6
756.569	1318.99
756.62	1319.56
756.671	1311.04
756.722	1325.04
756.773	1325.37
756.824	1343.71
756.875	1307.71
756.926	1342.61
756.977	1365.49
757.029	1329.58
757.08	1360.11
757.131	1339.35
757.182	1288.37
757.233	1302.35
757.284	1337.51
757.335	1321.31
757.386	1318.71
757.437	1332.74
757.488	1314.98
757.539	1345.6
757.59	1318.68
757.642	1334.14
757.693	1286.01
757.744	1321.25
757.795	1305.04
757.846	1325.27
757.897	1316.73
757.948	1309.68
757.999	1299.54
758.05	1318.14
758.101	1256.16
758.152	1298.91
758.203	1305.18
758.255	1300.84
758.306	1293.51
758.357	1318.19
758.408	1276.02
758.459	1279.48
758.51	1292.14
758.561	1280.39
758.612	1280.3
758.663	1265.36
758.714	1288.99
758.765	1283.99
758.816	1273.38
758.867	1265.95
758.919	1304.18
758.97	1297.9
759.021	1297.3
759.072	1245.09
759.123	1269.99
759.174	1278.69
759.225	1298.28
759.276	1268.03
759.327	1293
759.378	1295.7
759.429	1320.81
759.48	1266.99
759.531	1282.78
759.582	1256.12
759.633	1278.14
759.685	1261.23
759.736	1274.9
759.787	1252.7
759.838	1264.02
759.889	1283.43
759.94	1281.39
759.991	1272.09
760.042	1258.15
760.093	1269.4
760.144	1289.13
760.195	1270.04
760.246	1281.03
760.297	1246.12
760.348	1253.32
760.399	1262.68
760.45	1259.96
760.501	1239.52
760.552	1247.55
760.603	1246.68
760.655	1256.54
760.706	1280.67
760.757	1241.61
760.808	1231.07
760.859	1247.53
760.91	1227.71
760.961	1251.97
761.012	1214.89
761.063	1244.92
761.114	1246.77
761.165	1226.86
761.216	1235.68
761.267	1244.41
761.318	1253.33
761.369	1222.29
761.42	1215.98
761.471	1233.24
761.522	1242.92
761.573	1234.79
761.624	1227.44
761.675	1231.47
761.726	1254.54
761.777	1223.54
761.828	1230.53
761.88	1225.71
761.931	1200.51
761.982	1227.29
762.033	1199.9
762.084	1210.45
762.135	1191.96
762.186	1211.71
762.237	1216.39
762.288	1200
762.339	1213.04
762.39	1226.53
762.441	1217.1
762.492	1203.32
762.543	1203.62
762.594	1216.3
762.645	1199.54
762.696	1223.49
762.747	1209.75
762.798	1203.69
762.849	1190.37
762.9	1197.12
762.951	1198.27
763.002	1191.49
763.053	1192.75
763.104	1188.61
763.155	1172.23
763.206	1203.52
763.257	1178.23
763.308	1192.27
763.359	1191.97
763.41	1200.07
763.461	1179.81
763.512	1196.25
763.563	1183.54
763.614	1189.38
763.665	1198.12
763.678	1199.58
763.729	1183.47
763.78	1221.05
763.832	1170.92
763.883	1184.14
763.934	1184.98
763.986	1176.23
764.037	1170.25
764.088	1171.71
764.139	1199.67
764.191	1200.81
764.242	1139.22
764.293	1174.2
764.345	1195.43
764.396	1158.47
764.447	1186.09
764.498	1183.37
764.55	1184.97
764.601	1178.4
764.652	1154.46
764.704	1165.51
764.755	1131.13
764.806	1141.29
764.857	1115.21
764.909	1144.36
764.96	1155.79
765.011	1173.16
765.062	1169.63
765.114	1169.2
765.165	1167.36
765.216	1146.9
765.268	1174.31
765.319	1138.72
765.37	1152.34
765.421	1140.52
765.473	1139.56
765.524	1133.55
765.575	1149.53
765.626	1165.44
765.678	1154.41
765.729	1126.05
765.78	1115.31
765.831	1147.59
765.883	1156.08
765.934	1159.73
765.985	1136.2
766.036	1126.84
766.088	1122.14
766.139	1144.46
766.19	1120.69
766.242	1124.12
766.293	1165.94
766.344	1142.6
766.395	1133.64
766.447	1131.01
766.498	1117.09
766.549	1138.12
766.6	1133.5
766.652	1144.82
766.703	1122.68
766.754	1140.63
766.805	1120.43
766.857	1108.33
766.908	1136.26
766.959	1130.54
767.01	1145.48
767.062	1125
767.113	1113.97
767.164	1118.87
767.215	1107.71
767.267	1093.38
767.318	1130.44
767.369	1082.61
767.42	1135.95
767.472	1110.8
767.523	1119.46
767.574	1142.68
767.625	1103.26
767.677	1084.71
767.728	1109.55
767.779	1118.19
767.83	1094.47
767.882	1096.41
767.933	1083.75
767.984	1111.38
768.035	1106.79
768.087	1102.3
768.138	1089.85
768.189	1101.73
768.24	1081.37
768.292	1078.8
768.343	1085.89
768.394	1120.41
768.445	1069.01
768.497	1106.61
768.548	1069.63
768.599	1081.3
768.65	1083.34
768.701	1061.15
768.753	1079.63
768.804	1080.34
768.855	1095.71
768.906	1093.18
768.958	1092.2
769.009	1047.17
769.06	1055.78
769.111	1057.83
769.163	1079.42
769.214	1094.52
769.265	1093.33
769.316	1044.81
769.367	1086.06
769.419	1070.12
769.47	1062.3
769.521	1077.31
769.572	1097.2
769.624	1068.04
769.675	1063.42
769.726	1071.92
769.777	1088.64
769.828	1067.73
769.88	1064.84
769.931	1065.25
769.982	1077.19
770.033	1061.33
770.085	1065.25
770.136	1042.97
770.187	1035.48
770.238	1074.01
770.289	1072.99
770.341	1032.32
770.392	1060.67
770.443	1046.12
770.494	1046.38
770.546	1026.91
770.597	1055.32
770.648	1036
770.699	1053.04
770.75	1020.6
770.802	1072.41
770.853	1048.22
770.904	1043.84
770.955	1064.27
771.006	1046.58
771.058	1047.05
771.109	1009.33
771.16	1054.43
771.211	1044.81
771.263	1040.17
771.314	1060.45
771.365	1026.01
771.416	1014.82
771.467	1010.29
771.519	1062.27
771.57	1014.48
771.621	1031.52
771.672	1020.25
771.723	1018.96
771.775	1027.68
771.826	1028.1
771.877	998.572
771.928	1014.1
771.979	1024.7
772.031	1020.33
772.082	1007.65
772.133	1013.37
772.184	1034.2
772.235	1019.94
772.287	1012.39
772.338	1014.91
772.389	1000.61
772.44	1029.88
772.491	1035.51
772.543	1003.98
772.594	1014.34
772.645	1012.82
772.696	1029.8
772.747	1013.18
772.799	995.003
772.85	997.157
772.901	1021.34
772.952	1008.51
773.003	1004.11
773.055	982.765
773.106	1025.52
773.157	997.239
773.208	1007.75
773.259	1006.39
773.31	1003.3
773.362	1028.95
773.413	1003.81
773.464	985.411
773.515	992.397
773.566	972.305
773.618	986.149
773.669	974.675
773.72	990.438
773.771	989.345
773.822	983.201
773.873	980.423
773.925	1006.47
773.976	1008.62
774.027	985.182
774.078	965.102
774.129	1014.84
774.18	972.686
774.232	981.654
774.283	999.154
774.334	991.046
774.385	970.939
774.436	955.917
774.488	961.4
774.539	994.294
774.59	928.174
774.641	906.524
774.692	992.709
774.743	969.375
774.795	993.932
774.846	968.704
774.897	967.388
774.948	979.748
774.999	961.214
775.05	971.897
775.102	941.436
775.153	976.355
775.204	978.73
775.255	979.449
775.306	997.408
775.357	987.767
775.409	962.501
775.46	931.925
775.511	951.301
775.562	967.18
775.613	957.141
775.664	943.656
775.716	937.107
775.767	963.438
775.818	988.066
775.869	979.814
775.92	1002.72
775.971	959.806
776.023	979.275
776.074	919.039
776.125	942.04
776.176	945.965
776.227	948.128
776.278	957.207
776.329	941.938
776.381	931.875
776.432	913.136
776.483	937.927
776.534	926.22
776.585	924.963
776.636	944.587
776.688	906.622
776.739	940.046
776.79	910.601
776.841	924.707
776.892	928.335
776.943	932.001
776.994	902.569
777.046	946.55
777.097	917.26
777.148	940.428
777.199	933.898
777.25	946.588
777.301	915.491
777.352	933.371
777.404	919.723
777.455	932.376
777.506	920.545
777.557	935.08
777.608	902.293
777.659	929.213
777.71	903.42
777.762	877.533
777.813	916.624
777.864	931.002
777.915	896.018
777.966	922.614
778.017	924.6
778.068	953.1
778.12	895.374
778.171	897.647
778.222	942.328
778.273	902.3
778.324	897.494
778.375	913.794
778.426	878.73
778.477	905.477
778.529	909.216
778.58	911.21
778.631	913.26
778.682	902.988
778.733	859.119
778.784	873.749
778.835	895.531
778.886	904.946
778.938	891.297
778.989	897.155
779.04	901.195
779.091	887.387
779.142	901.957
779.193	898.675
779.244	884.673
779.295	902.71
779.347	917.225
779.398	887.254
779.449	903.644
779.5	896.895
779.551	897.281
779.602	903.008
779.653	889.081
779.704	850.124
779.755	879.024
779.807	900.804
779.858	860.044
779.909	878.322
779.96	866.251
780.011	879.315
780.062	858.431
780.113	887.804
780.164	881.363
780.216	876.688
780.267	898.898
780.318	874.241
780.369	905.21
780.42	874.877
780.471	875.073
780.522	886.073
780.573	862.907
780.624	872.252
780.675	881.697
780.727	869.578
780.778	871.926
780.829	854.413
780.88	880.239
780.931	860.85
780.982	859.499
781.033	878.038
781.084	874.849
781.135	848.104
781.187	881.178
781.238	850.812
781.289	876.689
781.34	868.065
781.391	835.763
781.442	848.81
781.493	856.353
781.544	876.582
781.595	853.135
781.646	851.497
781.698	857.135
781.749	875.523
781.8	841.137
781.851	835.906
781.902	850.77
781.953	865.73
782.004	862.564
782.055	863.124
782.106	869.198
782.157	814.959
782.208	853.82
782.26	852.368
782.311	836.167
782.362	863.805
782.413	862.144
782.464	855.013
782.515	842.438
782.566	859.22
782.617	804.571
782.668	848.894
782.719	836.385
782.77	787.16
782.821	824.172
782.872	850.216
782.924	819.358
782.975	839.954
783.026	836.669
783.077	814.97
783.128	820.837
783.179	817.489
783.23	817.833
783.281	825.586
783.332	792.844
783.383	830.237
783.434	840.039
783.485	820.321
783.536	819.056
783.588	827.003
783.639	788.618
783.69	814.947
783.741	813.43
783.792	795.159
783.843	791.651
783.894	786.25
783.945	806.807
783.996	792.155
784.047	797.979
784.098	802.048
784.149	800.656
784.2	814.226
784.252	822.291
784.303	819.209
784.354	808.645
784.405	814.803
784.456	783.61
784.507	793.422
784.558	771.471
784.609	807.414
784.66	828.394
784.711	817.518
784.762	812.154
784.813	806.695
784.864	821.759
784.915	801.237
784.966	820.06
785.017	814.614
785.068	764.288
785.12	802.07
785.171	798.682
785.222	823.443
785.273	784.422
785.324	812.947
785.375	764.478
785.426	785.486
785.477	780.182
785.528	810.588
785.579	801.488
785.63	747.193
785.681	781.342
785.732	823.058
785.783	802.653
785.834	791.692
785.885	778.882
785.936	792.531
785.987	777.937
786.038	786.057
786.089	786.67
786.141	789.186
786.192	784.088
786.243	771.304
786.294	771.639
786.345	773.72
786.396	743.432
786.447	788.933
786.498	749.092
786.549	760.519
786.6	747.391
786.651	804.576
786.702	757.497
786.753	763.626
786.804	794.508
786.855	768.372
786.906	793.556
786.957	790.154
787.008	782.871
787.059	771.708
787.11	749.056
787.161	768.32
787.212	760.917
787.263	768.826
787.314	759.636
787.365	782.976
787.416	806.4
787.467	741.92
787.518	753.88
787.57	771.552
787.621	729.795
787.672	758.829
787.723	768.648
787.774	736.245
787.825	769.012
787.876	765.356
787.927	736.782
787.978	740.855
788.029	764.165
788.08	764.467
788.131	768.621
788.182	751.629
788.233	769.222
788.284	727.172
788.335	729.337
788.386	777.695
788.437	749.066
788.488	755.112
788.539	768.902
788.59	728.757
788.641	742.603
788.692	746.816
788.743	716.258
788.794	751.304
788.845	734.169
788.896	745.987
788.947	730.753
788.998	748.422
789.049	766.168
789.1	739.48
789.151	741.874
789.202	744.302
789.253	717.636
789.304	718.07
789.355	741.741
789.406	726.498
789.457	738.356
789.508	752.078
789.559	726.878
789.61	742.481
789.661	717.316
789.712	731.134
789.763	708.142
789.814	728.087
789.865	726.728
789.916	719.54
789.967	704.482
790.018	740.068
790.069	718.92
790.12	719.182
790.171	742.904
790.222	735.422
790.273	710.421
790.324	710.928
790.375	711.449
790.426	717.787
790.477	708.302
790.528	702.588
790.579	708.539
790.63	716.42
790.681	696.872
790.732	716.699
790.783	717.035
790.834	705.697
790.885	706.219
790.936	704.79
790.987	709.242
791.038	703.781
791.089	710.072
791.14	706.42
791.191	688.868
791.242	696.908
791.293	714.783
791.344	703.037
791.395	685.402
791.446	721.185
791.497	697.796
791.548	710.079
791.599	688.787
791.65	707.068
791.701	665.837
791.752	711.696
791.803	701.995
791.854	686.334
791.905	686.587
791.956	684.946
792.007	725.127
792.058	666.049
792.109	688.507
792.16	665.196
792.211	669.705
792.262	690.101
792.313	718.415
792.363	678.787
792.414	673.008
792.465	701.132
792.516	707.263
792.567	697.416
792.618	687.602
792.669	691.844
792.72	660.156
792.771	674.536
792.822	660.929
792.873	679.373
792.924	671.748
792.975	646.03
793.026	686.517
793.077	678.865
793.128	669.246
793.179	683.814
793.23	674.306
793.281	688.983
793.332	679.477
793.383	677.985
793.434	674.41
793.485	684.911
793.536	658.98
793.587	663.309
793.638	663.555
793.689	643.533
793.74	668.019
793.79	666.206
793.841	672.531
793.892	640.406
793.943	665.068
793.994	671.519
794.045	669.842
794.096	682.337
794.147	672.443
794.198	652.346
794.249	664.76
794.3	671.111
794.351	675.474
794.402	661.546
794.453	643.524
794.504	653.969
794.555	674.561
794.606	648.247
794.657	662.713
794.708	654.814
794.758	651.085
794.809	663.779
794.86	660.184
794.911	652.466
794.962	667.157
795.013	638.74
795.064	667.531
795.115	632.796
795.166	653.391
795.217	680.269
795.268	627.391
795.319	658.727
795.37	624.487
795.421	621.025
795.472	648.341
795.523	661.128
795.573	671.699
795.624	645.051
795.675	657.505
795.726	641.126
795.777	631
795.828	647.769
795.879	650.159
795.93	654.618
795.981	628.042
796.032	628.234
796.083	634.556
796.134	657.385
796.185	624.419
796.236	655.624
796.286	626.952
796.337	635.618
796.388	636.083
796.439	636.579
796.49	639.138
796.541	629.198
796.592	604.642
796.643	646.527
796.694	626.009
796.745	628.324
796.796	630.613
796.847	630.804
796.897	649.729
796.948	622.84
796.999	606.37
797.05	621.178
797.101	640.194
797.152	607.096
797.203	603.21
797.254	628.576
797.305	643.537
797.356	612.535
797.407	635.885
797.458	629.95
797.508	609.322
797.559	609.58
797.61	622.363
797.661	597.385
797.712	626.892
797.763	624.976
797.814	641.998
797.865	606.645
797.916	619.654
797.967	605.438
798.018	616.499
798.068	589.681
798.119	604.938
798.17	613.82
798.221	618.399
798.272	624.999
798.323	618.858
798.374	642.258
798.425	612.852
798.476	600.399
798.526	611.29
798.577	637.111
798.628	616.454
798.679	606.405
798.73	583.591
798.781	598.901
798.832	597.125
798.883	624.996
798.934	599.634
798.984	597.62
799.035	604.138
799.086	576.683
799.137	613.157
799.188	611.394
799.239	594.732
799.29	616.417
799.341	597.516
799.392	612.682
799.443	600.04
799.493	598.049
799.544	589.662
799.595	611.231
799.646	587.963
799.697	592.51
799.748	605.616
799.799	603.705
799.85	614.569
799.9	584.664
799.951	584.676
800.002	593.227
800.053	582.527
800.104	601.879
800.155	589.197
800.206	565.879
800.257	583.347
800.307	600.857
800.358	594.756
800.409	588.619
800.46	603.946
800.511	576.284
800.562	576.584
800.613	600.592
800.664	566.482
800.714	586.193
800.765	577.845
800.816	562.961
800.867	586.858
800.918	558.957
800.969	580.713
801.02	591.731
801.07	572.56
801.121	577.184
801.172	590.472
801.223	599.435
801.274	547.766
801.325	591.346
801.376	574.295
801.427	589.769
801.477	579.244
801.528	579.562
801.579	568.999
801.63	580.105
801.681	582.469
801.732	558.696
801.783	574.029
801.833	552.403
801.884	565.607
801.935	565.803
801.986	550.793
802.037	561.912
802.088	551.225
802.139	581.897
802.189	544.971
802.24	584.34
802.291	569.232
802.342	558.511
802.393	543.438
802.444	572.015
802.495	572.196
802.545	539.58
802.596	544.081
802.647	552.973
802.698	557.54
802.749	555.605
802.8	564.661
802.85	560.616
802.901	556.57
802.952	534.964
803.003	563.77
803.054	572.838
803.105	575.321
803.155	527.267
803.206	573.662
803.257	567.291
803.308	554.273
803.359	517.006
803.41	550.118
803.46	537.033
803.511	557.002
803.562	537.4
803.613	531.059
803.664	560.03
803.715	558.166
803.765	545.254
803.816	525.679
803.867	561.305
803.918	552.727
803.969	539.708
804.02	581.993
804.07	553.466
804.121	547.05
804.172	551.687
804.223	565.173
804.274	545.397
804.325	538.914
804.375	547.964
804.426	523.747
804.477	521.723
804.528	544.124
804.579	533.197
804.63	546.675
804.68	513.445
804.731	544.646
804.782	538.055
804.833	535.928
804.884	542.739
804.934	513.997
804.985	532.011
805.036	534.459
805.087	519.063
805.138	523.672
805.188	521.549
805.239	523.85
805.29	537.293
805.341	515.083
805.392	510.744
805.443	515.363
805.493	537.755
805.544	518.029
805.595	511.569
805.646	546.274
805.697	537.461
805.747	524.238
805.798	517.02
805.849	509.655
805.9	511.673
805.951	520.48
806.001	518.542
806.052	509.743
806.103	503.332
806.154	514.354
806.205	522.302
806.255	535.577
806.306	540.828
806.357	520.768
806.408	517.978
806.459	502.602
806.509	503.76
806.56	522.806
806.611	513.392
806.662	496.869
806.713	508.241
806.763	512.011
806.814	514.043
806.865	505.409
806.916	509.53
806.967	513.021
807.017	490.64
807.068	520.655
807.119	510.814
807.17	517.114
807.22	496.017
807.271	490.138
807.322	502.374
807.373	506.367
807.424	492.061
807.474	512.029
807.525	495.467
807.576	493.532
807.627	496.967
807.678	503.67
807.728	511.427
807.779	506.224
807.83	489.594
807.881	497.002
807.931	522.692
807.982	497.689
808.033	478.827
808.084	501.234
808.135	500.741
808.185	506.671
808.236	497.193
808.287	494.936
808.338	491.174
808.388	498.966
808.439	503.466
808.49	494.564
808.541	499.256
808.591	485.559
808.642	492.098
808.693	495.039
808.744	486.952
808.795	491.631
808.845	484.17
808.896	517.847
808.947	468.956
808.998	497.177
809.048	480.31
809.099	479.744
809.15	500.019
809.201	507.661
809.251	483.168
809.302	472.577
809.353	490.259
809.404	496.679
809.454	487.172
809.505	491.652
809.556	484.3
809.607	487.691
809.658	488.333
809.708	486.329
809.759	470.577
809.81	486.429
809.861	489.062
809.911	488.921
809.962	484.817
810.013	477.426
810.064	471.857
810.114	494.032
810.165	483.255
810.216	478.932
810.267	478.279
810.317	498.386
810.368	475.889
810.419	466.631
810.469	485.907
810.52	463.946
810.571	479.5
810.622	446.861
810.627	442.754
810.678	477.821
810.729	454.901
810.78	480.695
810.831	469.305
810.882	464.841
810.933	448.718
810.984	481.401
811.035	462.907
811.086	453.696
811.137	465.416
811.188	481.796
811.239	456.295
811.29	465.742
811.341	477.563
811.392	461.459
811.443	452.351
811.494	482.889
811.545	473.76
811.596	469.273
811.648	448.428
811.699	462.623
811.75	469.84
811.801	463.059
811.852	465.643
811.903	442.47
811.954	452.035
812.005	459.215
812.056	471.029
812.107	431.23
812.158	452.326
812.209	475.751
812.26	433.571
812.311	440.653
812.362	452.497
812.413	457.396
812.464	460.026
812.515	467.394
812.566	448.908
812.617	456.191
812.668	439.856
812.719	444.58
812.77	442.168
812.821	453.838
812.872	446.725
812.923	432.641
812.974	428.063
813.025	454.174
813.076	447.42
813.127	445.391
813.178	459.836
813.229	436.481
813.28	438.995
813.331	455.617
813.382	448.608
813.433	458.135
813.484	441.716
813.535	437.139
813.586	453.861
813.637	432.773
813.688	449.522
813.739	452.086
813.79	445.191
813.841	447.795
813.892	419.622
813.943	424.662
813.994	453.466
814.045	439.528
814.096	456.412
814.147	430.405
814.198	432.808
814.249	451.744
814.3	420.681
814.351	444.269
814.402	441.765
814.453	427.495
814.504	453.745
814.555	437.377
814.606	437.748
814.657	419.124
814.708	438.597
814.759	427.034
814.81	417.754
814.861	460.912
814.912	437.127
814.963	420.447
815.014	432.411
815.065	415.714
815.116	434.884
815.167	411.081
815.217	430.333
815.268	420.925
815.319	413.909
815.37	437.988
815.421	462.055
815.472	450.18
815.523	440.664
815.574	423.935
815.625	414.367
815.676	414.355
815.727	426.282
815.778	426.193
815.829	426.066
815.88	418.747
815.931	416.24
815.982	430.541
816.033	411.457
816.084	435.555
816.135	445.425
816.186	417.042
816.237	417.423
816.288	448.989
816.339	408.447
816.39	427.853
816.441	420.718
816.492	418.305
816.543	432.675
816.594	415.801
816.645	425.421
816.696	432.726
816.747	416.081
816.798	404.307
816.849	402.189
816.9	419.347
816.951	412.379
817.001	424.652
817.052	434.465
817.103	415.261
817.154	422.572
817.205	410.54
817.256	408.156
817.307	415.446
817.358	401.034
817.409	406.014
817.46	420.758
817.511	425.928
817.562	406.944
817.613	407.328
817.664	419.793
817.715	386.04
817.766	444.429
817.817	391.004
817.868	407.944
817.919	398.166
817.97	398.142
818.021	403.041
818.071	408.008
818.122	417.882
818.173	410.765
818.224	401.202
818.275	413.502
818.326	396.595
818.377	416.179
818.428	409.001
818.479	431.059
818.53	394.681
818.581	414.348
818.632	399.91
818.683	387.909
818.734	383.228
818.785	407.855
818.836	386.081
818.887	403.393
818.938	386.461
818.988	398.857
819.039	394.105
819.09	404.022
819.141	406.585
819.192	391.993
819.243	379.841
819.294	404.455
819.345	414.38
819.396	399.803
819.447	392.605
819.498	382.984
819.549	402.874
819.6	395.792
819.651	401.034
819.702	408.763
819.753	391.856
819.803	392.166
819.854	382.569
819.905	400.082
819.956	382.971
820.007	383.095
820.058	388.112
820.109	407.915
820.16	402.96
820.211	397.99
820.262	375.728
820.313	385.642
820.364	373.369
820.415	400.737
820.465	373.744
820.516	398.764
820.567	374.245
820.618	391.814
820.669	374.608
820.72	392.073
820.771	374.764
820.822	399.651
820.873	387.341
820.924	375.081
820.975	382.744
821.026	390.447
821.076	395.667
821.127	370.977
821.178	391.042
821.229	388.638
821.28	343.834
821.331	393.694
821.382	396.224
821.433	381.336
821.484	371.458
821.535	394.017
821.586	369.204
821.637	394.283
821.687	356.966
821.738	367.063
821.789	357.186
821.84	379.794
821.891	357.441
821.942	355.091
821.993	360.254
822.044	377.935
822.095	365.57
822.146	370.704
822.196	383.326
822.247	390.913
822.298	345.858
822.349	398.557
822.4	376.102
822.451	356.204
822.502	356.435
822.553	376.827
822.604	347.003
822.655	375.009
822.706	372.794
822.756	365.466
822.807	368.141
822.858	370.758
822.909	358.209
822.96	386.016
823.011	353.277
823.062	368.483
823.113	373.58
823.164	378.627
823.214	371.005
823.265	350.738
823.316	343.093
823.367	380.879
823.418	340.518
823.469	340.566
823.52	368.41
823.571	350.855
823.622	361.055
823.672	353.552
823.723	366.214
823.774	381.369
823.825	376.297
823.876	376.272
823.927	376.258
823.978	373.739
824.029	378.82
824.08	358.669
824.13	343.583
824.181	379.044
824.232	353.869
824.283	351.44
824.334	349.013
824.385	369.357
824.436	346.701
824.487	359.479
824.537	336.818
824.588	359.738
824.639	354.782
824.69	380.212
824.741	324.496
824.792	360.017
824.843	339.755
824.893	332.18
824.944	357.596
824.995	372.902
825.046	345.099
825.097	360.432
825.148	345.296
825.199	358.072
825.25	355.605
825.3	325.198
825.351	373.579
825.402	353.383
825.453	348.461
825.504	335.916
825.555	369.181
825.606	351.504
825.657	364.347
825.707	351.661
825.758	336.378
825.809	351.644
825.86	366.896
825.911	341.389
825.962	343.93
826.013	364.331
826.063	328.699
826.114	349.125
826.165	346.605
826.216	359.349
826.267	346.575
826.318	346.521
826.369	356.647
826.419	366.774
826.47	328.527
826.521	323.409
826.572	320.851
826.623	333.582
826.674	328.495
826.725	346.338
826.775	326
826.826	346.437
826.877	341.429
826.928	346.634
826.979	341.653
827.03	359.621
827.08	336.77
827.131	354.726
827.182	344.607
827.233	334.489
827.284	339.701
827.335	339.816
827.386	329.705
827.436	342.573
827.487	332.386
827.538	360.487
827.589	345.062
827.64	314.274
827.691	344.804
827.741	311.522
827.792	334.5
827.843	334.605
827.894	311.818
827.945	306.984
827.996	320.112
828.046	338.395
828.097	320.743
828.148	320.958
828.199	357.037
828.25	318.531
828.301	318.479
828.351	318.385
828.402	343.964
828.453	325.951
828.504	318.271
828.555	328.623
828.606	331.332
828.656	346.923
828.707	341.968
828.758	336.991
828.809	337.123
828.86	306.328
828.911	332.13
828.961	334.74
829.012	319.309
829.063	332.195
829.114	319.328
829.165	339.941
829.216	298.75
829.266	352.86
829.317	316.834
829.368	314.302
829.419	327.241
829.47	347.927
829.52	304.18
829.571	345.499
829.622	322.357
829.673	319.836
829.724	314.737
829.774	340.614
829.825	312.328
829.876	325.371
829.927	335.869
829.978	320.543
830.029	307.778
830.079	344.137
830.13	326.129
830.181	318.432
830.232	323.659
830.283	336.653
830.333	297.858
830.384	336.771
830.435	292.783
830.486	323.913
830.537	310.964
830.587	326.487
830.638	323.85
830.689	313.437
830.74	318.584
830.791	310.814
830.841	308.266
830.892	308.35
830.943	313.655
830.994	326.765
831.045	298.376
831.095	303.688
831.146	314.164
831.197	314.219
831.248	311.644
831.299	303.859
831.349	311.661
831.4	280.524
831.451	311.757
831.502	298.852
831.553	309.346
831.603	312.035
831.654	291.291
831.705	319.93
831.756	314.73
831.807	301.714
831.857	322.519
831.908	312.132
831.959	293.964
832.01	294.022
832.061	317.508
832.111	299.346
832.162	317.611
832.213	299.416
832.264	307.256
832.315	312.509
832.365	309.978
832.416	320.507
832.467	284.145
832.518	312.96
832.568	323.526
832.619	313.192
832.67	300.209
832.721	315.908
832.772	295.034
832.822	321.147
832.873	292.435
832.924	297.681
832.975	308.174
833.025	292.574
833.076	297.89
833.127	308.45
833.178	300.717
833.229	292.971
833.279	298.289
833.33	303.591
833.381	308.879
833.432	298.45
833.482	301.107
833.533	301.15
833.584	298.58
833.635	311.73
833.685	285.584
833.736	296.11
833.787	296.154
833.838	293.578
833.889	298.876
833.939	309.432
833.99	306.89
834.041	304.347
834.092	272.923
834.142	307.078
834.193	309.709
834.244	296.565
834.295	296.538
834.345	288.654
834.396	307.051
834.447	291.38
834.498	294.122
834.548	304.771
834.599	315.425
834.65	291.875
834.701	291.944
834.751	307.761
834.802	291.992
834.853	318.309
834.904	263.082
834.954	297.309
835.005	268.39
835.056	297.344
835.107	278.912
835.157	286.77
835.208	297.247
835.259	297.21
835.31	281.422
835.36	270.929
835.411	286.774
835.462	286.854
835.513	265.868
835.563	286.972
835.614	271.185
835.665	302.76
835.716	294.836
835.766	294.829
835.817	292.232
835.868	287.053
835.919	287.185
835.969	282.071
836.02	284.865
836.071	271.805
836.122	298.295
836.172	287.792
836.223	287.811
836.274	293.082
836.325	274.569
836.375	308.836
836.426	271.816
836.477	300.755
836.528	269.006
836.578	284.734
836.629	271.474
836.68	287.232
836.73	289.844
836.781	295.124
836.832	300.43
836.883	276.76
836.933	258.362
836.984	284.789
837.035	287.495
837.086	258.546
837.136	263.882
837.187	290.31
837.238	285.032
837.288	279.705
837.339	263.789
837.39	284.785
837.441	284.7
837.491	263.585
837.542	295.267
837.593	287.485
837.643	271.826
837.694	293.119
837.745	280.046
837.796	290.676
837.846	266.875
837.897	287.931
837.948	271.975
837.999	266.592
838.049	277.074
838.1	250.651
838.151	258.56
838.201	263.841
838.252	269.115
838.303	269.089
838.354	261.121
838.404	287.414
838.455	276.78
838.506	268.797
838.556	276.649
838.607	276.624
838.658	273.99
838.708	276.643
838.759	263.493
838.81	284.597
838.861	268.808
838.911	279.371
838.962	245.133
839.013	263.616
839.063	279.474
839.114	266.337
839.165	245.291
839.216	266.456
839.266	255.973
839.317	269.244
839.368	258.752
839.418	256.159
839.469	266.741
839.52	266.727
839.57	258.767
839.621	266.643
839.672	261.332
839.722	266.609
839.773	261.363
839.824	261.428
839.875	266.794
839.925	264.243
839.976	280.188
840.027	259.116
840.077	264.472
840.128	264.53
840.179	259.288
840.229	259.324
840.28	259.344
840.331	243.467
840.381	272.563
840.432	256.664
840.483	251.354
840.534	251.349
840.584	248.718
840.635	259.338
840.686	264.687
840.736	254.165
840.787	248.939
840.838	264.902
840.888	280.871
840.939	262.391
840.99	238.598
841.04	251.918
841.091	241.374
841.142	262.662
841.192	244.15
841.243	257.477
841.294	246.906
841.344	254.91
841.395	257.601
841.446	260.29
841.496	244.39
841.547	249.748
841.598	260.434
841.648	273.797
841.699	249.951
841.75	250.03
841.8	231.477
841.851	250.155
841.902	276.792
841.952	252.824
842.003	258.094
842.054	271.308
842.104	252.589
842.155	281.724
842.206	236.464
842.256	257.665
842.307	252.333
842.358	252.345
842.408	241.751
842.459	265.704
842.51	231.2
842.56	257.807
842.611	255.173
842.662	265.822
842.712	247.225
842.763	247.232
842.814	236.6
842.864	252.545
842.915	236.583
842.966	255.177
843.016	260.487
843.067	247.209
843.118	249.906
843.168	236.674
843.219	247.391
843.269	258.116
843.32	231.569
843.371	252.91
843.421	234.3
843.472	247.635
843.523	266.313
843.573	226.422
843.624	245.159
843.675	261.264
843.725	250.712
843.776	245.467
843.827	242.852
843.877	237.528
843.928	248.185
843.979	245.478
844.029	226.76
844.08	237.395
844.13	242.703
844.181	253.359
844.232	221.355
844.282	242.704
844.333	237.402
844.384	226.78
844.434	234.848
844.485	226.911
844.536	261.691
844.586	235.045
844.637	240.428
844.687	248.469
844.738	237.796
844.789	216.432
844.839	240.495
844.89	229.824
844.941	264.589
844.991	235.213
845.042	227.215
845.092	237.93
845.143	240.628
845.194	235.31
845.244	211.275
845.295	246.077
845.346	240.758
845.396	243.456
845.447	232.771
845.497	259.546
845.548	222.113
845.599	232.865
845.649	227.579
845.7	241.053
845.75	241.139
845.801	230.49
845.852	225.172
845.902	235.912
845.953	243.956
846.004	227.87
846.054	225.199
846.105	233.271
846.155	233.314
846.206	227.997
846.257	233.4
846.307	225.374
846.358	233.433
846.409	211.974
846.459	222.724
846.51	236.184
846.56	228.199
846.611	217.539
846.661	233.734
846.712	244.543
846.763	247.252
846.813	217.67
846.864	220.307
846.915	239.044
846.965	212.13
847.016	225.522
847.066	204.041
847.117	233.601
847.168	228.274
847.218	222.946
847.269	209.545
847.319	247.172
847.37	228.364
847.421	217.611
847.471	214.924
847.522	231.059
847.572	233.781
847.623	228.459
847.674	207.012
847.724	231.269
847.775	231.322
847.825	228.673
847.876	220.631
847.926	231.417
847.977	217.982
848.028	215.313
848.078	220.728
848.129	207.309
848.179	223.518
848.23	223.581
848.281	229.035
848.331	229.093
848.382	223.744
848.432	207.593
848.483	221.089
848.534	239.983
848.584	223.841
848.635	231.996
848.685	207.799
848.736	221.392
848.786	234.992
848.837	232.368
848.888	218.905
848.938	208.119
848.989	221.655
849.039	221.691
849.09	221.751
849.14	213.718
849.191	211.1
849.242	216.59
849.292	213.928
849.343	230.186
849.393	208.504
849.444	213.898
849.494	213.898
849.545	219.352
849.596	195.05
849.646	211.408
849.697	203.383
849.747	238.743
849.798	222.532
849.848	217.133
849.899	206.274
849.95	206.254
850	211.658
850.051	219.782
850.101	214.352
850.152	238.781
850.202	206.235
850.253	195.396
850.303	211.696
850.354	217.141
850.405	219.876
850.455	209.046
850.506	195.505
850.556	219.99
850.607	203.743
850.657	236.398
850.708	192.965
850.758	214.751
850.809	212.07
850.86	209.382
850.91	195.805
850.961	225.729
851.011	220.284
851.062	217.545
851.112	198.487
851.163	217.505
851.213	201.199
851.264	209.398
851.314	220.363
851.365	228.651
851.416	220.627
851.466	223.497
851.517	207.263
851.567	210.084
851.618	204.69
851.668	201.997
851.719	199.285
851.769	212.945
851.82	204.762
851.87	193.852
851.921	210.254
851.971	207.556
852.022	199.407
852.073	210.391
852.123	174.923
852.174	221.449
852.224	205.089
852.275	229.724
852.325	210.53
852.376	197.142
852.426	207.892
852.477	210.729
852.527	208.165
852.578	207.725
852.628	199.904
852.679	211.635
852.729	202.115
852.78	207.848
852.831	209.213
852.881	211.191
852.932	203.129
852.982	220.432
853.033	213.331
853.083	205.15
853.134	196.325
853.184	213.205
853.235	197.311
853.285	191.731
853.336	197.141
853.386	202.677
853.437	207.3
853.487	205.107
853.538	188.215
853.588	202.325
853.639	204.083
853.689	196.567
853.74	190.518
853.79	199.83
853.841	198.144
853.891	205.3
853.942	190.369
853.992	208.565
854.043	197.015
854.093	202.92
854.144	197.69
854.194	208.987
854.245	206.078
854.295	206.06
854.346	198.378
854.396	207.018
854.447	193.743
854.497	192.322
854.548	190.089
854.598	206.483
854.649	192.627
854.699	199.494
854.75	195.793
854.8	189.831
854.851	195.623
854.901	205.588
854.952	197.536
855.002	196.685
855.053	186.711
855.103	199.086
855.154	198.946
855.204	194.926
855.255	184.864
855.305	197.058
855.356	195.949
855.406	206.807
855.457	195.368
855.507	191.286
855.558	183.545
855.608	195.877
855.659	181.28
855.709	194.602
855.76	186.862
855.81	191.989
855.861	190.729
855.911	195.047
855.962	198.114
856.012	199.337
856.063	194.437
856.113	193.174
856.164	187.798
856.214	188.686
856.265	183.21
856.315	198.98
856.366	189.952
856.416	185.068
856.467	189.547
856.517	192.19
856.568	194.568
856.618	196.588
856.668	193.868
856.719	195.35
856.769	189.784
856.82	185.941
856.87	182.598
856.921	178.244
856.971	190.771
857.022	191.079
857.072	182.688
857.123	183.795
857.173	193.145
857.224	200.542
857.274	199.621
857.325	190.431
857.352	182.932
857.403	185.718
857.453	182.957
857.504	160.788
857.555	188.517
857.606	194.065
857.656	194.063
857.707	182.965
857.758	196.813
857.809	194.028
857.859	191.25
857.91	188.486
857.961	185.738
858.012	180.234
858.063	194.155
858.113	199.763
858.164	191.489
858.215	180.418
858.266	199.854
858.316	166.528
858.367	194.244
858.418	169.227
858.469	185.827
858.519	185.791
858.57	185.768
858.621	174.665
858.672	185.746
858.722	180.191
858.773	185.717
858.824	177.381
858.875	185.676
858.925	169.041
858.976	177.364
859.027	196.791
859.078	166.335
859.128	185.772
859.179	183.014
859.23	180.234
859.281	171.891
859.331	196.806
859.382	194.004
859.433	157.967
859.483	194.008
859.534	182.95
859.585	191.299
859.636	158.048
859.686	183.008
859.737	171.906
859.788	199.615
859.839	185.745
859.889	191.303
859.94	180.246
859.991	180.295
860.042	177.57
860.092	185.932
860.143	155.418
860.194	180.383
860.245	149.829
860.295	177.536
860.346	171.958
860.397	171.948
860.447	177.513
860.498	177.56
860.549	177.625
860.6	172.143
860.65	166.646
860.701	186.128
860.752	172.248
860.802	158.342
860.853	180.531
860.904	188.823
860.955	174.911
861.005	199.885
861.056	188.788
861.107	177.708
861.158	158.304
861.208	180.564
861.259	155.599
861.31	175.09
861.36	158.451
861.411	175.168
861.462	175.201
861.513	183.572
861.563	189.152
861.614	180.812
861.665	175.242
861.715	175.226
861.766	161.296
861.817	166.826
861.868	169.563
861.918	177.847
861.969	169.449
862.02	166.608
862.07	163.773
862.121	174.827
862.172	169.248
862.223	177.564
862.273	172.027
862.324	188.703
862.375	169.308
862.425	180.436
862.476	174.896
862.527	169.335
862.577	163.756
862.628	160.937
862.679	174.755
862.73	174.705
862.78	169.13
862.831	177.45
862.882	183.039
862.932	174.8
862.983	169.356
863.034	186.141
863.084	152.897
863.135	177.994
863.186	164.119
863.237	169.668
863.287	169.613
863.338	175.093
863.389	155.558
863.439	161.041
863.49	166.542
863.541	160.968
863.591	155.425
863.642	166.563
863.693	172.174
863.744	169.468
863.794	175.097
863.845	175.158
863.896	175.199
863.946	166.872
863.997	166.869
864.048	152.953
864.098	166.852
864.149	175.207
864.2	175.242
864.25	169.728
864.301	172.565
864.352	169.824
864.402	161.491
864.453	167.055
864.504	161.463
864.555	164.215
864.605	158.619
864.656	172.51
864.707	147.454
864.757	178.041
864.808	166.892
864.859	164.077
864.909	155.693
864.96	175.111
865.011	161.192
865.061	152.86
865.112	144.55
865.163	155.716
865.213	169.674
865.264	161.37
865.315	155.825
865.365	164.171
865.416	175.283
865.467	180.826
865.517	155.779
865.568	158.571
865.619	164.167
865.669	158.65
865.72	169.844
865.771	150.405
865.821	167.166
865.872	186.71
865.923	153.297
865.973	170.047
866.024	144.981
866.075	158.949
866.125	156.188
866.176	167.369
866.227	131.117
866.277	156.226
866.328	153.428
866.379	161.783
866.429	164.561
866.48	145.032
866.531	153.403
866.581	172.938
866.632	159.002
866.683	167.375
866.733	153.424
866.784	153.414
866.835	158.982
866.885	145.033
866.936	161.783
866.987	147.87
867.037	150.715
867.088	150.783
867.138	156.439
867.189	176.062
867.24	148.151
867.29	153.752
867.341	156.535
867.392	164.893
867.442	131.332
867.493	173.228
867.544	136.908
867.594	159.284
867.645	159.324
867.696	170.556
867.746	145.436
867.797	165.056
867.848	153.895
867.898	170.706
867.949	167.922
867.999	159.537
868.05	165.147
868.101	156.762
868.151	142.779
868.202	153.993
868.253	131.608
868.303	154.026
868.354	165.247
868.405	168.074
868.455	162.505
868.506	156.944
868.556	154.194
868.607	162.667
868.658	140.285
868.708	148.754
868.759	157.219
868.81	162.868
868.86	168.51
868.911	140.443
868.961	143.271
869.012	151.722
869.063	162.988
869.113	157.396
869.164	143.367
869.215	157.447
869.265	151.845
869.316	146.24
869.367	163.132
869.417	160.331
869.468	160.332
869.518	168.759
869.569	163.113
869.62	149.029
869.67	154.636
869.721	140.574
869.771	160.267
869.822	157.479
869.873	143.442
869.923	149.085
869.974	140.649
870.025	160.329
870.075	143.436
870.126	154.674
870.176	143.427
870.227	160.325
870.278	157.554
870.328	151.981
870.379	166.118
870.43	152.1
870.48	154.976
870.531	149.395
870.581	157.909
870.632	157.967
870.683	146.735
870.733	155.25
870.784	155.291
870.834	160.97
870.885	141.222
870.936	163.832
870.986	129.941
871.037	138.415
871.087	132.759
871.138	152.519
871.189	155.329
871.239	144.022
871.29	144.023
871.34	138.391
871.391	144.073
871.442	169.556
871.492	147.007
871.543	149.896
871.593	135.806
871.644	161.321
871.695	152.868
871.745	147.231
871.796	155.739
871.846	138.752
871.897	141.58
871.948	152.902
871.998	135.914
872.049	138.76
872.099	133.121
872.15	147.319
872.201	130.351
872.251	130.369
872.302	147.375
872.352	155.861
872.403	147.337
872.453	133.153
872.504	152.979
872.555	152.988
872.605	150.173
872.656	138.854
872.706	147.36
872.757	155.852
872.808	144.498
872.858	144.479
872.909	152.968
872.959	150.142
873.01	138.835
873.06	141.706
873.111	141.75
873.162	138.956
873.212	147.498
873.263	133.335
873.313	144.69
873.364	130.5
873.415	141.835
873.465	136.148
873.516	133.305
873.566	147.495
873.617	141.848
873.667	144.726
873.718	141.934
873.769	150.489
873.819	153.344
873.87	156.165
873.92	144.755
873.971	139.002
874.021	138.915
874.072	147.336
874.123	121.786
874.173	150.084
874.224	147.264
874.274	147.307
874.325	150.204
874.375	130.43
874.426	127.657
874.477	147.582
874.527	127.765
874.578	139.166
874.628	142.035
874.679	150.571
874.729	139.202
874.78	133.501
874.83	136.313
874.881	136.285
874.932	144.781
874.982	141.935
875.033	130.586
875.083	133.44
875.134	147.653
875.184	141.98
875.235	119.253
875.285	133.428
875.336	139.085
875.387	144.752
875.437	136.247
875.488	141.954
875.538	133.478
875.589	139.204
875.639	110.824
875.69	133.572
875.74	142.088
875.791	147.738
875.841	116.451
875.892	144.813
875.943	141.951
875.993	147.631
876.044	122.103
876.094	124.983
876.145	142.08
876.195	133.6
876.246	147.847
876.296	139.33
876.347	147.856
876.397	125.096
876.448	139.297
876.499	150.659
876.549	125.078
876.6	136.463
876.65	142.174
876.701	136.515
876.751	150.767
876.802	145.105
876.852	128.055
876.903	130.919
876.953	130.936
877.004	142.34
877.054	133.819
877.105	145.231
877.155	119.624
877.206	153.832
877.257	122.52
877.307	151.04
877.358	139.659
877.408	148.22
877.459	148.219
877.509	131.109
877.56	128.247
877.61	131.086
877.661	145.327
877.711	151.026
877.762	131.085
877.812	136.795
877.863	142.508
877.913	148.223
877.964	151.091
878.014	125.453
878.065	134.032
878.115	131.213
878.166	139.813
878.216	134.152
878.267	117.069
878.318	128.539
878.368	131.445
878.419	134.353
878.469	122.963
878.52	137.309
878.57	128.766
878.621	131.661
878.671	151.724
878.722	128.833
878.772	137.421
878.823	140.27
878.873	140.244
878.924	143.073
878.974	140.18
879.025	137.294
879.075	134.425
879.126	128.716
879.176	117.306
879.227	117.357
879.277	131.745
879.328	146.159
879.378	143.385
879.429	111.904
879.479	126.307
879.53	132.087
879.58	132.108
879.631	134.987
879.681	126.369
879.732	132.108
879.782	123.489
879.833	123.488
879.883	143.594
879.934	120.623
879.984	126.375
880.035	132.13
880.085	132.146
880.136	123.548
880.186	123.576
880.237	129.362
880.287	120.781
880.338	120.828
880.388	123.755
880.439	138.199
880.489	112.327
880.54	129.653
880.59	123.932
880.641	138.392
880.691	121.138
880.742	126.95
880.792	141.417
880.842	118.349
880.893	135.676
880.943	129.895
880.994	138.542
881.044	132.762
881.095	129.883
881.145	135.683
881.196	118.403
881.246	141.567
881.297	144.521
881.347	127.23
881.398	115.701
881.448	130.197
881.499	124.437
881.549	109.991
881.6	127.389
881.65	121.631
881.701	124.561
881.751	147.77
881.802	127.509
881.852	121.723
881.902	139.117
881.953	124.627
882.003	121.735
882.054	127.546
882.104	115.971
882.155	124.693
882.205	116.012
882.256	124.721
882.306	118.915
882.357	115.998
882.407	118.877
882.458	127.559
882.508	115.962
882.559	127.578
882.609	124.719
882.659	118.97
882.71	121.932
882.76	107.468
882.811	130.76
882.861	124.991
882.912	127.932
882.962	122.143
883.013	125.073
883.063	125.092
883.114	136.749
883.164	119.311
883.214	125.155
883.265	133.917
883.315	113.568
883.366	136.902
883.416	131.108
883.467	125.304
883.517	122.403
883.568	134.063
883.618	113.662
883.669	119.494
883.719	136.997
883.769	122.45
883.82	134.154
883.87	119.613
883.921	125.486
883.971	134.273
884.022	119.697
884.072	131.39
884.123	110.966
884.173	140.196
884.223	122.706
884.274	128.59
884.324	125.707
884.375	122.813
884.425	119.904
884.476	140.378
884.526	122.825
884.577	122.821
884.627	128.673
884.677	125.764
884.728	105.315
884.778	122.902
884.829	117.085
884.879	117.117
884.93	120.069
884.98	137.654
885.03	102.508
885.081	128.853
885.131	120.041
885.182	120.006
885.232	114.116
885.283	117.009
885.333	128.688
885.383	111.139
885.434	117.008
885.484	128.747
885.535	120.009
885.585	114.184
885.635	114.19
885.686	122.96
885.736	125.863
885.787	117.063
885.837	131.692
885.888	111.224
885.938	108.332
885.988	128.88
886.039	117.209
886.089	126.034
886.14	105.528
886.19	111.383
886.241	128.95
886.291	114.28
886.341	114.274
886.392	128.937
886.442	111.38
886.493	120.211
886.543	114.382
886.593	117.341
886.644	117.35
886.694	108.544
886.745	123.199
886.795	105.59
886.845	102.659
886.896	108.545
886.946	123.256
886.997	123.314
887.047	111.63
887.097	117.567
887.148	111.742
887.198	108.845
887.249	117.709
887.299	103.022
887.349	129.539
887.4	114.834
887.45	117.786
887.501	106.009
887.551	120.732
887.602	117.79
887.652	126.637
887.702	108.988
887.753	120.805
887.803	114.95
887.853	129.73
887.904	117.968
887.954	97.3416
888.005	123.904
888.055	118.013
888.105	115.076
888.156	126.902
888.206	118.082
888.257	100.408
888.307	121.132
888.357	115.27
888.408	118.264
888.458	109.414
888.509	109.417
888.559	103.494
888.609	124.175
888.66	118.247
888.71	109.374
888.76	109.381
888.811	103.488
888.861	124.217
888.912	106.501
888.962	112.445
889.012	91.7477
889.063	115.437
889.113	106.563
889.163	115.447
889.214	109.533
889.264	115.465
889.315	109.561
889.365	115.507
889.415	118.495
889.466	109.631
889.516	103.723
889.566	121.521
889.617	115.605
889.667	118.582
889.718	112.668
889.768	106.758
889.818	100.854
889.869	118.692
889.919	115.769
889.969	115.814
890.02	101.003
890.07	98.0619
890.12	109.973
890.171	107.015
890.221	104.051
890.272	124.867
890.322	110.011
890.372	118.951
890.423	113.036
890.473	110.111
890.523	86.3532
890.574	125.149
890.624	101.384
890.674	104.437
890.725	113.453
890.775	113.501
890.826	104.566
890.876	107.564
890.926	110.551
890.977	119.507
891.027	101.577
891.077	128.469
891.128	104.582
891.178	122.54
891.228	95.6722
891.279	92.7162
891.329	89.7561
891.379	119.707
891.43	101.768
891.48	110.755
891.53	107.762
891.581	101.775
891.631	113.756
891.681	113.778
891.732	92.8516
891.782	107.883
891.832	101.955
891.883	117.029
891.933	117.107
891.983	105.155
892.034	111.209
892.084	111.234
892.134	93.2043
892.185	99.2188
892.235	108.242
892.286	102.244
892.336	102.277
892.386	102.328
892.437	105.405
892.487	108.491
892.537	105.545
892.587	111.635
892.638	111.68
892.688	102.657
892.738	105.707
892.789	93.6574
892.839	90.6738
892.889	105.838
892.94	102.866
892.99	108.965
893.04	99.9165
893.091	105.988
893.141	109.017
893.191	96.8939
893.242	108.991
893.292	112.007
893.342	102.923
893.393	96.8739
893.443	90.8304
893.493	93.8741
893.544	118.124
893.594	109.063
893.644	106.063
893.695	109.129
893.745	103.101
893.795	109.204
893.846	100.135
893.896	109.269
893.946	91.0801
893.996	109.323
894.047	103.278
894.097	106.348
894.147	85.1055
894.198	106.411
894.248	94.2652
894.298	91.2275
894.349	106.424
894.399	103.373
894.449	103.37
894.5	109.464
894.55	112.54
894.6	106.505
894.65	100.473
894.701	103.57
894.751	106.665
894.801	103.657
894.852	94.5456
894.902	112.892
894.952	88.5284
895.003	109.964
895.053	88.6416
895.103	110.11
895.153	91.8129
895.204	110.229
895.254	107.208
895.304	107.239
895.355	88.8747
895.405	88.8911
895.455	91.9716
895.505	107.318
895.556	113.472
895.606	107.36
895.656	101.248
895.707	110.479
895.757	89.0174
895.807	101.317
895.858	104.407
895.908	116.712
895.958	107.52
896.008	104.475
896.059	95.2836
896.109	107.61
896.159	98.415
896.21	101.517
896.26	116.926
896.31	107.718
896.36	95.4268
896.411	95.4462
896.461	98.5431
896.511	110.876
896.561	101.642
896.612	101.64
896.662	104.713
896.712	98.5498
896.763	95.4774
896.813	104.744
896.863	95.5473
896.913	101.778
896.964	86.4204
897.014	95.7468
897.064	89.6191
897.115	102.014
897.165	98.9322
897.215	86.5571
897.265	92.7197
897.316	117.415
897.366	114.298
897.416	101.922
897.466	98.8199
897.517	104.986
897.567	101.896
897.617	101.904
897.667	89.5731
897.718	89.6111
897.768	92.7572
897.818	99.0132
897.868	99.0874
897.919	111.546
897.969	89.8962
898.019	99.2129
898.069	99.2019
898.12	99.1673
898.17	89.8248
898.22	105.253
898.27	92.8248
898.321	92.7951
898.371	98.9756
898.421	108.282
898.471	89.7704
898.522	96.0407
898.572	102.336
898.622	99.3323
898.672	102.523
898.723	96.3686
898.773	93.2927
898.823	108.855
898.873	80.8626
898.924	102.629
898.974	108.851
899.024	102.643
899.074	99.5521
899.125	102.685
899.175	105.81
899.225	108.921
899.275	90.232
899.326	105.755
899.376	96.3863
899.426	105.679
899.476	102.555
899.527	102.562
899.577	80.8335
899.627	87.0994
899.677	102.724
899.728	87.2234
899.778	93.5184
899.828	102.931
899.878	99.858
899.928	99.8909
899.979	93.6681
