#Acq. time (s)=	3
#Accumulations=	2
#Range (nm)=	520...900
#Windows=	16
#Auto scanning=	On
#Autofocus=	Off
#AutoExposure=	Off
#Spike filter=	Multiple accum.
#Delay time (s)=	0
#Binning=	1
#Readout mode=	Signal
#DeNoise=	Off
#ICS correction=	Off
#Dark correction=	Off
#Inst. Process=	Off
#Detector temperature (°C)=	-59.98
#Instrument=	LabRAM HR Evol
#Detector=	Syncerity OE
#Objective=	x50_VIS
#Grating=	600 (500nm)
#ND Filter=	10%
#Laser=	514nm_Edge
#Hole=	199.981
#Range=	Auto
#StageXY=	Marzhauser
#StageZ=	Marzhauser
#X (µm)=	-15436.1
#Y (µm)=	-8975.3
#Z (µm)=	-26.3
#Full time(mm:ss)=	2:39
#Project=	
#Sample=	
#Site=	
#Title=	PL_SCD2_121223
#Remark=	
#Date=	21.12.2023 09:51
#Acquired=	21.12.2023 09:51:12
520.042	32
520.094	30.7419
520.147	31
520.199	31.1863
520.251	27.9023
520.304	32.8976
520.356	30.1572
520.408	30.8929
520.461	34.114
520.513	28.7672
520.565	29.3562
520.618	30.8744
520.67	27.064
520.723	30.9348
520.775	33.9325
520.827	32.8605
520.88	30.3609
520.932	30.6333
520.984	32.0757
521.037	23.3842
521.089	29.9209
521.141	31.674
521.194	36
521.246	32.17
521.298	30.2584
521.351	36.2837
521.403	32.454
521.455	28.1863
521.508	26.2829
521.56	34.1304
521.612	33.9022
521.665	32.4047
521.717	34.8976
521.769	33.7905
521.822	32.4237
521.874	29.8917
521.926	30.2189
521.979	37.2177
522.031	34.1129
522.083	31.5763
522.136	33.6442
522.188	33
522.24	31.4889
522.293	33.6298
522.345	32.8743
522.397	30.1281
522.45	33.8708
522.502	29.6577
522.554	31.5984
522.607	31.5949
522.659	32.2747
522.711	35.2794
522.764	26.4226
522.816	31.1409
522.868	35.709
522.921	35.44
522.973	30.298
523.025	34.3946
523.078	31.305
523.13	31.1548
523.182	29.3143
523.234	34.2026
523.287	32.3213
523.339	31.163
523.391	32
523.444	32.6647
523.496	30.1688
523.548	32
523.601	25.3446
523.653	33.3015
523.705	38.8231
523.758	31.2468
523.81	31.9173
523.862	33.3655
523.915	34
523.967	32.5623
524.019	33.6224
524.072	30
524.124	32
524.176	33.1944
524.229	31.6065
524.281	35.4028
524.333	39
524.385	35.6077
524.438	33.4098
524.49	31.3783
524.542	31.7905
524.595	29.8438
524.647	34.5763
524.699	34.7858
524.752	28.6496
524.804	31.4377
524.856	33.1189
524.909	35.2224
524.961	34.5506
525.013	30.135
525.066	32.4009
525.118	36.7695
525.17	30.6985
525.222	34.4685
525.275	29.5274
525.327	34.9546
525.379	31.2762
525.432	34
525.484	28.2456
525.536	32.5041
525.589	33
525.641	35.5029
525.693	33.4924
525.745	33.2552
525.798	35.2573
525.85	30.7762
525.902	33.6962
525.955	34
526.007	31.2657
526.059	37.7322
526.112	31.8102
526.164	37.1853
526.216	29.5471
526.268	34.2762
526.321	31.7218
526.373	33.8811
526.425	29.6903
526.478	29.716
526.53	31.5664
526.582	33.1548
526.635	36.1294
526.687	30.7532
526.739	34.9441
526.791	36
526.844	32.5967
526.896	34.6007
526.948	33.7879
527.001	33.915
527.053	35.0804
527.105	34.234
527.157	33.3776
527.21	32.3132
527.262	29.6853
527.314	37.3178
527.367	36.4033
527.419	34.6026
527.471	32
527.523	30.951
527.576	31.0559
527.628	37
527.68	32.9953
527.733	31.0035
527.785	38.986
527.837	37.6624
527.889	35.3403
527.942	30.7075
527.994	33.2771
528.046	34.7308
528.099	28.3015
528.151	33
528.203	34.8811
528.255	35.7101
528.308	37.3566
528.36	32.7949
528.412	32.8347
528.464	40.2727
528.517	39.0944
528.569	34
528.621	34.7381
528.674	34.6282
528.726	34.4965
528.778	30.8719
528.83	36.2424
528.883	34
528.935	34.3823
528.987	32.7683
529.039	37.2261
529.092	33.1678
529.144	33.8287
529.196	30.7855
529.249	35.4214
529.301	38.1923
529.353	30.3998
529.405	30.8019
529.458	34.5804
529.51	34
529.562	32.0396
529.614	30
529.667	37.3496
529.719	39.4138
529.771	30.9126
529.823	27.9045
529.876	36
529.928	35.1538
529.98	36
530.033	35.8555
530.085	37
530.137	36.1375
530.189	34
530.242	34.4359
530.294	35.1259
530.346	32.3201
530.398	27.6573
530.451	29.8834
530.503	38.5524
530.555	36.6538
530.607	36.1573
530.66	29.7331
530.712	36.8228
530.764	28.542
530.816	35
530.869	30.4615
530.921	32.5361
530.973	36.0676
531.025	35.4056
531.078	28.5291
531.13	32.0536
531.182	33.951
531.234	34.0443
531.287	30.9604
531.339	33.4476
531.391	30.1305
531.443	32.4271
531.496	31.5128
531.548	37.042
531.6	35.4755
531.652	36.4825
531.705	35.5245
531.757	37.993
531.809	31.9977
531.861	35.014
531.914	36.4825
531.966	39.4772
532.018	34.5466
532.07	32.0233
532.123	32.9441
532.175	35.965
532.227	32.0396
532.279	33.5648
532.332	31.4301
532.384	33.4744
532.436	35
532.488	39
532.541	35.9358
532.593	39.1352
532.645	36.3916
532.697	35.7774
532.75	32.8343
532.802	36.8275
532.854	38.0909
532.906	33.0956
532.958	31.4504
533.011	33.2098
533.063	32.2261
533.115	36.6713
533.167	32.8821
533.22	37.3182
533.272	35.6923
533.324	35.5659
533.376	33.8648
533.429	38.4239
533.481	33.6009
533.533	35.5696
533.585	32.2812
533.638	34.03
533.69	36.8565
533.742	34.9448
533.794	32.2503
533.846	38.6684
533.899	38.0286
533.951	37.2963
534.003	34.2001
534.055	35.1674
534.108	35.6867
534.16	37.4613
534.212	33.8096
534.264	38.3593
534.316	37.1631
534.369	34.9256
534.421	32.573
534.473	33.7482
534.525	32.9211
534.578	37.1993
534.63	35.5454
534.682	35.5099
534.734	29.6554
534.786	30.2732
534.839	35.169
534.891	37.294
534.943	32.0978
534.995	30.6499
535.047	31.6176
535.1	39.8071
535.152	36.1989
535.204	34.928
535.256	32.904
535.309	35.6513
535.361	36.3535
535.413	34.8474
535.465	35.1862
535.517	36.7466
535.57	35.6848
535.622	36.3867
535.674	32.8346
535.726	31.978
535.778	37.5871
535.831	34.7533
535.883	36.3757
535.935	41.1886
535.987	39.6296
536.039	35.2195
536.092	39.1859
536.144	35.9196
536.196	36.6461
536.248	37.3557
536.301	38.8097
536.353	33.5293
536.405	36.7244
536.457	33.4199
536.509	39.8096
536.562	40.1147
536.614	35.8887
536.666	37.3338
536.718	38.501
536.77	38.543
536.823	35.2923
536.875	33.0894
536.927	37.6357
536.979	38.3149
537.031	39.777
537.083	27.9336
537.136	37.3684
537.188	37.6046
537.24	34.4166
537.292	27.2603
537.344	37.5536
537.397	39.3014
537.449	35.5705
537.501	34.0339
537.553	39.6517
537.605	35.3515
537.658	35.6827
537.71	37.04
537.762	33.9426
537.814	37.998
537.866	38.7096
537.919	34.681
537.971	38.931
538.023	39.3445
538.075	36.8521
538.127	38.3692
538.18	41.3601
538.232	40.092
538.284	41.253
538.336	30.7734
538.388	37.2022
538.44	37.232
538.493	38.6164
538.545	38.8451
538.597	40.4987
538.649	35.8027
538.701	38.1732
538.754	36.1652
538.806	44.2756
538.858	40.8775
538.91	38.2628
538.962	36.4547
539.014	43.2231
539.067	37.683
539.119	38.6694
539.171	33.8732
539.223	40.5635
539.275	40.4096
539.327	41.0348
539.38	35.9086
539.432	45.3074
539.484	38.6318
539.536	43.6111
539.588	37.6932
539.641	39.0204
539.693	37.4965
539.745	38.4325
539.797	36.9749
539.849	35.7868
539.901	36.2533
539.954	36
540.006	36.8115
540.058	41.5049
540.11	42.7112
540.162	36.9824
540.214	34.9194
540.267	38.4698
540.319	34.1104
540.371	31.7895
540.423	34.6502
540.475	35.2398
540.527	39.3914
540.58	39.0887
540.632	39.1245
540.684	43.9936
540.736	37.3925
540.788	37.0429
540.84	39.6267
540.892	41.1342
540.945	45.5467
540.997	38
541.049	36.3014
541.101	37.5625
541.153	40.4264
541.205	35.4943
541.258	38.5317
541.31	39.3108
541.362	39.7625
541.414	38.4523
541.466	35.0125
541.518	42.4102
541.57	37.4403
541.623	35.3414
541.675	38.6607
541.727	36.1786
541.779	38.0632
541.831	38.0821
541.883	39.6773
541.936	47.985
541.988	42.7185
542.04	37.7846
542.092	40.6145
542.144	41.5375
542.196	37.6614
542.248	38.1012
542.301	40.9104
542.353	37.7592
542.405	41.2759
542.457	37.681
542.509	38.0944
542.561	42.781
542.613	44.369
542.666	37.0365
542.718	33.5805
542.77	42.5106
542.822	41.1133
542.874	37.998
542.926	36.5715
542.978	31.4173
543.031	42.5499
543.083	34.9765
543.135	43.651
543.187	38.9919
543.239	47.626
543.291	33.7154
543.343	36.2157
543.396	36.4971
543.448	41.6139
543.5	35.9073
543.552	36.7104
543.604	43.0619
543.656	36.7145
543.708	33.037
543.76	39.9222
543.813	41.052
543.865	45.833
543.917	37.9326
543.969	43.3126
544.021	41.4919
544.073	42.593
544.125	36.8977
544.177	42.0438
544.23	37.837
544.282	43.1518
544.334	39.895
544.386	43.2173
544.438	46.8754
544.49	48.1663
544.542	42.1131
544.594	46.1744
544.647	42.3104
544.699	46.767
544.751	35.2985
544.803	48.2019
544.855	42.5655
544.907	43.9542
544.959	38.9566
545.011	50.3979
545.064	44.5427
545.116	40.0461
545.168	39.7691
545.22	40.2231
545.272	48.271
545.324	39.8478
545.376	37.8004
545.428	44.4904
545.48	45.7241
545.533	52.4097
545.585	45.158
545.637	50.5049
545.689	49.8791
545.741	46.3866
545.793	42.4731
545.845	51.8929
545.897	45.2947
545.949	54.0999
546.002	45.7078
546.054	53.9639
546.106	54.126
546.158	48.8926
546.21	41.3773
546.262	48.425
546.314	48.2999
546.366	46.4362
546.418	47.7033
546.471	47.9824
546.523	56.1933
546.575	49.7605
546.627	43.1356
546.679	48.5506
546.689	50.0213
546.741	47.9925
546.793	53.954
546.845	54.0492
546.898	54.0601
546.95	54.0641
547.002	50.2021
547.054	59.9839
547.106	63.7797
547.159	57.8989
547.211	52.2014
547.263	56.1999
547.315	65.8794
547.368	73.6729
547.42	67.9626
547.472	67.9677
547.524	73.6965
547.577	69.805
547.629	73.693
547.681	73.9022
547.733	77.6165
547.785	65.863
547.838	67.7455
547.89	59.9384
547.942	61.6034
547.994	52.1898
548.047	55.8194
548.099	48.5073
548.151	63.5472
548.203	53.9267
548.255	54.1092
548.308	59.6414
548.36	57.3902
548.412	53.7499
548.464	46.4638
548.517	46.3609
548.569	53.7839
548.621	55.591
548.673	48.3882
548.725	46.7278
548.778	53.9666
548.83	55.8927
548.882	56.3912
548.934	52.6137
548.987	53.9765
549.039	55.3077
549.091	48.1735
549.143	54.9571
549.195	55.3394
549.248	55.0363
549.3	43.4069
549.352	52.3169
549.404	47.7306
549.456	56.4562
549.509	50.2814
549.561	50.2518
549.613	57.1747
549.665	51.1665
549.718	52.0204
549.77	52.8371
549.822	50.8445
549.874	56.6005
549.926	52.1808
549.979	59.6649
550.031	63.1061
550.083	54.0115
550.135	59.6362
550.187	59.8291
550.24	54.4399
550.292	52.6853
550.344	53.3399
550.396	61.3252
550.448	61.7062
550.501	67.1053
550.553	59.9089
550.605	63.5464
550.657	56.2086
550.709	61.1618
550.762	59.7846
550.814	58.1165
550.866	59.3502
550.918	62.7884
550.97	54.9775
551.023	60.8821
551.075	72.664
551.127	57.3489
551.179	59.6351
551.231	65.8932
551.284	67.2879
551.336	67.3877
551.388	70.6929
551.44	70.2696
551.492	64.3265
551.545	68.5937
551.597	75.9486
551.649	82.9048
551.701	85.8388
551.753	76.0652
551.806	82.9
551.858	82.9759
551.91	92.3181
551.962	109.79
552.014	107.661
552.067	112.796
552.119	133.597
552.171	143.43
552.223	167.912
552.275	218.313
552.327	274.308
552.38	407.369
552.432	893.097
552.484	1936.1
552.536	3327.75
552.588	5359.06
552.641	8647.88
552.693	11620.9
552.745	8950.19
552.797	4659
552.849	1872.83
552.901	747.269
552.954	403.098
553.006	263.011
553.058	191.481
553.11	169.678
553.162	139.028
553.215	124.168
553.267	113.401
553.319	111.686
553.371	94.9767
553.423	87.6574
553.475	83.1973
553.528	91.4689
553.58	86.0209
553.632	72.7516
553.684	68.4263
553.736	73.6268
553.788	77.4378
553.841	68.3321
553.893	70.5628
553.945	73.8022
553.997	73.6119
554.049	68.702
554.102	66.0648
554.154	72.4044
554.206	66.6939
554.258	63.7921
554.31	67.5041
554.362	71.7301
554.414	66.9721
554.467	60.0561
554.519	66.1374
554.571	65.1994
554.623	65.8784
554.675	65.8022
554.727	64.7743
554.78	67.8249
554.832	66.8147
554.884	66.2113
554.936	60.1323
554.988	61.1136
555.04	67.0832
555.093	57.4656
555.145	62.4606
555.197	69.3742
555.249	60.2532
555.301	61.9682
555.353	55.7159
555.406	58.2604
555.458	64.0865
555.51	64.8419
555.562	63.0379
555.614	67.3672
555.666	63.9178
555.719	60.2816
555.771	61.3265
555.823	62.9995
555.875	67.7653
555.927	54.214
555.979	66.0331
556.031	68.4306
556.084	67.144
556.136	60.6458
556.188	66.3195
556.24	60.5486
556.292	67.2339
556.344	59.2695
556.396	65.3594
556.449	65.8412
556.501	64.1906
556.553	61.1811
556.605	68.9436
556.657	68.5379
556.709	66.4997
556.762	63.6434
556.814	71.1768
556.866	70.5635
556.918	65.8813
556.97	63.2062
557.022	69.3443
557.074	69.1354
557.127	75.9075
557.179	68.2979
557.231	66.5803
557.283	67.7372
557.335	73.1953
557.387	65.5847
557.439	67.222
557.492	68.0708
557.544	70.6885
557.596	64.1545
557.648	70.3117
557.7	66.718
557.752	69.5638
557.804	68.601
557.856	73.2943
557.909	65.4633
557.961	70.2306
558.013	66.2899
558.065	71.9849
558.117	74.5107
558.169	64.9032
558.221	65.2412
558.273	73.1154
558.326	71.1341
558.378	71.545
558.43	71.3222
558.482	68.214
558.534	67.7281
558.586	73.5652
558.638	67.1334
558.691	65.674
558.743	70.6521
558.795	72.0128
558.847	73.9849
558.899	71.3412
558.951	75.294
559.003	68.0435
559.055	76.2057
559.108	75.5123
559.16	76.9704
559.212	79.6659
559.264	70.364
559.316	71.2584
559.368	80.782
559.42	78.7364
559.472	69.2595
559.525	72.3662
559.577	78.6012
559.629	74.893
559.681	68.8952
559.733	70.2212
559.785	78.7827
559.837	75.2661
559.889	75.6832
559.941	77.1268
559.994	72.134
560.046	79.7169
560.098	73.3658
560.15	75.7802
560.202	77.7326
560.254	77.0462
560.306	72.4208
560.358	72.0393
560.41	76.6238
560.463	77.8271
560.515	71.2409
560.567	69.9988
560.619	82.0839
560.671	73.158
560.723	77.0885
560.775	79.0719
560.827	81.384
560.879	78.5459
560.932	73.661
560.984	74.682
561.036	80.9056
561.088	75.9415
561.14	75.2949
561.192	81.3551
561.244	78.9642
561.296	86.5516
561.348	85.1019
561.4	80.8782
561.453	77.8528
561.505	76.0658
561.557	77.0899
561.609	82.1566
561.661	84.7097
561.713	77.5177
561.765	86.7819
561.817	75.4759
561.869	82.1633
561.921	82.2816
561.974	84.2189
562.026	86.7815
562.078	78.6974
562.13	81.3998
562.182	86.194
562.234	84.4964
562.286	90.7755
562.338	83.174
562.39	82.8608
562.442	81.6226
562.494	86.6757
562.547	82.6332
562.599	88.7573
562.651	80.3311
562.703	88.6691
562.755	80.7169
562.807	85.6078
562.859	83.5603
562.911	79.0587
562.963	88.8371
563.015	91.8424
563.067	84.9416
563.12	91.7046
563.172	89.7666
563.224	83.6504
563.276	92.2896
563.328	94.0385
563.38	89.7763
563.432	87.3344
563.484	87.9148
563.536	97.7207
563.588	90.2302
563.64	89.8725
563.692	93.2049
563.744	94.8773
563.797	87.5445
563.849	96.8268
563.901	90.7126
563.953	97.0531
564.005	93.8745
564.057	92.6585
564.109	91.221
564.161	95.8948
564.213	91.2965
564.265	98.0506
564.317	91.68
564.369	96.5828
564.421	98.6731
564.474	90.1824
564.526	95.8396
564.578	92.7412
564.63	95.0322
564.682	95.0738
564.734	94.254
564.786	97.2559
564.838	96.8901
564.89	97.3093
564.942	101.365
564.994	100.545
565.046	104.75
565.098	103.631
565.15	100.595
565.202	95.7033
565.255	97.5068
565.307	96.1282
565.359	99.9583
565.411	107.556
565.463	105.072
565.515	101.428
565.567	102.05
565.619	95.3385
565.671	95.5819
565.723	99.5532
565.775	102.259
565.827	103.685
565.879	103.865
565.931	104.551
565.983	98.532
566.035	105.82
566.087	105.068
566.139	105.745
566.192	103.483
566.244	106.956
566.296	104.86
566.348	109.039
566.4	108
566.452	103.985
566.504	107.888
566.556	108.114
566.608	113.095
566.66	114.649
566.712	111.57
566.764	111.309
566.816	107.907
566.868	104.662
566.92	108.344
566.972	105.811
567.024	111.201
567.076	109.032
567.128	107.545
567.18	109.033
567.232	106.115
567.285	110.093
567.337	102.242
567.389	100.245
567.441	111.336
567.493	109.023
567.545	111.917
567.597	111.304
567.649	108.356
567.701	112.716
567.753	112.293
567.805	114.358
567.857	116.315
567.909	105.67
567.961	109.998
568.013	114.993
568.065	112.391
568.117	111.253
568.169	110.597
568.221	111.487
568.273	112.806
568.325	116.142
568.377	113.872
568.429	113.819
568.481	121.013
568.533	125.038
568.585	121.795
568.637	114.689
568.69	120.984
568.742	120.381
568.794	117.237
568.846	126.129
568.898	122.644
568.95	120.847
569.002	126.707
569.054	126.059
569.106	129.06
569.158	125.354
569.21	120.538
569.262	124.241
569.314	127.666
569.366	128.55
569.418	126.897
569.47	122.344
569.522	126.935
569.574	127.604
569.626	128.008
569.678	134.964
569.73	132.113
569.782	124.675
569.834	128.678
569.886	125.572
569.938	128.748
569.99	127.323
570.042	131.328
570.094	134.033
570.146	134.767
570.198	132.275
570.25	134.736
570.302	141.794
570.354	144.72
570.406	136.983
570.458	129.556
570.51	130.324
570.562	137.047
570.614	135.18
570.666	132.714
570.718	127.736
570.77	134.907
570.822	141.889
570.874	139.086
570.926	143.439
570.978	142.276
571.03	137.28
571.082	143.832
571.134	140.861
571.186	145.258
571.238	142.521
571.29	142.672
571.342	150.006
571.394	157.697
571.446	154.757
571.498	152.839
571.55	152.973
571.602	156.797
571.654	152.604
571.706	155.751
571.758	161.868
571.81	168.521
571.862	160.759
571.914	163.228
571.966	168.002
572.018	176.754
572.07	171.451
572.122	172.924
572.174	176.51
572.226	174.308
572.278	171.573
572.33	177.316
572.382	176.719
572.434	178.894
572.486	173.32
572.538	177.055
572.59	181.825
572.642	183.465
572.694	188.852
572.746	186.041
572.798	191.168
572.85	204.151
572.902	208.095
572.954	204.544
573.006	203.578
573.058	198.018
573.11	195.694
573.162	199.765
573.214	220.194
573.266	217.199
573.302	220.006
573.355	212.154
573.407	230.004
573.459	229.96
573.511	235.883
573.563	220.091
573.615	239.765
573.667	232.08
573.719	247.811
573.772	251.598
573.824	243.926
573.876	228.502
573.928	246.255
573.98	259.758
574.032	261.645
574.084	263.963
574.136	271.893
574.188	266.374
574.241	284.041
574.293	287.301
574.345	289.019
574.397	282.436
574.449	282.78
574.501	282.922
574.553	319.389
574.605	289.216
574.657	304.306
574.71	309.532
574.762	330.666
574.814	312.59
574.866	337.6
574.918	332.081
574.97	311.348
575.022	337.826
575.074	341.935
575.126	329.145
575.178	336.631
575.231	332.756
575.283	353.634
575.335	354.991
575.387	343.333
575.439	323.889
575.491	348.088
575.543	350.167
575.595	334.987
575.647	346.321
575.7	351.537
575.752	350.978
575.804	355.182
575.856	349.574
575.908	343.763
575.96	347.056
576.012	346.475
576.064	344.826
576.116	344.219
576.168	344.083
576.22	332.457
576.273	324.828
576.325	329.769
576.377	335.18
576.429	337.705
576.481	318.347
576.533	319.003
576.585	306.674
576.637	312.678
576.689	316.5
576.741	315.134
576.793	295.124
576.846	288.023
576.898	294.472
576.95	290.859
577.002	298.283
577.054	281.674
577.106	299.445
577.158	287.206
577.21	286.168
577.262	276.669
577.314	283.915
577.366	258.917
577.418	260.228
577.471	265.541
577.523	268.695
577.575	275.359
577.627	273.779
577.679	270.766
577.731	260.55
577.783	261.547
577.835	261.401
577.887	254.007
577.939	251.551
577.991	247.438
578.043	257.2
578.095	246.372
578.148	240.869
578.2	246.741
578.252	247.79
578.304	248.136
578.356	253.808
578.408	248.804
578.46	256.143
578.512	238.047
578.564	247.448
578.616	242.367
578.668	233.905
578.72	226.924
578.772	234.42
578.824	237.704
578.877	259.077
578.929	237.149
578.981	227.071
579.033	241.803
579.085	243.34
579.137	225.979
579.189	229.225
579.241	244.055
579.293	239.869
579.345	228.831
579.397	236.024
579.449	246.493
579.501	237.871
579.553	217.742
579.605	234.482
579.658	224.112
579.71	236.664
579.762	242.412
579.814	234.764
579.866	245.342
579.918	241.591
579.97	227.611
580.022	247.027
580.074	243.172
580.126	231.111
580.178	239.819
580.23	235.894
580.282	235.824
580.334	251.16
580.386	235.442
580.438	234.758
580.49	230.477
580.542	241.139
580.595	235.017
580.647	241.26
580.699	236.008
580.751	247.211
580.803	231.427
580.855	243.039
580.907	245.891
580.959	232.976
581.011	241.145
581.063	240.94
581.115	249.589
581.167	246.044
581.219	241.756
581.271	243.573
581.323	245.852
581.375	246.154
581.427	245.232
581.479	253.431
581.531	250.705
581.583	238.639
581.635	248.959
581.688	246.368
581.74	251.987
581.792	247.664
581.844	243.183
581.896	251.059
581.948	257.92
582	248.709
582.052	260.666
582.104	255.606
582.156	260.884
582.208	247.205
582.26	263.692
582.312	252.855
582.364	259.037
582.416	257.29
582.468	245.105
582.52	270.897
582.572	263.893
582.624	245.688
582.676	263.481
582.728	261.676
582.78	268.321
582.832	258.588
582.884	265.817
582.936	257.657
582.988	267.138
583.04	276.896
583.092	264.532
583.144	266.876
583.196	271.99
583.249	262.148
583.301	264.477
583.353	272.711
583.405	275.605
583.457	273.307
583.509	275.351
583.561	273.107
583.613	270.569
583.665	266.374
583.717	281.883
583.769	279.411
583.821	277.662
583.873	280.052
583.925	283.224
583.977	272.553
584.029	283.147
584.081	280.197
584.133	278.711
584.185	282.826
584.237	290.013
584.289	280.883
584.341	281.577
584.393	295.032
584.445	278.85
584.497	278.431
584.549	297.6
584.601	293.956
584.653	288.716
584.705	288.75
584.757	301.058
584.809	300.716
584.861	298.72
584.913	301.439
584.965	304.769
585.017	294.828
585.069	312.14
585.121	301.749
585.173	299.048
585.225	305.101
585.277	294.524
585.329	311.085
585.381	302.077
585.433	322.716
585.485	312.847
585.537	317.657
585.589	312.215
585.641	324.667
585.693	307.061
585.745	320.216
585.797	319.771
585.849	324.313
585.901	304.712
585.953	319.287
586.005	309.838
586.057	303.293
586.109	310.767
586.161	323.897
586.213	321.43
586.265	318.106
586.317	314.257
586.369	315.652
586.421	319.141
586.473	328.66
586.525	321.238
586.577	339.611
586.629	324.462
586.681	324.94
586.733	324.089
586.785	341.211
586.837	331.4
586.889	331.096
586.941	330.398
586.993	338.126
587.045	328.345
587.097	336.75
587.149	319.637
587.201	335.393
587.253	329.057
587.305	328.977
587.357	351.866
587.409	331.932
587.461	339.818
587.513	346.924
587.565	330.095
587.617	344.904
587.669	334.666
587.721	341.691
587.773	345.245
587.825	343.711
587.877	336.031
587.929	335.473
587.981	326.886
588.033	343.197
588.085	338.249
588.137	341.863
588.189	330.07
588.241	338.138
588.293	345.05
588.345	336.968
588.397	350.718
588.449	336.879
588.501	349.846
588.552	344.469
588.604	341.255
588.656	348.2
588.708	351.502
588.76	345.841
588.812	345.416
588.864	345.3
588.916	348.801
588.968	350.837
589.02	353.411
589.072	354.447
589.124	360.22
589.176	348.545
589.228	360.831
589.28	360.177
589.332	362.297
589.384	364.728
589.436	361.012
589.488	365.953
589.54	370.841
589.592	356.113
589.644	361.315
589.696	355.287
589.748	372.639
589.8	373.569
589.852	367.455
589.904	362.556
589.956	369.056
590.008	367.179
590.06	354.005
590.112	350.233
590.163	353.525
590.215	355.35
590.267	368.378
590.319	364.839
590.371	360.726
590.423	353.345
590.475	354.349
590.527	353.146
590.579	352.316
590.631	352.821
590.683	353.923
590.735	362.763
590.787	356.584
590.839	344.643
590.891	363.417
590.943	358.962
590.995	353.981
591.047	345.962
591.099	342.273
591.151	344.305
591.203	359.604
591.254	353.282
591.306	340.247
591.358	344.444
591.41	345.364
591.462	343.5
591.514	343.124
591.566	338.817
591.618	359.88
591.67	349.333
591.722	340.63
591.774	346.718
591.826	348.269
591.878	338.213
591.93	336.85
591.982	336.894
592.034	343.6
592.086	332.594
592.137	335.986
592.189	344.528
592.241	341.845
592.293	329.562
592.345	328.309
592.397	329.479
592.449	329.975
592.501	336.085
592.553	344.168
592.605	331.451
592.657	351.07
592.709	336.552
592.761	325.498
592.813	337.142
592.865	335.914
592.916	329.193
592.968	328.394
593.02	332.92
593.072	337.293
593.124	340.744
593.176	340.747
593.228	338.313
593.28	334.285
593.332	337.502
593.384	331.341
593.436	333.753
593.488	327.909
593.54	330.014
593.591	333.888
593.643	337.323
593.695	339.147
593.747	344
593.799	333.077
593.851	338.763
593.903	333.438
593.955	336.401
594.007	338.564
594.059	340.158
594.111	340.22
594.163	348.328
594.215	346.938
594.266	336.091
594.318	340.377
594.37	342.283
594.422	339.018
594.474	349.05
594.526	341.817
594.578	348.018
594.63	345.345
594.682	342.041
594.734	350.33
594.786	354.866
594.837	344.916
594.889	339.801
594.941	339.47
594.993	342.849
595.045	351.473
595.097	347.252
595.149	348.252
595.201	351.994
595.253	350.976
595.305	336.2
595.357	341.765
595.408	352.803
595.46	355.811
595.512	346.254
595.564	336.854
595.616	343.144
595.668	344.556
595.72	354.829
595.772	350.355
595.824	352.594
595.876	354.768
595.927	347.721
595.979	348.294
596.031	354.851
596.083	358.632
596.135	357.722
596.187	354.036
596.239	356.088
596.291	363.691
596.343	368.961
596.394	362.907
596.446	352.6
596.498	356.483
596.55	364.245
596.602	370.533
596.654	363.413
596.706	364.091
596.758	368.725
596.81	363.001
596.862	364.953
596.913	362.159
596.965	357.177
597.017	356.495
597.069	365.374
597.121	365.2
597.173	368.192
597.225	366.319
597.277	351.693
597.328	350.962
597.38	358.803
597.432	355.732
597.484	357.274
597.536	361.66
597.588	356.455
597.64	350.502
597.692	363.06
597.744	365.928
597.795	354.984
597.847	360.238
597.899	360.818
597.951	346.79
598.003	354.313
598.055	365.258
598.107	368
598.159	365.191
598.21	348.781
598.262	344.556
598.314	366.398
598.366	362.499
598.418	351.565
598.47	359.704
598.522	372.133
598.574	356.699
598.625	368.076
598.677	357.322
598.729	358.761
598.781	365.974
598.833	382.744
598.885	375.521
598.937	376.185
598.988	375.319
599.04	364.004
599.092	360.346
599.144	367.147
599.196	364.872
599.248	355.452
599.3	352.729
599.352	370.526
599.403	366.208
599.455	367.409
599.507	366.556
599.559	372.157
599.611	358.411
599.663	353.342
599.715	370.59
599.766	371.389
599.803	370.004
599.855	378.002
599.907	365.996
599.959	393.756
600.011	368.123
600.063	391.874
600.115	369.92
600.167	376.095
600.219	391.915
600.271	368.083
600.323	373.614
600.375	364.125
600.427	379.651
600.479	352.903
600.531	381.452
600.583	389.498
600.635	378.44
600.686	390.81
600.738	364.438
600.79	383.73
600.842	377.247
600.894	374.187
600.946	376.808
600.998	377.502
601.05	363.381
601.102	375.939
601.154	348.317
601.206	379.037
601.258	367.781
601.31	369.801
601.362	359.406
601.414	375.638
601.466	392.734
601.518	387.188
601.57	361.868
601.622	360.165
601.674	370.724
601.726	375.006
601.778	392.356
601.83	383.852
601.882	395.363
601.934	363.61
601.986	362.338
602.038	370.683
602.09	391.65
602.142	394.979
602.194	388.001
602.246	365.479
602.298	376.943
602.35	384.276
602.402	356.552
602.454	394.986
602.506	389.971
602.558	386.943
602.61	361.199
602.662	387.494
602.714	358.875
602.766	395.11
602.818	382.19
602.87	371.627
602.922	378.023
602.974	383.603
603.026	385.341
603.078	373.23
603.13	393.936
603.182	361.139
603.234	383.74
603.285	374.303
603.337	388.171
603.389	378.343
603.441	381.301
603.493	381.396
603.545	393.728
603.597	374.931
603.649	383.672
603.701	389.317
603.753	409.94
603.805	392.499
603.857	390.625
603.909	388.792
603.961	391.734
604.013	356.074
604.065	383.263
604.117	384.798
604.169	413.661
604.221	386.846
604.273	396.956
604.325	362.152
604.377	403.397
604.429	384.872
604.481	401.805
604.533	386.718
604.584	376.771
604.636	382.081
604.688	389.015
604.74	374.062
604.792	379.975
604.844	378.234
604.896	393.787
604.948	384.325
605	376.297
605.052	384.679
605.104	388.253
605.156	397.739
605.208	395.699
605.26	388.682
605.312	399.917
605.364	384.081
605.416	394.867
605.468	388.917
605.52	383.42
605.572	389.114
605.623	404.11
605.675	406.481
605.727	392.501
605.779	389.367
605.831	391.928
605.883	376.59
605.935	405.059
605.987	396.86
606.039	384.002
606.091	394.818
606.143	395.357
606.195	387.93
606.247	409.224
606.299	388.213
606.351	392.944
606.403	394.59
606.455	376.798
606.506	391.905
606.558	398.697
606.61	383.798
606.662	409.617
606.714	381.759
606.766	396.323
606.818	399.334
606.87	407.288
606.922	384.592
606.974	385.955
607.026	390.341
607.078	393.686
607.13	387.464
607.182	384.777
607.234	396.512
607.285	404.767
607.337	408.294
607.389	391.789
607.441	403.749
607.493	388.622
607.545	396.456
607.597	391.249
607.649	403.832
607.701	396.714
607.753	403.323
607.805	390.256
607.857	405.597
607.909	381.259
607.96	376.289
608.012	401.656
608.064	405.528
608.116	398.445
608.168	401.364
608.22	409.798
608.272	395.832
608.324	397.213
608.376	393.585
608.428	412.08
608.48	410.369
608.532	394.786
608.583	394.869
608.635	404.875
608.687	401.531
608.739	406.797
608.791	400.14
608.843	406.363
608.895	420.033
608.947	398.88
608.999	410.442
609.051	393.119
609.103	392.864
609.155	410.701
609.206	396.997
609.258	407.564
609.31	408.896
609.362	409.056
609.414	411.186
609.466	408.571
609.518	408.118
609.57	397.713
609.622	397.349
609.674	399.507
609.725	407.996
609.777	408.505
609.829	408.744
609.881	415.949
609.933	417.199
609.985	420.287
610.037	403.718
610.089	403.114
610.141	417.862
610.193	407.338
610.245	423.06
610.296	421.414
610.348	411.516
610.4	407.201
610.452	420.512
610.504	422.101
610.556	423.176
610.608	415.146
610.66	422.579
610.712	426.452
610.763	417.64
610.815	422.165
610.867	414.532
610.919	425.021
610.971	428.169
611.023	421.458
611.075	427.114
611.127	434.353
611.179	441.195
611.23	415.723
611.282	416.758
611.334	416.032
611.386	418.246
611.438	428.019
611.49	418.681
611.542	421.564
611.594	416.564
611.646	424.711
611.697	414.112
611.749	432.398
611.801	435.256
611.853	419.13
611.905	430.512
611.957	443.54
612.009	437.231
612.061	429.311
612.113	435.804
612.164	434.916
612.216	434.322
612.268	440.578
612.32	439.225
612.372	437.377
612.424	416.593
612.476	436.054
612.528	445.218
612.579	450.751
612.631	438.554
612.683	435.264
612.735	433.693
612.787	429.647
612.839	436.589
612.891	449.672
612.943	456.117
612.994	446.012
613.046	442.947
613.098	448.539
613.15	441.465
613.202	431.529
613.254	452.351
613.306	453.796
613.357	452.271
613.409	448.325
613.461	441.632
613.513	445.031
613.565	445.172
613.617	448.836
613.669	443.229
613.721	448.495
613.772	432.637
613.824	436.339
613.876	447.619
613.928	445.367
613.98	451.424
614.032	457.517
614.084	448.036
614.135	458.71
614.187	457.595
614.239	454.048
614.291	466.998
614.343	456.14
614.395	450.291
614.447	453.18
614.498	460.692
614.55	463.638
614.602	483.874
614.654	481.025
614.706	463.568
614.758	473.392
614.81	463.06
614.861	474.133
614.913	466.492
614.965	472.41
615.017	483.382
615.069	462.477
615.121	471.137
615.172	471.942
615.224	469.38
615.276	476.294
615.328	475.25
615.38	478.251
615.432	490.729
615.484	480.138
615.535	473.454
615.587	473.007
615.639	473.165
615.691	474.635
615.743	476.268
615.795	464.367
615.846	470.445
615.898	484.106
615.95	493.642
616.002	491.682
616.054	489.791
616.106	497.422
616.158	487.477
616.209	475.937
616.261	468.856
616.313	493.975
616.365	486.791
616.417	484.949
616.469	498.137
616.52	490.628
616.572	497.756
616.624	482.178
616.676	492.044
616.728	495.293
616.78	486.008
616.831	498.53
616.883	512.799
616.935	502.88
616.987	495.038
617.039	490.743
617.091	504.511
617.142	492.528
617.194	513.384
617.246	505.903
617.298	504.427
617.35	514.177
617.401	503.766
617.453	514.263
617.505	520.427
617.557	507.412
617.609	502.676
617.661	512.616
617.712	509.292
617.764	502.029
617.816	514.553
617.868	511.988
617.92	528.295
617.972	514.483
618.023	527.135
618.075	521.035
618.127	520.734
618.179	516.568
618.231	526.865
618.282	530.327
618.334	521.445
618.386	513.101
618.438	516.784
618.49	519.066
618.542	541.08
618.593	532.067
618.645	532.964
618.697	529.087
618.749	541.23
618.801	549.357
618.852	533.588
618.904	522.603
618.956	545.212
619.008	519.087
619.06	543.293
619.111	539.22
619.163	546.24
619.215	546.182
619.267	539.867
619.319	543.486
619.37	551.96
619.422	553.967
619.474	535.083
619.526	552.418
619.578	539.015
619.63	548.093
619.681	534.471
619.733	555.75
619.785	551.781
619.837	537.659
619.888	536.39
619.94	552.708
619.992	546.168
620.044	537.396
620.096	533.426
620.147	539.356
620.199	543.791
620.251	545.853
620.303	548.536
620.355	557.365
620.406	557.693
620.458	537.551
620.51	555.762
620.562	571.07
620.614	550.107
620.665	540.209
620.717	544.967
620.769	550.066
620.821	566.336
620.873	566.82
620.924	586.513
620.976	564.644
621.028	564.547
621.08	552.994
621.132	552.332
621.183	553.961
621.235	564.232
621.287	564.132
621.339	564.65
621.39	564.894
621.442	581.91
621.494	564.252
621.546	575.7
621.598	560.802
621.649	585.991
621.701	573.131
621.753	567.392
621.805	583.898
621.856	583.111
621.908	570.111
621.96	566.42
622.012	577.452
622.064	575.106
622.115	569.986
622.167	575.868
622.219	583.105
622.271	580.558
622.322	569.32
622.374	583.417
622.426	549.308
622.478	586.49
622.53	589.688
622.581	581.321
622.633	571.428
622.685	563.159
622.737	558.429
622.788	560.763
622.84	599.753
622.892	572.481
622.944	581.437
622.995	594.987
623.047	588.559
623.099	564.41
623.151	558.647
623.203	562.254
623.254	589.236
623.306	587.553
623.358	583.392
623.41	597.384
623.461	573.22
623.513	589.468
623.565	584.991
623.617	582.285
623.668	573.831
623.72	559.152
623.772	586.956
623.824	570.726
623.875	584.172
623.927	564.482
623.979	575.994
624.031	582.624
624.082	582.85
624.134	583.826
624.186	579.21
624.238	575.842
624.289	590.686
624.341	589.828
624.393	588.499
624.445	597.246
624.496	621.864
624.548	584.157
624.6	599.669
624.652	588.637
624.703	586.396
624.755	582.667
624.807	588.443
624.859	602.985
624.91	615.173
624.962	593.356
625.014	588.582
625.066	586.286
625.117	606.83
625.169	606.137
625.221	621.044
625.273	583.976
625.324	581.866
625.376	596.132
625.428	581.184
625.48	606.34
625.531	575.927
625.583	600.312
625.635	598.552
625.687	601.872
625.738	580.068
625.79	601.962
625.842	602.554
625.893	602.365
625.945	587.37
625.997	599.624
626.049	617.47
626.1	621.762
626.152	623.78
626.204	613.895
626.256	597.008
626.307	608.932
626.316	611.882
626.368	613.903
626.42	587.916
626.472	617.76
626.523	627.595
626.575	633.673
626.627	623.673
626.679	614.138
626.731	610.127
626.783	631.728
626.835	622.419
626.887	596.45
626.938	632.893
626.99	623.441
627.042	613.927
627.094	618.637
627.146	625.681
627.198	622.491
627.25	606.518
627.302	627.976
627.353	601.061
627.405	641.349
627.457	638.804
627.509	614.927
627.561	644.614
627.613	625.969
627.665	634.006
627.716	622.64
627.768	596.952
627.82	623.746
627.872	620.061
627.924	625.479
627.976	617.237
628.028	621.959
628.079	610.968
628.131	625.322
628.183	641.967
628.235	637.957
628.287	627.669
628.339	627.806
628.391	644.198
628.443	645.499
628.494	616.733
628.546	659.325
628.598	649.368
628.65	666.544
628.702	625.589
628.754	638.637
628.805	623.943
628.857	657.744
628.909	645.387
628.961	644.47
629.013	653.297
629.065	651.326
629.117	651.041
629.168	657.428
629.22	661.688
629.272	645.537
629.324	640.592
629.376	665.049
629.428	662.018
629.479	676.178
629.531	661.016
629.583	660.511
629.635	678.513
629.687	659.695
629.739	688.087
629.791	670.335
629.842	664.41
629.894	664.556
629.946	662.379
629.998	663.056
630.05	656.994
630.102	651.725
630.153	682.693
630.205	660.683
630.257	690.038
630.309	679.574
630.361	671.674
630.413	651.318
630.464	669.949
630.516	694.319
630.568	648.826
630.62	684.801
630.672	667.391
630.724	683.108
630.776	698.835
630.827	695.469
630.879	676.93
630.931	692.624
630.983	706.698
631.035	700.359
631.086	666.865
631.138	666.826
631.19	679.372
631.242	704.851
631.294	700.888
631.346	676.277
631.397	699.997
631.449	688.515
631.501	703.24
631.553	688.733
631.605	681.321
631.657	700.668
631.708	711.955
631.76	703.851
631.812	710.267
631.864	689.829
631.916	719.102
631.967	691.256
632.019	715.623
632.071	721.817
632.123	699.57
632.175	688.44
632.227	710.815
632.278	726.862
632.33	695.22
632.382	717.067
632.434	727.407
632.486	736.578
632.537	725.162
632.589	719.313
632.641	722.649
632.693	730.104
632.745	731.768
632.797	736.887
632.848	739.872
632.9	729.355
632.952	736.779
633.004	736.12
633.056	742.563
633.107	745.889
633.159	724.31
633.211	738.211
633.263	753.414
633.315	739.167
633.366	757.68
633.418	776.386
633.47	741.814
633.522	737.081
633.574	774.183
633.625	745.395
633.677	751.935
633.729	744.376
633.781	755.087
633.833	745.511
633.885	773.63
633.936	750.526
633.988	768.267
634.04	771.578
634.092	776.34
634.143	780.707
634.195	778.366
634.247	786.303
634.299	784.044
634.351	767.366
634.403	805.646
634.454	795.151
634.506	809.317
634.558	796.104
634.61	806.852
634.661	823.866
634.713	804.436
634.765	813.128
634.817	804.124
634.869	806.975
634.92	821.647
634.972	835.514
635.024	826.419
635.076	838.911
635.128	849.261
635.179	836.745
635.231	867.812
635.283	846.56
635.335	859.089
635.387	850.688
635.438	853.436
635.49	858.831
635.542	879.075
635.594	891.214
635.645	894.046
635.697	889.745
635.749	898.227
635.801	917.514
635.853	908.497
635.904	910.46
635.956	926.286
636.008	928.749
636.06	953.358
636.112	930.436
636.163	953.508
636.215	994.891
636.267	997.119
636.319	971.741
636.37	999.379
636.422	1019.92
636.474	1028.74
636.526	1009.19
636.577	1031.83
636.629	1043.39
636.681	1066.1
636.733	1075.62
636.785	1073.68
636.836	1084.58
636.888	1100.72
636.94	1113.15
636.992	1100.5
637.043	1120.99
637.095	1106.8
637.147	1142.67
637.199	1135.98
637.25	1147.54
637.302	1148.89
637.354	1155.7
637.406	1161.3
637.458	1161.88
637.509	1166.58
637.561	1142.49
637.613	1165.76
637.665	1175.56
637.716	1182.44
637.768	1191.03
637.82	1189.86
637.872	1173.8
637.923	1190.78
637.975	1154.51
638.027	1162.62
638.079	1168.4
638.13	1174
638.182	1154.69
638.234	1160.6
638.286	1160.63
638.337	1152.57
638.389	1151.37
638.441	1146.64
638.493	1135.04
638.544	1122.83
638.596	1121.9
638.648	1127.6
638.7	1126.44
638.752	1105.65
638.803	1097.06
638.855	1106.58
638.907	1099.68
638.958	1067.44
639.01	1087.64
639.062	1069.41
639.114	1085.48
639.165	1065.63
639.217	1071.92
639.269	1076.03
639.321	1043.84
639.372	1047.22
639.424	1053.02
639.476	1017.02
639.528	1035.99
639.579	1015.38
639.631	1023.48
639.683	1022.78
639.735	1031.42
639.786	1031.28
639.838	1031.01
639.89	1011.58
639.942	1024.02
639.993	1013.26
640.045	1001.72
640.097	990.075
640.149	998.301
640.2	1000.62
640.252	993.472
640.304	1000.94
640.356	985.786
640.407	1017
640.459	1005.01
640.511	1003.36
640.562	997.897
640.614	981.9
640.666	1000.59
640.718	998.528
640.769	980.856
640.821	998.587
640.873	991.362
640.925	990.679
640.976	983.151
641.028	993.62
641.08	987.31
641.131	974.127
641.183	971.285
641.235	988.271
641.287	967.37
641.338	968.146
641.39	987.226
641.442	980.434
641.494	958.313
641.545	988.14
641.597	982.24
641.649	966.401
641.7	957.231
641.752	985.334
641.804	977.458
641.856	973.586
641.907	977.454
641.959	977.963
642.011	975.576
642.063	972.383
642.114	977.381
642.166	976.464
642.218	988.867
642.269	970.244
642.321	972.163
642.373	986.918
642.424	987.664
642.476	978.536
642.528	986.774
642.58	965.668
642.631	954.358
642.683	983.18
642.735	961.425
642.786	980.973
642.838	970.317
642.89	970.721
642.942	971.986
642.993	985.008
643.045	979.847
643.097	987.748
643.148	986.632
643.2	992.759
643.252	995.919
643.304	983.285
643.355	1003.46
643.407	983.461
643.459	994.369
643.51	989.809
643.562	1001.41
643.614	1006.55
643.665	1000.84
643.717	977.576
643.769	990.96
643.82	1006.17
643.872	1010.9
643.924	997.148
643.976	997.216
644.027	980.875
644.079	999.421
644.131	982.099
644.182	1011.72
644.234	994.11
644.286	979.513
644.337	1001.07
644.389	991.591
644.441	1012.95
644.493	1026.07
644.544	1017.29
644.596	1018.51
644.648	1013.93
644.699	1002.41
644.751	996.047
644.803	1007.43
644.854	1012.63
644.906	1014.15
644.958	1000.28
645.009	1019.22
645.061	1021.04
645.113	1044.03
645.164	1023.66
645.216	1004.91
645.268	1024.09
645.32	1026.25
645.371	1009.76
645.423	1007.22
645.475	1030.05
645.526	1038.27
645.578	1014.01
645.63	1030.6
645.681	1054.07
645.733	1034.49
645.785	1041.25
645.836	1060.47
645.888	1044.27
645.94	1029.64
645.991	1013.14
646.043	1051.68
646.095	1037.06
646.146	1035.82
646.198	1011.65
646.25	1045.76
646.301	1053.61
646.353	1070.69
646.405	1043.32
646.456	1055.32
646.508	1061.49
646.56	1057.6
646.611	1055.07
646.663	1071.58
646.715	1059.95
646.766	1035.92
646.818	1052.65
646.87	1056.16
646.921	1045.76
646.973	1062.44
647.025	1056.01
647.076	1071.97
647.128	1066.61
647.18	1086.91
647.231	1068.72
647.283	1060
647.335	1066.02
647.386	1082.54
647.438	1062.49
647.49	1073.53
647.541	1080.82
647.593	1079.63
647.645	1067.41
647.696	1058.06
647.748	1086.38
647.8	1079.27
647.851	1076.71
647.903	1115.97
647.955	1075.24
648.006	1092.72
648.058	1088.2
648.109	1082.01
648.161	1085.34
648.213	1082.08
648.264	1072.81
648.316	1105.21
648.368	1098.3
648.419	1143.61
648.471	1104.85
648.523	1097.79
648.574	1105.57
648.626	1114.06
648.678	1114.35
648.729	1117.53
648.781	1103.73
648.833	1100.68
648.884	1118.36
648.936	1093.89
648.987	1096.68
649.039	1106.19
649.091	1113.84
649.142	1121.57
649.194	1078.31
649.246	1114.31
649.297	1094.34
649.349	1136.64
649.401	1118.93
649.452	1120.26
649.504	1130.38
649.555	1106.29
649.607	1119.95
649.659	1124.82
649.71	1148.1
649.762	1145.24
649.814	1146.55
649.865	1153.41
649.917	1154.9
649.969	1154.31
650.02	1166.61
650.072	1153.69
650.123	1174.9
650.175	1161.05
650.227	1166.03
650.278	1173.12
650.33	1178.56
650.382	1176.13
650.433	1148.93
650.485	1180.6
650.536	1166.7
650.588	1184.77
650.64	1175.32
650.691	1190.08
650.743	1176.76
650.795	1180.83
650.846	1198.16
650.898	1209.52
650.949	1175.75
651.001	1192.87
651.053	1202.46
651.104	1174.65
651.156	1199.39
651.208	1185.79
651.259	1183.95
651.311	1191.88
651.362	1182.52
651.414	1210.06
651.466	1210.39
651.517	1193.48
651.569	1183.46
651.62	1159.9
651.672	1174.49
651.724	1188.25
651.775	1182.52
651.827	1175.04
651.878	1197.14
651.93	1217.88
651.982	1214.68
652.033	1238.71
652.085	1244.74
652.137	1215.39
652.188	1217.38
652.24	1219.41
652.291	1243.37
652.343	1251.25
652.395	1262.37
652.446	1245.4
652.498	1224.86
652.549	1214.89
652.601	1213.52
652.653	1234.72
652.704	1226.34
652.756	1257.62
652.772	1275.94
652.824	1275.84
652.876	1260.13
652.927	1234.48
652.979	1291.84
653.031	1270.24
653.083	1273.59
653.134	1260.31
653.186	1275.93
653.238	1264.5
653.29	1265.89
653.341	1282.55
653.393	1258.28
653.445	1272.21
653.497	1261.07
653.548	1261.35
653.6	1276.16
653.652	1311.76
653.704	1300.94
653.755	1285.99
653.807	1324.66
653.859	1299.95
653.91	1280.32
653.962	1306.76
654.014	1280.11
654.066	1278.12
654.117	1304.64
654.169	1267.41
654.221	1303.43
654.273	1316.44
654.324	1328.44
654.376	1318.69
654.428	1317.68
654.48	1323.48
654.531	1339.02
654.583	1332.36
654.635	1319.11
654.686	1356.59
654.738	1329.17
654.79	1357.29
654.842	1312.57
654.893	1332.36
654.945	1375.87
654.997	1364.43
655.049	1386.14
655.1	1342.18
655.152	1370.11
655.204	1348.54
655.255	1346.47
655.307	1359.96
655.359	1389.11
655.411	1381.68
655.462	1378.97
655.514	1363.12
655.566	1369.94
655.618	1419.26
655.669	1391.15
655.721	1389.39
655.773	1389.28
655.824	1421.29
655.876	1397.23
655.928	1410.91
655.98	1379.72
656.031	1428.09
656.083	1411.89
656.135	1420.78
656.186	1422.06
656.238	1449.11
656.29	1442.82
656.342	1422.73
656.393	1462.76
656.445	1450.65
656.497	1464.83
656.548	1466.94
656.6	1454.38
656.652	1409.51
656.704	1484.43
656.755	1435.51
656.807	1477.17
656.859	1455.91
656.91	1444.44
656.962	1479.46
657.014	1460.69
657.065	1509.06
657.117	1482.25
657.169	1473.95
657.221	1494.38
657.272	1485.8
657.324	1494.98
657.376	1467.4
657.427	1506.31
657.479	1467.28
657.531	1503.94
657.583	1481.27
657.634	1509.53
657.686	1496.92
657.738	1494.19
657.789	1474.68
657.841	1534.17
657.893	1551.03
657.944	1536.18
657.996	1517.75
658.048	1489.21
658.099	1533.39
658.151	1526.09
658.203	1514.13
658.255	1556.26
658.306	1526.7
658.358	1526.32
658.41	1560.9
658.461	1549.28
658.513	1518.08
658.565	1519.63
658.616	1485.98
658.668	1559.15
658.72	1520.83
658.771	1520.72
658.823	1548.45
658.875	1538.77
658.927	1565.35
658.978	1551.42
659.03	1552.61
659.082	1528.17
659.133	1543.73
659.185	1549.23
659.237	1574.78
659.288	1559.51
659.34	1544.98
659.392	1574.75
659.443	1541.79
659.495	1578.93
659.547	1573.88
659.598	1553.66
659.65	1537.68
659.702	1549.07
659.753	1544.41
659.805	1540.86
659.857	1537.81
659.909	1562.34
659.96	1557.08
660.012	1577.38
660.064	1555.23
660.115	1580.33
660.167	1557.77
660.219	1559.14
660.27	1544.48
660.322	1563.59
660.374	1564.08
660.425	1554.09
660.477	1534.88
660.529	1567.95
660.58	1548.47
660.632	1539.93
660.684	1544.43
660.735	1582.26
660.787	1523.55
660.839	1554.64
660.89	1534.78
660.942	1531.27
660.994	1566.7
661.045	1552.7
661.097	1546.73
661.149	1528.35
661.2	1548.96
661.252	1539.49
661.304	1552.87
661.355	1562.1
661.407	1547.29
661.459	1551.86
661.51	1572.3
661.562	1563.71
661.614	1570.16
661.665	1574.11
661.717	1571.62
661.768	1545.88
661.82	1562.94
661.872	1570.74
661.923	1558.57
661.975	1563.65
662.027	1544.89
662.078	1581.42
662.13	1581.65
662.182	1576.83
662.233	1583.57
662.285	1548.46
662.337	1551.53
662.388	1539.57
662.44	1550.19
662.492	1554.7
662.543	1557.54
662.595	1571.24
662.647	1550.95
662.698	1514.53
662.75	1537.78
662.802	1539.81
662.853	1574.5
662.905	1555.04
662.956	1535.03
663.008	1556.65
663.06	1548.57
663.111	1532.89
663.163	1550.77
663.215	1536.66
663.266	1547.29
663.318	1569.13
663.37	1553.17
663.421	1548.61
663.473	1538.21
663.525	1555.48
663.576	1535.2
663.628	1562.99
663.679	1571.91
663.731	1551.3
663.783	1565.98
663.834	1578.78
663.886	1562.97
663.938	1557.98
663.989	1572.42
664.041	1561.23
664.093	1558.8
664.144	1532.09
664.196	1574.11
664.247	1563.59
664.299	1570.31
664.351	1537.32
664.402	1570.65
664.454	1570.78
664.506	1585.21
664.557	1563.7
664.609	1586.02
664.66	1554.35
664.712	1543.97
664.764	1547.79
664.815	1575.66
664.867	1578.53
664.919	1569.78
664.97	1558.82
665.022	1563.58
665.073	1557.49
665.125	1590.24
665.177	1558.31
665.228	1557.15
665.28	1551.34
665.332	1565.18
665.383	1567.73
665.435	1541.85
665.486	1581.18
665.538	1575.97
665.59	1556.04
665.641	1549.73
665.693	1542.61
665.745	1560.36
665.796	1555.99
665.848	1563.76
665.899	1570.18
665.951	1588.84
666.003	1558.25
666.054	1558.67
666.106	1565.3
666.157	1579.02
666.209	1556.53
666.261	1559.83
666.312	1558.82
666.364	1541.91
666.415	1564.61
666.467	1577.86
666.519	1552.41
666.57	1537.38
666.622	1556.07
666.673	1567.82
666.725	1551.92
666.777	1576.69
666.828	1548.8
666.88	1565.47
666.931	1569.55
666.983	1570.52
667.035	1562.7
667.086	1585.55
667.138	1547.89
667.189	1570.83
667.241	1562.74
667.293	1560.75
667.344	1571.08
667.396	1548.34
667.447	1564.94
667.499	1584.42
667.551	1559.62
667.602	1603.85
667.654	1564
667.705	1555.39
667.757	1542.25
667.809	1563.54
667.86	1545.67
667.912	1566.51
667.963	1556.16
668.015	1563.73
668.067	1590.85
668.118	1566.43
668.17	1561.63
668.221	1566.03
668.273	1555.91
668.325	1594.73
668.376	1567.02
668.428	1570.33
668.479	1551.24
668.531	1592.35
668.582	1597.54
668.634	1569.89
668.686	1587.77
668.737	1560.02
668.789	1578.67
668.84	1560.71
668.892	1572.24
668.944	1548.68
668.995	1594.01
669.047	1560.91
669.098	1541.11
669.15	1588.35
669.201	1569.29
669.253	1559.98
669.305	1566.18
669.356	1571.6
669.408	1555.23
669.459	1570.2
669.511	1597.23
669.562	1572.62
669.614	1551.2
669.666	1542.62
669.717	1557.02
669.769	1600.05
669.82	1598.58
669.872	1584.25
669.923	1540.95
669.975	1592.88
670.027	1599.85
670.078	1593.03
670.13	1562.6
670.181	1588.93
670.233	1563.35
670.284	1574.49
670.336	1560.53
670.388	1560.03
670.439	1567.72
670.491	1587.04
670.542	1550.94
670.594	1567.46
670.645	1564.2
670.697	1563.1
670.748	1597
670.8	1573.76
670.852	1580.25
670.903	1580.66
670.955	1560.56
671.006	1562.09
671.058	1576.29
671.109	1569.32
671.161	1602.83
671.212	1542.88
671.264	1577.1
671.316	1586.91
671.367	1585.4
671.419	1608.8
671.47	1584.45
671.522	1574.99
671.573	1580.78
671.625	1575.22
671.676	1572.03
671.728	1575.22
671.78	1595.49
671.831	1598.75
671.883	1609.34
671.934	1576.21
671.986	1582.4
672.037	1592.19
672.089	1583.91
672.14	1587.48
672.192	1580.02
672.243	1582.31
672.295	1600.06
672.347	1611.17
672.398	1601.89
672.45	1595.04
672.501	1606.34
672.553	1579.07
672.604	1608.42
672.656	1600.31
672.707	1626.71
672.759	1613.34
672.81	1586.29
672.862	1592.09
672.913	1627.04
672.965	1617.93
673.017	1596.47
673.068	1604.16
673.12	1596.61
673.171	1601.5
673.223	1614.66
673.274	1631.45
673.326	1658.95
673.377	1635.62
673.429	1633.28
673.48	1628.1
673.532	1625.12
673.583	1661.73
673.635	1645.03
673.686	1644.23
673.738	1642.42
673.789	1614.78
673.841	1621.98
673.893	1631.98
673.944	1646.72
673.996	1636.09
674.047	1660.58
674.099	1680.48
674.15	1673.47
674.202	1652.42
674.253	1600.67
674.305	1625.26
674.356	1631.34
674.408	1667.26
674.459	1684.59
674.511	1671.4
674.562	1677.79
674.614	1668.74
674.665	1673.91
674.717	1666.67
674.768	1667.8
674.82	1682.36
674.871	1686.84
674.923	1668.71
674.974	1664.84
675.026	1681.05
675.077	1667.09
675.129	1678.83
675.18	1689.38
675.232	1684.88
675.284	1698.78
675.335	1686.31
675.387	1679.4
675.438	1666.22
675.49	1679.9
675.541	1701.01
675.593	1690.48
675.644	1676.47
675.696	1667.77
675.747	1697.02
675.799	1708.29
675.85	1698.41
675.902	1699.16
675.953	1713.77
676.005	1708.47
676.056	1702.78
676.108	1679.71
676.159	1702.33
676.211	1691.79
676.262	1671.97
676.314	1683.29
676.365	1698.27
676.417	1717.07
676.468	1727.81
676.52	1715.5
676.571	1711.81
676.623	1714.73
676.674	1733.92
676.726	1729.05
676.777	1730.27
676.828	1724.38
676.88	1713.9
676.932	1716.28
676.983	1683.88
677.034	1687.11
677.086	1713.85
677.137	1710.8
677.189	1739.79
677.24	1737.72
677.292	1705.11
677.343	1719.17
677.395	1715.89
677.446	1707.89
677.498	1718.81
677.549	1704.42
677.601	1725.51
677.652	1730.23
677.704	1710.39
677.755	1709.58
677.807	1711.4
677.858	1698.71
677.91	1709.18
677.961	1718.94
678.013	1716.49
678.064	1721.27
678.116	1718.79
678.167	1704.24
678.219	1700.12
678.27	1723.59
678.322	1727.42
678.373	1723.52
678.424	1711.93
678.476	1712.21
678.527	1726.8
678.579	1721.52
678.63	1714.21
678.682	1724.48
678.733	1725.73
678.785	1720.81
678.836	1728.04
678.888	1730.26
678.939	1722.95
678.991	1705.62
679.042	1691.72
679.094	1703.96
679.122	1728.05
679.173	1733.89
679.225	1732.02
679.277	1716.14
679.328	1732.03
679.38	1720.43
679.432	1722.6
679.483	1658.06
679.535	1679.55
679.586	1730.3
679.638	1718.38
679.69	1703.22
679.741	1713.04
679.793	1733.79
679.844	1719.93
679.896	1730.97
679.948	1714.59
679.999	1753.57
680.051	1728.55
680.103	1736.28
680.154	1719.66
680.206	1760.49
680.257	1684.03
680.309	1735.7
680.361	1811.24
680.412	1708.82
680.464	1713.16
680.515	1733.22
680.567	1733.54
680.619	1765.68
680.67	1737.5
680.722	1725.21
680.773	1756.7
680.825	1733.91
680.877	1717.64
680.928	1712.67
680.98	1775.7
681.031	1727.62
681.083	1738.09
681.135	1717.92
681.186	1762.7
681.238	1736
681.289	1765.19
681.341	1774.53
681.393	1742.13
681.444	1807.64
681.496	1761.07
681.547	1762.7
681.599	1779.92
681.651	1744.83
681.702	1729.1
681.754	1783.98
681.805	1747.39
681.857	1790.95
681.909	1747.97
681.96	1773.32
682.012	1765.76
682.063	1801.32
682.115	1759.43
682.166	1751.68
682.218	1758.95
682.27	1734.31
682.321	1756.24
682.373	1765.83
682.424	1778.53
682.476	1805.03
682.528	1786.48
682.579	1788.66
682.631	1796.08
682.682	1784.22
682.734	1764.16
682.785	1783.34
682.837	1763.49
682.889	1774.02
682.94	1749.95
682.992	1791.73
683.043	1802.1
683.095	1784.66
683.146	1778.93
683.198	1793.67
683.25	1797.38
683.301	1789.02
683.353	1815.67
683.404	1784.52
683.456	1729.24
683.508	1795.18
683.559	1794.88
683.611	1755.44
683.662	1754.92
683.714	1801.44
683.765	1802.65
683.817	1779.33
683.869	1792.37
683.92	1796.18
683.972	1801.52
684.023	1786.99
684.075	1781.74
684.126	1763.4
684.178	1762.32
684.229	1754.97
684.281	1778.2
684.333	1764.4
684.384	1769.26
684.436	1789.44
684.487	1757.19
684.539	1801.87
684.59	1773.72
684.642	1767.92
684.694	1800.11
684.745	1748.18
684.797	1765.14
684.848	1755.78
684.9	1771.93
684.951	1768.59
685.003	1760.56
685.055	1770.6
685.106	1760.03
685.158	1792.36
685.209	1752.13
685.261	1802.03
685.312	1758.88
685.364	1794.8
685.415	1771.69
685.467	1764.39
685.518	1770.28
685.57	1762.51
685.622	1788.55
685.673	1757.98
685.725	1755.88
685.776	1748.99
685.828	1761.14
685.879	1773.34
685.931	1769.76
685.982	1748.71
686.034	1750.35
686.086	1811.31
686.137	1735.96
686.189	1772.36
686.24	1744.93
686.292	1742.72
686.343	1736.39
686.395	1735.23
686.446	1740.5
686.498	1717.16
686.549	1731.81
686.601	1753.14
686.652	1768.05
686.704	1772.54
686.756	1755.67
686.807	1775.03
686.859	1735.38
686.91	1754.07
686.962	1740.12
687.013	1739.46
687.065	1745.67
687.116	1729.17
687.168	1750.66
687.219	1721.92
687.271	1728
687.322	1733.65
687.374	1755.81
687.426	1763.25
687.477	1732.1
687.529	1778.37
687.58	1761.54
687.632	1710.29
687.683	1734.47
687.735	1744.37
687.786	1727.21
687.838	1718.05
687.889	1717.33
687.941	1710.51
687.992	1712.05
688.044	1714.08
688.095	1723.96
688.147	1749.7
688.198	1745.32
688.25	1731.19
688.302	1735.16
688.353	1766.72
688.405	1741.3
688.456	1727.04
688.508	1686.81
688.559	1751.7
688.611	1740.52
688.662	1732.35
688.714	1748.44
688.765	1698.84
688.817	1740.19
688.868	1730.02
688.92	1720.01
688.971	1715.94
689.023	1739.92
689.074	1709.84
689.126	1718.99
689.177	1738.95
689.229	1738.09
689.28	1731.49
689.332	1703.22
689.383	1748.37
689.435	1718.3
689.486	1744.86
689.538	1720.19
689.589	1738.52
689.641	1759.36
689.692	1737.3
689.744	1755.63
689.795	1725.53
689.847	1700.65
689.898	1729.88
689.95	1729.12
690.001	1708.14
690.053	1764.21
690.104	1715.52
690.156	1722.38
690.207	1721.46
690.259	1745.53
690.31	1723.17
690.362	1714.28
690.413	1740.35
690.465	1720.71
690.516	1742.88
690.568	1737.86
690.619	1713.35
690.671	1728.04
690.722	1712.65
690.774	1708.66
690.825	1727.63
690.877	1701.03
690.928	1715.76
690.98	1691.25
691.031	1730.84
691.083	1696.74
691.134	1691.7
691.186	1689.84
691.237	1705.62
691.289	1704.9
691.34	1722.25
691.392	1736.56
691.443	1703.41
691.495	1703.48
691.546	1681.14
691.598	1737.47
691.649	1732.73
691.701	1686.41
691.752	1701.36
691.804	1681.27
691.855	1700.39
691.907	1708.52
691.958	1699.82
692.01	1700.51
692.061	1681.21
692.113	1693.94
692.164	1698.42
692.216	1734.32
692.267	1685.09
692.319	1687.3
692.37	1670.88
692.421	1691.91
692.473	1675.62
692.524	1676.04
692.576	1688.42
692.627	1683.68
692.679	1671.63
692.73	1685.96
692.782	1666.5
692.833	1703.06
692.885	1703.17
692.936	1684.67
692.988	1678.18
693.039	1689.79
693.091	1686.43
693.142	1681.69
693.194	1682.91
693.245	1655.33
693.297	1683.41
693.348	1667.59
693.399	1636.14
693.451	1687.37
693.502	1648.19
693.554	1674.64
693.605	1641.69
693.657	1703.53
693.708	1663.96
693.76	1664.99
693.811	1689.98
693.863	1668.81
693.914	1675.48
693.966	1651.62
694.017	1686.61
694.068	1644.24
694.12	1663.68
694.171	1654.09
694.223	1662.8
694.274	1664.83
694.326	1658.52
694.377	1645.73
694.429	1652.37
694.48	1656.73
694.532	1648.88
694.583	1674.32
694.634	1661.31
694.686	1669.46
694.737	1661.97
694.789	1669.9
694.84	1643.76
694.892	1653.48
694.943	1671.21
694.995	1670.72
695.046	1649.09
695.097	1664.14
695.149	1647.5
695.2	1655.14
695.252	1660.8
695.303	1643.81
695.355	1665.07
695.406	1648.09
695.458	1656.77
695.509	1659.73
695.56	1643.81
695.612	1657.06
695.663	1680.08
695.715	1614.39
695.766	1665.84
695.818	1649.32
695.869	1648.69
695.921	1661.08
695.972	1637.63
696.023	1643.35
696.075	1654.67
696.126	1627.33
696.178	1612.83
696.229	1643.79
696.281	1635.52
696.332	1674.88
696.383	1627.14
696.435	1632.55
696.486	1632.34
696.538	1633.52
696.589	1662.8
696.641	1633.46
696.692	1641.03
696.744	1617.75
696.795	1619.73
696.846	1626.05
696.898	1635.97
696.949	1629.03
697.001	1638.84
697.052	1649.6
697.104	1646.56
697.155	1617.54
697.206	1631.94
697.258	1612.56
697.309	1617.24
697.361	1617.97
697.412	1607.21
697.463	1603.43
697.515	1618.74
697.566	1609.7
697.618	1635.99
697.669	1630.37
697.721	1620.73
697.772	1594.78
697.823	1584.51
697.875	1600.47
697.926	1604.4
697.978	1594.89
698.029	1617.9
698.08	1609.98
698.132	1622.5
698.183	1604.09
698.235	1606.59
698.286	1595.06
698.338	1598.38
698.389	1584.4
698.44	1595.47
698.492	1590.1
698.543	1582.49
698.595	1578.9
698.646	1604.18
698.697	1595.4
698.749	1582.94
698.8	1600.65
698.852	1584.8
698.903	1604.71
698.954	1587.97
699.006	1585.14
699.057	1596.08
699.109	1579.69
699.16	1579.06
699.211	1582.41
699.263	1564.6
699.314	1558.71
699.366	1575.18
699.417	1581.09
699.468	1573.45
699.52	1553.53
699.571	1565
699.623	1595.46
699.674	1558.17
699.725	1539.82
699.777	1575.68
699.828	1587.67
699.88	1565.13
699.931	1551.5
699.982	1572.23
700.034	1566.31
700.085	1570.84
700.137	1579.06
700.188	1575.52
700.239	1570.08
700.291	1583.64
700.342	1581.37
700.393	1555.62
700.445	1546.63
700.496	1580.49
700.548	1571.07
700.599	1557.38
700.65	1571.67
700.702	1566.55
700.753	1569.89
700.805	1562.71
700.856	1545.8
700.907	1557.03
700.959	1566.72
701.01	1575.4
701.061	1571.5
701.113	1568.56
701.164	1571.69
701.216	1559.03
701.267	1549.71
701.318	1555.8
701.37	1571.55
701.421	1565.9
701.472	1554.12
701.524	1566
701.575	1565.05
701.627	1583.85
701.678	1578.28
701.729	1550.36
701.781	1569.67
701.832	1598.49
701.883	1586.75
701.935	1564.23
701.986	1570.71
702.038	1566.22
702.089	1565.01
702.14	1548.69
702.192	1563.74
702.243	1572.23
702.294	1564.07
702.346	1560.98
702.397	1552.07
702.448	1566.58
702.5	1583.31
702.551	1588.32
702.603	1571.89
702.654	1578.72
702.705	1577.06
702.757	1565.79
702.808	1588.54
702.859	1570.21
702.911	1560.83
702.962	1555.41
703.013	1563.01
703.065	1562.84
703.116	1554.3
703.167	1542.77
703.219	1552.03
703.27	1556.7
703.322	1557.31
703.373	1559.75
703.424	1561.74
703.476	1556.62
703.527	1545.99
703.578	1536.37
703.63	1548.9
703.681	1554.65
703.732	1538.27
703.784	1544.78
703.835	1563.03
703.886	1571.95
703.938	1565.72
703.989	1552.41
704.04	1565.57
704.092	1558.17
704.143	1566.1
704.194	1570.63
704.246	1563.84
704.297	1557.09
704.348	1545.94
704.4	1562.63
704.451	1574.86
704.503	1555.56
704.554	1540.86
704.605	1555.03
704.656	1543.68
704.708	1552.16
704.759	1538.85
704.81	1529.91
704.862	1528.24
704.913	1525
704.964	1536.29
705.016	1542.28
705.067	1522.32
705.119	1524.95
705.17	1542.53
705.221	1526.38
705.273	1531.31
705.324	1540.03
705.375	1541.44
705.408	1544
705.459	1504
705.511	1482.1
705.562	1528.06
705.614	1573.88
705.665	1526.33
705.717	1494.65
705.768	1550.06
705.82	1516.16
705.871	1516.28
705.923	1532.23
705.974	1518.26
706.026	1527.97
706.077	1492.86
706.129	1532.37
706.18	1509.34
706.232	1510.6
706.283	1496.75
706.335	1466.47
706.386	1505.14
706.438	1483.84
706.489	1507.42
706.541	1512.47
706.592	1485.39
706.643	1508
706.695	1508.89
706.746	1506.05
706.798	1489.07
706.849	1471.59
706.901	1510.57
706.952	1525.2
707.004	1527.26
707.055	1489.14
707.107	1456.4
707.158	1489.44
707.21	1470.1
707.261	1509.93
707.313	1492.87
707.364	1470.4
707.416	1486.32
707.467	1466.96
707.518	1479.21
707.57	1483.69
707.621	1453.41
707.673	1487.93
707.724	1472.74
707.776	1477.13
707.827	1448.07
707.879	1463.52
707.93	1457.5
707.982	1491.85
708.033	1491.18
708.084	1470.89
708.136	1452.04
708.187	1476.79
708.239	1471.14
708.29	1457.15
708.342	1472.24
708.393	1451.18
708.445	1479.74
708.496	1433.92
708.548	1465.21
708.599	1482.08
708.651	1448.12
708.702	1474.35
708.753	1448.43
708.805	1413.31
708.856	1459.43
708.908	1509.62
708.959	1466.65
709.011	1492.24
709.062	1472.85
709.114	1469.12
709.165	1458.34
709.216	1434.41
709.268	1436.22
709.319	1437.7
709.371	1437.08
709.422	1440.53
709.474	1433.34
709.525	1445.62
709.577	1402.81
709.628	1467.76
709.679	1420.53
709.731	1437.71
709.782	1452.12
709.834	1424.56
709.885	1424.83
709.937	1434.65
709.988	1418.72
710.039	1454.86
710.091	1433.39
710.142	1440.35
710.194	1450.62
710.245	1453.76
710.297	1447.5
710.348	1412.39
710.4	1437.6
710.451	1425.29
710.502	1443.16
710.554	1434.66
710.605	1455.65
710.657	1443.8
710.708	1454.52
710.76	1449.08
710.811	1433.93
710.862	1431.62
710.914	1437.91
710.965	1417.94
711.017	1411.49
711.068	1427.77
711.12	1451.8
711.171	1417.63
711.222	1423.43
711.274	1461.87
711.325	1417.71
711.377	1435.96
711.428	1428.25
711.479	1421.2
711.531	1385.5
711.582	1441.92
711.634	1427.02
711.685	1371.52
711.737	1428.38
711.788	1399.04
711.839	1408.13
711.891	1424.38
711.942	1415.47
711.994	1401.71
712.045	1398.36
712.096	1410.77
712.148	1412
712.199	1378.97
712.251	1392.87
712.302	1393.15
712.354	1404.85
712.405	1401.88
712.456	1398.84
712.508	1394.74
712.559	1397.36
712.611	1394.05
712.662	1406.99
712.713	1396.8
712.765	1377.07
712.816	1386.83
712.868	1378.16
712.919	1416.63
712.97	1346.94
713.022	1387.35
713.073	1394.77
713.125	1371.47
713.176	1374.58
713.227	1371.98
713.279	1385.21
713.33	1359.12
713.382	1350.66
713.433	1364.01
713.484	1355.89
713.536	1363.73
713.587	1362.43
713.639	1336.63
713.69	1361.61
713.741	1372.1
713.793	1373.53
713.844	1333.76
713.896	1352.32
713.947	1359.11
713.998	1345.51
714.05	1337.58
714.101	1338.54
714.153	1330.64
714.204	1316.15
714.255	1354.43
714.307	1336.73
714.358	1370.63
714.41	1350.77
714.461	1345.51
714.512	1318.52
714.564	1332.98
714.615	1355.52
714.666	1334.85
714.718	1332.23
714.769	1306.24
714.821	1331.22
714.872	1349.53
714.923	1344.43
714.975	1326.84
715.026	1326.83
715.078	1333.31
715.129	1320.96
715.18	1302.85
715.232	1313
715.283	1320
715.334	1339.24
715.386	1304.59
715.437	1295.81
715.489	1303.65
715.54	1295.46
715.591	1319.15
715.643	1296.94
715.694	1331.61
715.745	1303.55
715.797	1286.69
715.848	1287.19
715.9	1291.05
715.951	1292.35
716.002	1309.8
716.054	1298.05
716.105	1281.3
716.156	1322.28
716.208	1299.04
716.259	1286.96
716.31	1282.35
716.362	1301.28
716.413	1303.52
716.465	1317.3
716.516	1288.59
716.567	1286.46
716.619	1280.49
716.67	1284.62
716.721	1273.71
716.773	1289.2
716.824	1278.27
716.875	1297.09
716.927	1289.76
716.978	1308.85
717.03	1290.32
717.081	1249.53
717.132	1256.4
717.184	1289.21
717.235	1311.44
717.286	1276.56
717.338	1260.64
717.389	1265.23
717.44	1295.26
717.492	1270.87
717.543	1255.05
717.594	1256.77
717.646	1274.66
717.697	1244.9
717.749	1258.51
717.8	1278.99
717.851	1273.41
717.903	1278.37
717.954	1265.39
718.005	1271.49
718.057	1277.6
718.108	1296.68
718.159	1250.62
718.211	1273.18
718.262	1275.51
718.313	1252.5
718.365	1248.18
718.416	1259.83
718.467	1267.5
718.519	1266.63
718.57	1244.49
718.621	1255.44
718.673	1248.77
718.724	1249.61
718.775	1259.44
718.827	1238.54
718.878	1257.6
718.93	1262.9
718.981	1243.45
719.032	1230.75
719.083	1276.89
719.135	1246.47
719.186	1243.93
719.237	1254.61
719.289	1261.08
719.34	1257.47
719.391	1234.36
719.443	1230.65
719.494	1223.93
719.545	1249.7
719.597	1248.63
719.648	1237.06
719.699	1245.13
719.751	1256.46
719.802	1249.79
719.853	1224.33
719.905	1222.65
719.956	1232.74
720.007	1222.83
720.059	1231.22
720.11	1246.36
720.161	1209.22
720.213	1216.46
720.264	1206.27
720.315	1221.98
720.367	1206.1
720.418	1200.7
720.469	1216.05
720.521	1223.45
720.572	1189.69
720.623	1211.03
720.675	1224.52
720.726	1222.44
720.777	1217.15
720.829	1223.31
720.88	1203.46
720.931	1176.06
720.982	1197.45
721.034	1218.37
721.085	1219.76
721.136	1200.48
721.188	1184.23
721.239	1191.71
721.29	1188.18
721.342	1196.08
721.393	1179.41
721.444	1182.77
721.496	1190.76
721.547	1194.72
721.598	1197.36
721.65	1202.05
721.701	1194.62
721.752	1177.52
721.803	1168.98
721.855	1161.61
721.906	1168.29
721.957	1157.58
722.009	1166.02
722.06	1162.35
722.111	1173.19
722.163	1172.21
722.214	1161.25
722.265	1157.96
722.316	1174.69
722.368	1155.1
722.419	1169.76
722.47	1175.76
722.522	1159.91
722.573	1135.62
722.624	1159.28
722.676	1161.37
722.727	1156.51
722.778	1159.43
722.829	1154.34
722.881	1134.67
722.932	1138.3
722.983	1150.58
723.035	1154.78
723.086	1140.89
723.137	1151.35
723.188	1151.54
723.24	1149.57
723.291	1157.16
723.342	1143.97
723.394	1145.36
723.445	1123.69
723.496	1137.19
723.547	1136.2
723.599	1135.63
723.65	1123.41
723.701	1135.13
723.753	1142.66
723.804	1138.15
723.855	1130.97
723.906	1131.08
723.958	1120.22
724.009	1123.09
724.06	1137.84
724.112	1150.35
724.163	1143.08
724.214	1135.01
724.265	1125.24
724.317	1129.66
724.368	1129.21
724.419	1119.45
724.47	1121.04
724.522	1101.56
724.573	1113.82
724.624	1120.37
724.676	1116.55
724.727	1108.07
724.778	1090.01
724.829	1107.47
724.881	1110.97
724.932	1122.37
724.983	1114.35
725.034	1126.66
725.086	1101.34
725.137	1110.23
725.188	1105.1
725.24	1098.13
725.291	1124.47
725.342	1127.58
725.393	1105.64
725.445	1091.2
725.496	1092.92
725.547	1104.39
725.598	1118.35
725.65	1083.99
725.701	1095.33
725.752	1115.98
725.803	1117.81
725.855	1085.34
725.906	1108.3
725.957	1101.3
726.008	1088.42
726.06	1067.76
726.111	1092.34
726.162	1117.42
726.213	1106.06
726.265	1108.38
726.316	1094.38
726.367	1099.56
726.418	1095.44
726.47	1085.34
726.521	1088.6
726.572	1087.83
726.623	1079.08
726.675	1086.86
726.726	1085.16
726.777	1096.6
726.828	1103.96
726.88	1068.98
726.931	1070.56
726.982	1082.87
727.033	1079.22
727.085	1087.02
727.136	1073.14
727.187	1076.15
727.238	1082.37
727.29	1088.84
727.341	1076.46
727.392	1073.32
727.443	1075.64
727.495	1078.88
727.546	1075.41
727.597	1069.13
727.648	1060.77
727.7	1063.23
727.751	1056.16
727.802	1038.69
727.853	1069.79
727.904	1055.6
727.956	1073.22
728.007	1037.9
728.058	1043.36
728.109	1055.92
728.161	1016.02
728.212	1040.1
728.263	1030.27
728.314	1040.32
728.366	1047.21
728.417	1043.33
728.468	1042.31
728.519	1060.72
728.57	1051.37
728.622	1024.24
728.673	1043.07
728.724	1038.03
728.775	1032.52
728.827	1014.33
728.878	1026.35
728.929	1032.2
728.98	1030
729.031	1020.94
729.083	1045.4
729.134	1035.45
729.185	1016.64
729.236	1025.66
729.288	991.317
729.339	998.268
729.39	1020.12
729.441	1025.5
729.492	1025.67
729.544	1009.95
729.595	1005.03
729.646	988.214
729.697	1003.16
729.748	1022.73
729.8	1025.91
729.851	1002.73
729.902	1003.64
729.953	1020.16
730.004	995.722
730.056	991.866
730.107	1012.92
730.158	1002.34
730.209	985.986
730.26	1008.25
730.312	1003.1
730.363	997.981
730.414	1016.53
730.465	999.979
730.517	986.301
730.568	991.92
730.619	967.286
730.67	967.233
730.721	956.895
730.773	936.036
730.824	974.876
730.875	956.796
730.926	962.889
730.977	956.845
731.029	977.352
731.08	953.055
731.131	971.637
731.182	959.654
731.233	920.314
731.284	964.694
731.336	970.196
731.387	964.514
731.438	980.371
731.489	980.084
731.54	964.069
731.592	964.076
731.643	950.105
731.643	950
731.694	950
731.746	956
731.797	964.029
731.848	930.184
731.9	932.284
731.951	962.143
732.002	946.437
732.054	958.493
732.105	936.732
732.156	944.907
732.208	944.686
732.259	954.183
732.311	956.863
732.362	977.523
732.413	940.544
732.465	959.245
732.516	930.338
732.567	930.122
732.619	931.969
732.67	972.479
732.721	949.104
732.773	952.915
732.824	922.097
732.875	922.801
732.927	921.171
732.978	939.33
733.029	938.555
733.081	949.159
733.132	959.15
733.183	935.813
733.235	916.058
733.286	935.659
733.337	910.434
733.389	948.924
733.44	918.533
733.491	930.643
733.543	919.106
733.594	919.167
733.645	917.604
733.697	946.993
733.748	938.018
733.799	924.349
733.851	938.066
733.902	934.404
733.953	934.062
734.005	930.87
734.056	921.105
734.107	940.785
734.158	914.678
734.21	886.128
734.261	924.701
734.312	935.718
734.364	921.237
734.415	902.886
734.466	911.767
734.518	929.932
734.569	942.999
734.62	923.893
734.672	924.399
734.723	910.184
734.774	916.05
734.826	923.398
734.877	932.295
734.928	923.099
734.98	921.628
735.031	884.626
735.082	924.815
735.133	894.159
735.185	904.44
735.236	892.038
735.287	924.692
735.339	933.44
735.39	904.092
735.441	912.771
735.493	918.225
735.544	889.954
735.595	910.72
735.647	896.149
735.698	915.723
735.749	909.779
735.8	922.078
735.852	925.188
735.903	907.949
735.954	918.064
736.006	883.982
736.057	896.963
736.108	903.54
736.16	894.574
736.211	909.405
736.262	899.441
736.313	874.447
736.365	905.547
736.416	887.424
736.467	898.79
736.519	902.14
736.57	915.415
736.621	885.075
736.673	887.342
736.724	899.198
736.775	868.705
736.826	906.386
736.878	882.781
736.929	902.55
736.98	892.576
737.032	897.938
737.083	854.186
737.134	903.291
737.185	883.478
737.237	901.827
737.288	881.765
737.339	889.417
737.391	864.081
737.442	907.049
737.493	884.944
737.544	891.367
737.596	879.111
737.647	915.997
737.698	870.602
737.75	912.975
737.801	905.532
737.852	869.775
737.903	871.434
737.955	860.022
738.006	865.801
738.057	875.365
738.109	893.408
738.16	894.538
738.211	871.151
738.262	868.683
738.314	885.422
738.365	867.647
738.416	880.391
738.468	866.352
738.519	889.484
738.57	878.761
738.621	890.469
738.673	876.721
738.724	873.53
738.775	876.271
738.826	871.742
738.878	868.928
738.929	890.738
738.98	885.503
739.031	902.267
739.083	887.731
739.134	853.237
739.185	864.684
739.237	850.405
739.288	864.818
739.339	872.07
739.39	866.943
739.442	847.847
739.493	873.186
739.544	877.17
739.595	891.993
739.647	858.837
739.698	845.399
739.749	868.751
739.8	843.872
739.852	858.039
739.903	901.147
739.954	869.873
740.005	853.637
740.057	873.492
740.108	867.411
740.159	869.956
740.211	873.738
740.262	844.25
740.313	854.662
740.364	866.651
740.416	862.227
740.467	872.958
740.518	861.493
740.569	851.815
740.621	869.624
740.672	860.441
740.723	823.445
740.774	849.854
740.826	844.859
740.877	855.339
740.928	834.784
740.979	867.9
741.031	844.541
741.082	875.23
741.133	852.647
741.184	868.116
741.235	846.241
741.287	847.031
741.338	818.326
741.389	852.887
741.44	832.766
741.492	864.77
741.543	836.602
741.594	848.479
741.645	828.285
741.697	831.421
741.748	838.041
741.799	860.772
741.85	856.301
741.902	842.894
741.953	860.204
742.004	823.492
742.055	833.356
742.107	860.146
742.158	825.3
742.209	846.141
742.26	819.418
742.311	831.669
742.363	827.449
742.414	850.16
742.465	830.657
742.516	823.02
742.568	833.908
742.619	834.781
742.67	824.835
742.721	848.723
742.773	824.739
742.824	834.782
742.875	827.014
742.926	828.632
742.977	836.867
743.029	825.756
743.08	833.14
743.131	816.939
743.182	826.899
743.234	836.287
743.285	843.297
743.336	824.499
743.387	810.533
743.438	813.106
743.49	814.991
743.541	812.518
743.592	822.158
743.643	814.775
743.694	816.718
743.746	819.376
743.797	811.847
743.848	803.062
743.899	816.606
743.951	798.012
744.002	799.281
744.053	814.164
744.104	817.219
744.155	800.939
744.207	817.336
744.258	813.118
744.309	801.579
744.36	797.732
744.411	797.836
744.463	799.843
744.514	810.252
744.565	794.293
744.616	794.278
744.667	803.903
744.719	824.359
744.77	820.231
744.821	788.817
744.872	795.85
744.923	794.745
744.975	793.806
745.026	805.59
745.077	797.965
745.128	775.554
745.179	787.057
745.231	788.885
745.282	777.561
745.333	783.819
745.384	797.279
745.435	789.792
745.487	792.55
745.538	793.021
745.589	795.235
745.64	778.884
745.691	785.23
745.743	786.516
745.794	784.681
745.845	787.627
745.896	772.172
745.947	759.496
745.998	774.62
746.05	782.977
746.101	780.295
746.152	794.708
746.203	778.784
746.254	794.293
746.306	792.39
746.357	771.248
746.408	782.052
746.459	804.277
746.51	779.623
746.562	777.958
746.613	768.898
746.664	772.233
746.715	776.869
746.766	782.571
746.817	780.631
746.869	775.377
746.92	780.722
746.971	771.424
747.022	770.777
747.073	793.303
747.125	775.425
747.176	772.374
747.227	758.203
747.278	756.678
747.329	771.598
747.38	781.222
747.432	760.062
747.483	759.612
747.534	763.599
747.585	766.274
747.636	756.87
747.687	768.902
747.739	744.828
747.79	757.951
747.841	760.154
747.892	761.77
747.943	761.835
747.994	764.525
748.046	759.642
748.097	765.88
748.148	761.25
748.199	754.981
748.25	763.5
748.301	757.299
748.352	750.026
748.404	764.16
748.455	768.436
748.506	763.886
748.557	757.678
748.608	762.104
748.659	748.705
748.711	759.881
748.762	756.779
748.813	750.4
748.864	739.291
748.915	752.781
748.966	744.039
749.018	762.229
749.069	741.544
749.12	742.932
749.171	749.408
749.222	766.482
749.273	746.818
749.324	743.078
749.376	749.829
749.427	739.608
749.478	746.492
749.529	745.283
749.58	759.478
749.631	750.034
749.682	742.063
749.734	758.738
749.785	746.723
749.836	735.514
749.887	744.407
749.938	738.552
749.989	730.21
750.04	733.635
750.092	735.458
750.143	731.277
750.194	726.975
750.245	745.263
750.296	741.137
750.347	751.675
750.398	742.943
750.45	748.239
750.501	742.161
750.552	747.491
750.603	724.747
750.654	716.135
750.705	703.04
750.756	728.585
750.807	731.571
750.859	725.311
750.91	734.338
750.961	719.719
751.012	714.058
751.063	710.372
751.114	714.676
751.165	717.23
751.216	719.193
751.268	704.812
751.319	707.544
751.37	709.513
751.421	736.24
751.472	724.84
751.523	724.563
751.574	725.341
751.625	731.115
751.677	702.538
751.728	708
751.779	710.09
751.83	717.691
751.881	698.176
751.932	717.38
751.983	726.478
752.034	716.061
752.086	707.869
752.137	718.846
752.188	724.661
752.239	696.314
752.29	718.596
752.341	708.18
752.392	718.114
752.443	719.177
752.494	717.526
752.546	684.838
752.597	702.268
752.648	704.574
752.699	689.952
752.75	693.892
752.801	698.242
752.852	691.092
752.903	703.061
752.954	722.38
753.005	700.552
753.057	700.758
753.108	689.146
753.159	689.047
753.21	712.563
753.261	704.717
753.312	679.231
753.363	694.255
753.414	688.366
753.465	695.767
753.516	686.583
753.568	687.315
753.619	691.836
753.67	681.441
753.721	675.064
753.772	684.611
753.823	698.605
753.874	712.07
753.925	677.527
753.976	694.491
754.027	694.186
754.079	692.977
754.13	692.119
754.181	674.802
754.232	696.817
754.283	701
754.334	688.221
754.385	662.779
754.436	700.348
754.487	664.393
754.538	691.943
754.589	655.83
754.641	676.11
754.692	665.254
754.743	667.152
754.794	679.93
754.845	673.575
754.896	659.997
754.947	632.243
754.998	656.52
755.049	665.382
755.1	690.621
755.151	646.708
755.202	660.556
755.253	680.129
755.305	659.111
755.356	663.963
755.407	653.104
755.458	652.494
755.509	649.703
755.56	657.375
755.611	638.875
755.662	643.552
755.713	677.729
755.764	629.648
755.815	648.212
755.866	635.848
755.917	674.714
755.968	640.322
756.02	669.581
756.071	656.018
756.122	666.769
756.173	668.38
756.224	656.417
756.275	655.013
756.326	653.36
756.377	650.371
756.428	637.682
756.479	649.603
756.53	634.627
756.581	644.636
756.632	668.456
756.683	642.76
756.734	649.757
756.785	661.915
756.837	654.79
756.888	616.582
756.939	654.645
756.99	633.895
757.041	630.959
757.092	640.98
757.143	638.28
757.194	636.352
757.245	633.823
757.296	635.798
757.347	643.326
757.398	630.316
757.449	640.286
757.5	659.011
757.551	649.167
757.602	629.592
757.653	629.643
757.704	646.653
757.755	641.696
757.807	628.281
757.858	631.069
757.909	633.668
757.917	634
757.968	600.037
758.02	616.076
758.071	635.941
758.122	627.932
758.173	621.889
758.224	612.183
758.276	606.207
758.327	633.965
758.378	628.016
758.429	606.152
758.48	623.766
758.532	633.348
758.583	610.258
758.634	608.228
758.685	608.542
758.736	606.47
758.788	600.509
758.839	610.015
758.89	606.408
758.941	627.467
758.992	615.829
759.044	602.037
759.095	617.52
759.146	623.541
759.197	604.303
759.248	624.68
759.3	620.3
759.351	611.186
759.402	605.822
759.453	607.929
759.504	595.378
759.556	621.344
759.607	598.381
759.658	628.48
759.709	608.443
759.76	600.739
759.811	604.961
759.863	608.372
759.914	613.376
759.965	579.654
760.016	605.209
760.067	608.499
760.119	605.722
760.17	611.123
760.221	586.521
760.272	593.23
760.323	596.265
760.375	579.202
760.426	600.248
760.477	594.492
760.528	596.915
760.579	590.112
760.63	584.401
760.682	589.561
760.733	586.689
760.784	571.964
760.835	571.163
760.886	579.583
760.937	563.128
760.989	617.429
761.04	576.737
761.091	572.772
761.142	585.602
761.193	586.9
761.245	577.002
761.296	570.177
761.347	546.42
761.398	556.234
761.449	563.352
761.5	596.708
761.552	583.637
761.603	589.858
761.654	558.867
761.705	594.904
761.756	577.126
761.807	575.634
761.859	584.581
761.91	569.385
761.961	579.162
762.012	571.212
762.063	577.066
762.114	601.536
762.165	583.256
762.217	575.027
762.268	576.848
762.319	586.516
762.37	574.014
762.421	581.949
762.472	576.05
762.524	568.222
762.575	586.102
762.626	558.146
762.677	563.16
762.728	558.432
762.779	562.523
762.831	578.934
762.882	587.372
762.933	584.957
762.984	564.629
763.035	550.937
763.086	565.64
763.137	556.597
763.189	561.836
763.24	546.205
763.291	556.822
763.342	547.161
763.393	552.309
763.444	557.205
763.495	569.286
763.547	548.424
763.598	555.044
763.649	529.649
763.7	539.404
763.751	557.683
763.802	554.142
763.853	538.346
763.905	560.003
763.956	556.647
764.007	528.218
764.058	530.769
764.109	528.022
764.16	549.081
764.211	550.981
764.263	538.682
764.314	539.903
764.365	565.071
764.416	575.315
764.467	539.502
764.518	548.833
764.569	548.412
764.621	538.261
764.672	536.938
764.723	549.253
764.774	533.866
764.825	537.804
764.876	546.357
764.927	544.9
764.978	550.12
765.03	546.34
765.081	536.686
765.132	516.581
765.183	525.22
765.234	532.26
765.285	525.918
765.336	532.63
765.387	531.377
765.439	516.603
765.49	528.942
765.541	526.42
765.592	536.443
765.643	532.334
765.694	516.88
765.745	532.583
765.796	509.929
765.848	536.228
765.899	537.461
765.95	536.059
766.001	534.462
766.052	519.069
766.103	508.26
766.154	530.625
766.205	503.654
766.256	521.744
766.308	502.297
766.359	527.893
766.41	512.09
766.461	522.781
766.512	526.299
766.563	516.426
766.614	522.226
766.665	523.005
766.716	509.517
766.768	524.793
766.819	518.922
766.87	519.926
766.921	509.267
766.972	531.023
767.023	515.732
767.074	511.499
767.125	509.581
767.176	519.793
767.227	513.164
767.279	512.635
767.33	509.884
767.381	505.889
767.432	503.703
767.483	513.218
767.534	524.149
767.585	510.845
767.636	527.157
767.687	493.721
767.739	495.593
767.79	502.949
767.841	501.399
767.892	508.668
767.943	495.164
767.994	502.196
768.045	518.637
768.096	498.119
768.147	500.941
768.198	502.043
768.249	511.178
768.301	503.792
768.352	505.909
768.403	497.481
768.454	513.514
768.505	498.445
768.556	497.85
768.607	489.148
768.658	505.273
768.709	478.082
768.76	485.014
768.811	490.184
768.862	491.225
768.914	491.585
768.965	469.42
769.016	491.98
769.067	480.563
769.118	482.014
769.169	482.38
769.22	482.369
769.271	479.875
769.322	492.057
769.373	490.674
769.424	491.899
769.475	479.043
769.526	481.196
769.578	498.494
769.629	474.477
769.68	491.846
769.731	460.15
769.782	480.337
769.833	483.071
769.884	482.756
769.935	468.916
769.986	476.304
770.037	472.513
770.088	482.387
770.139	460.845
770.19	479.464
770.242	466.874
770.293	472.69
770.344	461.527
770.395	476.44
770.446	477.989
770.497	466.34
770.548	462.148
770.599	468.844
770.65	478.107
770.701	472.78
770.752	465.389
770.803	466.066
770.854	465.416
770.905	467.86
770.956	460.149
771.007	460.081
771.058	463.942
771.11	480.448
771.161	461.419
771.212	466.075
771.263	464.508
771.314	462.236
771.365	469.91
771.416	449.247
771.467	464.516
771.518	467.111
771.569	453.632
771.62	453.304
771.671	470.223
771.722	450.478
771.773	443.885
771.824	448.985
771.875	451.054
771.926	458.488
771.977	460.551
772.028	473.882
772.079	455.573
772.131	446.631
772.182	438.194
772.233	451.369
772.284	449.172
772.335	447.839
772.386	458.315
772.437	460.198
772.488	451.316
772.539	443.077
772.59	438.349
772.641	434.816
772.692	446.114
772.743	442.586
772.794	433.368
772.845	437.76
772.896	443.19
772.947	439.006
772.998	436.201
773.049	438.66
773.1	436.315
773.151	431.417
773.202	437.336
773.253	441.771
773.304	430.685
773.355	435.546
773.406	432.995
773.457	432.646
773.508	440
773.56	436.602
773.611	430.704
773.662	428.799
773.713	429.886
773.764	441.114
773.815	433.395
773.866	428.242
773.917	419.233
773.968	426.753
774.019	432.771
774.07	437.956
774.121	429.028
774.172	429.15
774.223	432.794
774.274	419.894
774.325	433.69
774.376	431.811
774.427	413.47
774.478	422.252
774.529	428.836
774.58	421.039
774.631	415.734
774.682	416.123
774.733	416.622
774.784	438.359
774.835	443.24
774.886	426.239
774.937	429.303
774.988	414.218
775.039	418.344
775.09	427.229
775.141	416.959
775.192	417.914
775.243	421.951
775.294	423.893
775.345	413.575
775.396	403.025
775.447	410.648
775.498	423.376
775.549	414.773
775.6	409.545
775.651	406.532
775.702	424.045
775.753	406.568
775.804	409.368
775.855	419.042
775.906	408.886
775.957	411.596
776.008	414.303
776.059	418.216
776.11	405.032
776.161	403.094
776.212	403.822
776.263	411.238
776.314	407.08
776.365	400.201
776.416	405.301
776.467	411.974
776.518	413.954
776.569	400.755
776.62	408.609
776.671	410.23
776.722	400.206
776.773	404.15
776.824	407.788
776.875	408.757
776.926	400.913
776.977	408.958
777.028	404.576
777.079	397.513
777.13	397.507
777.181	401.314
777.232	390.132
777.283	391.576
777.334	404.914
777.385	400.259
777.436	390.826
777.487	401.7
777.538	395.798
777.589	394.1
777.64	381.531
777.691	383.197
777.742	392.9
777.793	385.47
777.844	381.946
777.895	375.71
777.946	388.197
777.997	389.696
778.047	387.605
778.098	403.867
778.149	399.502
778.2	386.646
778.251	384.684
778.302	390.508
778.353	387.857
778.404	387.482
778.455	380.351
778.506	389.19
778.557	389.954
778.608	379.236
778.659	384.189
778.71	381.353
778.761	379.214
778.812	375.148
778.863	380.01
778.914	369.189
778.965	373.382
779.016	373.268
779.067	375.123
779.118	376.98
779.169	371.903
779.22	367.935
779.271	374.738
779.322	373.113
779.373	372.318
779.424	375.072
779.474	368.235
779.525	365.999
779.576	373.683
779.627	369.025
779.678	369.154
779.729	380
779.78	380.055
779.831	375.602
779.882	389.206
779.933	378.229
779.984	364.527
780.035	361.889
780.086	373.122
780.137	375.891
780.188	370.683
780.239	355.77
780.29	356.619
780.341	364.703
780.392	368.902
780.442	373.422
780.493	372.095
780.544	368.809
780.595	361.041
780.646	356.132
780.697	360.278
780.748	369.903
780.799	365.672
780.85	362.859
780.901	357.883
780.952	355.509
781.003	351.411
781.054	363.024
781.105	361.027
781.156	345.89
781.207	342.99
781.257	352.517
781.308	354.375
781.359	351.646
781.41	360.91
781.461	352.989
781.512	349.191
781.563	351.176
781.614	346.54
781.665	346.722
781.716	364.401
781.767	358.054
781.818	349.234
781.869	353.511
781.919	347.48
781.97	353.529
782.021	354.594
782.072	360.183
782.123	338.461
782.174	334.504
782.225	358.392
782.276	356.686
782.327	345.223
782.378	338.573
782.429	337.535
782.48	349.033
782.531	337.113
782.581	347.499
782.632	348.228
782.683	320.549
782.734	332.965
782.785	345.324
782.836	347.861
782.887	354.609
782.938	339.622
782.989	350.664
783.04	344.705
783.091	333.795
783.141	333.293
783.192	323.381
783.243	349.571
783.294	340.729
783.345	330.34
783.396	325.824
783.447	317.65
783.498	339.632
783.549	334.06
783.6	340.33
783.651	334.572
783.701	337.65
783.752	337.62
783.803	341.419
783.854	333.244
783.905	343.696
783.956	324.811
784.007	330.055
784.058	340.339
784.1	342
784.151	341.99
784.202	339.943
784.253	333.958
784.304	326.031
784.355	333.884
784.406	337.693
784.458	318.119
784.509	337.912
784.56	323.978
784.611	324.013
784.662	325.822
784.713	329.668
784.764	341.518
784.815	318.119
784.866	323.792
784.917	326.173
784.968	302.848
785.019	315.963
785.07	326.962
785.121	312.419
785.172	309.257
785.223	310.483
785.274	321.813
785.326	325.46
785.377	328.658
785.428	315.434
785.479	314.446
785.53	306.335
785.581	327.182
785.632	309.922
785.683	317.736
785.734	326.852
785.785	307.758
785.836	309.764
785.887	321.254
785.938	305.035
785.989	308.194
786.04	306.329
786.091	295.394
786.142	323.461
786.193	320.783
786.244	332.401
786.295	297.67
786.346	323.07
786.397	302.539
786.448	318.529
786.5	303.272
786.551	303.256
786.602	301.528
786.653	312.194
786.704	322.918
786.755	310.378
786.806	308.385
786.857	310.734
786.908	305.19
786.959	290.147
787.01	307.275
787.061	294.918
787.112	294.533
787.163	297.027
787.214	321.662
787.265	317.673
787.316	300.311
787.367	291.002
787.418	307.25
787.469	321.69
787.52	310.942
787.571	324.463
787.622	310.654
787.673	311.92
787.724	299.59
787.775	313.513
787.826	297.703
787.877	301.997
787.928	298.542
787.979	300.266
788.03	304.287
788.081	300.153
788.132	295.032
788.183	311.301
788.234	275.845
788.285	304.592
788.336	285.205
788.387	276.588
788.438	286.012
788.49	306.058
788.541	301.599
788.591	300.595
788.643	289.367
788.694	297.977
788.745	287.688
788.796	282.827
788.847	288.315
788.898	295.244
788.949	294.481
789	276.934
789.051	285.5
789.102	285.589
789.153	284.708
789.204	289.785
789.255	296.393
789.306	263.569
789.357	279.785
789.408	283.215
789.459	287.147
789.51	282.78
789.561	279.569
789.612	286.373
789.663	283.237
789.714	293.192
789.765	279.248
789.816	280.464
789.867	293.905
789.918	281.327
789.969	283.967
790.02	280.524
790.071	274.935
790.122	271.326
790.173	290.772
790.224	278.858
790.275	290.092
790.326	279.424
790.377	276.082
790.428	277.297
790.479	282.46
790.53	273.351
790.581	281.465
790.632	281.846
790.682	282.084
790.734	263.274
790.784	288.894
790.836	276.858
790.886	276
790.937	271.716
790.988	286.397
791.039	271.493
791.09	259.175
791.141	275.238
791.192	271.023
791.243	265.46
791.294	280
791.345	269.435
791.396	280.337
791.447	268.29
791.498	280.151
791.549	262.165
791.6	274.137
791.651	270.016
791.702	268.642
791.753	251.361
791.804	267.866
791.855	242.793
791.906	266.349
791.957	258.198
792.008	265.162
792.059	266.973
792.11	269.861
792.161	273.839
792.212	267.689
792.263	261.989
792.314	266.842
792.365	259.732
792.416	275.807
792.467	258.341
792.518	258
792.569	259.352
792.62	261.03
792.671	257.713
792.722	261.503
792.773	263.364
792.823	250.472
792.874	260.833
792.925	262.376
792.976	269.774
793.027	262.595
793.078	265.221
793.129	257.887
793.18	258.953
793.231	262.218
793.282	262.483
793.333	256.081
793.384	250.905
793.435	251.939
793.486	264.274
793.537	247.016
793.588	249.514
793.639	258.053
793.69	244.655
793.741	256.514
793.792	251.045
793.843	247.464
793.894	254.501
793.945	245.589
793.995	246.247
794.046	255.583
794.097	244.926
794.148	254.442
794.199	241.433
794.25	242.206
794.301	236.378
794.352	252.25
794.403	247.864
794.454	240.491
794.505	251.185
794.556	248.959
794.607	234.032
794.658	265.032
794.709	254.506
794.76	242.362
794.811	237.315
794.862	255.017
794.912	246.139
794.963	246.954
795.014	257.733
795.065	248.68
795.116	239.646
795.167	250.864
795.218	244.787
795.269	240.898
795.32	245.291
795.371	240.952
795.422	249.666
795.473	241.591
795.524	249.166
795.575	247.317
795.625	246.292
795.676	230.377
795.727	247.062
795.778	235.014
795.829	244.012
795.88	240.054
795.931	246.296
795.982	239.345
796.033	238.259
796.084	237.474
796.135	235.675
796.186	234.4
796.237	240.786
796.287	229.545
796.338	236.057
796.389	235.486
796.44	226.469
796.491	234.112
796.542	240.763
796.593	226.601
796.644	233.115
796.695	235.171
796.746	239.992
796.797	226.541
796.848	228.396
796.898	238.759
796.949	236.92
797	221.394
797.051	235.843
797.102	231.514
797.153	227.153
797.204	230.303
797.255	233.572
797.306	231.733
797.357	223.334
797.408	228.73
797.458	230.639
797.509	221.794
797.56	217.804
797.611	221.621
797.662	235.254
797.713	226.855
797.764	227.743
797.815	222.658
797.866	226.288
797.917	220.846
797.968	223.116
798.018	216.912
798.069	217.683
798.12	229.793
798.171	235.629
798.222	223.808
798.273	224.911
798.324	216.634
798.375	224
798.426	213.287
798.477	218.862
798.527	215.124
798.578	226.079
798.629	219.022
798.68	230.3
798.731	227.533
798.782	219.312
798.833	213.389
798.884	216.458
798.935	222.076
798.985	228.011
799.036	214.11
799.087	219.959
799.138	219.42
799.189	219.387
799.24	204.218
799.291	217.816
799.342	222.961
799.393	221.615
799.443	217.324
799.494	218.415
799.545	212.341
799.596	206.756
799.647	219.57
799.698	217.933
799.749	219.53
799.8	214.665
799.85	202.91
799.901	226.233
799.952	223.799
800.003	217.172
800.054	221.174
800.105	202.454
800.156	210.682
800.207	210.7
800.257	199.585
800.308	204.641
800.359	220.543
800.41	203.829
800.461	212.809
800.512	214.841
800.563	199.304
800.613	207.255
800.664	205.047
800.715	202.296
800.766	204.518
800.817	203.132
800.868	211.173
800.919	201.26
800.97	217.623
801.02	215.28
801.071	214.978
801.122	209.375
801.173	209.928
801.224	202.788
801.275	214.126
801.326	211.154
801.376	215.246
801.427	199.117
801.478	210.133
801.529	206.026
801.58	201.527
801.631	205.955
801.682	206.607
801.732	199.366
801.783	200.666
801.834	203.354
801.885	198.708
801.936	209.293
801.987	196.513
802.038	196.37
802.088	192.446
802.139	194.986
802.19	200.373
802.241	208.52
802.292	193.831
802.343	197.183
802.393	193.588
802.444	202.287
802.495	198.272
802.546	201.411
802.597	205.198
802.648	200.268
802.698	197.681
802.749	193.88
802.8	194.673
802.851	195.822
802.902	202.159
802.953	200.297
803.004	198.804
803.054	201.852
803.105	195.604
803.156	194.808
803.207	200.644
803.258	189.367
803.309	195.719
803.359	201.436
803.41	205.902
803.461	200.41
803.512	194.771
803.563	193.558
803.614	188.404
803.664	183.286
803.715	195.061
803.766	192.12
803.817	198.268
803.868	202.474
803.919	198.022
803.969	199.359
804.02	193.86
804.071	175.9
804.122	193.483
804.173	191.54
804.223	191.459
804.274	186.114
804.325	187.648
804.376	188
804.427	188.929
804.478	189.717
804.528	183.001
804.579	176.12
804.63	205.433
804.681	186.757
804.732	182.44
804.782	178.849
804.833	183.189
804.884	188.693
804.935	186.424
804.986	187.584
805.036	190.787
805.087	180.213
805.138	177.185
805.189	198.531
805.24	192.567
805.291	188.932
805.341	185.473
805.392	186.673
805.443	184.057
805.494	195.143
805.545	192.632
805.595	182.144
805.646	185.283
805.697	186.918
805.748	180.831
805.799	191.355
805.849	190.474
805.9	187.71
805.951	174.661
806.002	183.304
806.053	188.327
806.103	192.593
806.154	175.32
806.205	189.718
806.256	182.424
806.307	179.364
806.357	195.555
806.408	193.316
806.459	177.328
806.51	183.259
806.561	177.812
806.611	192.272
806.662	179.024
806.713	173.778
806.764	171.537
806.815	175.53
806.865	181.505
806.916	183.247
806.967	181.527
807.018	175.543
807.068	171.729
807.119	178.37
807.17	182.054
807.221	174.079
807.272	178.882
807.322	175.873
807.373	169.558
807.424	179.664
807.475	176.769
807.526	176.605
807.576	179.718
807.627	170.554
807.678	176.27
807.729	183.977
807.779	180.375
807.83	181.075
807.881	176.096
807.932	170.993
807.982	174.819
808.033	160.517
808.084	160.203
808.135	178.416
808.186	174.086
808.236	175.289
808.287	168.322
808.338	172.643
808.389	167.933
808.439	168.199
808.49	168.254
808.541	173.324
808.592	171.075
808.643	179.795
808.693	178.421
808.744	182.535
808.795	171.434
808.846	168.299
808.896	162.993
808.947	156.948
808.998	168.437
809.049	161.504
809.099	160.423
809.15	169.189
809.201	176.005
809.252	175.494
809.302	175.48
809.353	170.423
809.404	159.83
809.455	175.026
809.505	174.16
809.556	159.432
809.607	168.624
809.658	174.452
809.708	161.941
809.759	177.381
809.81	179.734
809.861	162.899
809.911	162.53
809.962	162.126
810.013	170.393
810.064	160.465
810.114	171.307
810.133	182
810.183	166
810.234	164.004
810.285	174.001
810.336	170.014
810.387	144.17
810.438	165.922
810.489	165.871
810.54	168.037
810.591	179.784
810.642	168.002
810.693	169.83
810.743	158.093
810.794	156.35
810.845	173.89
810.896	169.828
810.947	156.128
810.998	148.274
811.049	155.952
811.1	163.658
811.151	167.813
811.202	144.672
811.253	165.877
811.303	177.044
811.354	156.335
811.405	171.55
811.456	162.18
811.507	155.883
811.558	146.696
811.609	158.016
811.66	169.456
811.711	158.475
811.762	158.513
811.813	160.197
811.863	173.414
811.914	161.898
811.965	163.782
812.016	154.077
812.067	154.151
812.118	160.904
812.169	161.519
812.22	149.082
812.271	157.781
812.321	157.294
812.372	147.777
812.423	159.545
812.474	156.348
812.525	166.699
812.576	162.846
812.627	163.006
812.678	157.744
812.729	152.261
812.779	159.279
812.83	165.998
812.881	161.278
812.932	158.343
812.983	167.36
813.034	161.038
813.085	140.885
813.136	159.496
813.187	156.172
813.237	161.735
813.288	163.763
813.339	148.795
813.39	150.599
813.441	141.327
813.492	160.441
813.543	155.952
813.594	147.092
813.644	151.368
813.695	154.871
813.746	143.571
813.797	149.43
813.848	156.067
813.899	155.052
813.95	151.973
814.001	136.363
814.051	155.883
814.102	155.526
814.153	152.126
814.204	148.141
814.255	150.444
814.306	149.448
814.357	152.75
814.408	149.542
814.458	153.277
814.509	149.521
814.56	154.845
814.611	149.631
814.662	147.113
814.713	155.04
814.764	157.949
814.814	153.079
814.865	150.234
814.916	153.216
814.967	149.863
815.018	140.573
815.069	151.896
815.12	144.696
815.17	150.236
815.221	150.747
815.272	148.198
815.323	150.814
815.374	144.201
815.425	156.993
815.476	150.778
815.526	154.37
815.577	133.707
815.628	141.475
815.679	139.007
815.73	139.216
815.781	127.56
815.832	140.054
815.882	159.093
815.933	144.418
815.984	135.362
816.035	138.208
816.086	152.712
816.137	158.79
816.188	151.326
816.238	143.436
816.289	149.127
816.34	142.433
816.391	139.637
816.442	144.523
816.493	142.579
816.543	141.704
816.594	139.375
816.645	137.891
816.696	153.146
816.747	143.026
816.798	142.265
816.848	142.977
816.899	146.581
816.95	140.915
817.001	135.781
817.052	135.04
817.103	146.91
817.153	150.123
817.204	146.121
817.255	134.443
817.306	144.659
817.357	126.977
817.408	139.87
817.458	138.26
817.509	152.725
817.56	143.222
817.611	143.015
817.662	137.407
817.713	135.847
817.763	136.376
817.814	142.327
817.865	137.2
817.916	139.839
817.967	134.387
818.018	135.261
818.068	134.21
818.119	141.182
818.17	134.807
818.221	138.774
818.272	138.828
818.323	142.34
818.373	137.9
818.424	138.736
818.475	142.82
818.526	139.466
818.577	131.561
818.627	137.479
818.678	133.996
818.729	134.739
818.78	135.105
818.831	137.411
818.881	137.738
818.932	145.075
818.983	138.33
819.034	142.876
819.085	140.732
819.135	137.68
819.186	127.468
819.237	134.842
819.288	128.674
819.339	138.296
819.39	136.126
819.44	139.811
819.491	140.009
819.542	140.226
819.593	128.019
819.644	127.827
819.694	135.444
819.745	134.876
819.796	138.692
819.847	136.811
819.898	132.746
819.948	133.116
819.999	128.266
820.05	124.309
820.101	133.869
820.152	138.836
820.202	115.818
820.253	129.73
820.304	135.056
820.355	130.615
820.406	131.379
820.456	125.782
820.507	130.405
820.558	128.743
820.609	125.986
820.66	131.189
820.71	136.81
820.761	126.964
820.812	126.448
820.863	126.311
820.914	131.675
820.964	126.483
821.015	125.921
821.066	121.683
821.117	131.539
821.167	124.786
821.218	125.83
821.269	129.866
821.32	133.987
821.371	130.081
821.421	130.869
821.472	130.135
821.523	121.144
821.574	120.603
821.624	131.002
821.675	129.234
821.726	125.431
821.777	130.88
821.828	124.974
821.878	131.88
821.929	127.968
821.98	125.164
822.031	131.833
822.081	127.803
822.132	122.439
822.183	120.939
822.234	123.909
822.285	126.727
822.335	129.781
822.386	130.169
822.437	127.729
822.488	124.241
822.538	139.204
822.589	123.515
822.64	120.427
822.691	126.464
822.741	119.798
822.792	121.219
822.843	122.119
822.894	122.758
822.945	122.255
822.995	122.506
823.046	120.385
823.097	132.017
823.148	119.949
823.198	118.119
823.249	123.124
823.3	126.829
823.351	123.923
823.401	116.988
823.452	120.068
823.503	125.048
823.554	125.98
823.604	116.25
823.655	120.191
823.706	128.122
823.757	123.043
823.807	119.217
823.858	107.153
823.909	134.371
823.96	124
824.01	118.858
824.061	122.196
824.112	116.896
824.163	115.851
824.213	111.497
824.264	121.892
824.315	123.791
824.366	113.588
824.416	119.924
824.467	126.027
824.518	116.428
824.569	125.966
824.619	118.93
824.67	115.223
824.721	118.937
824.772	119.478
824.822	108.357
824.873	119.684
824.924	113.734
824.974	114.235
825.025	117.27
825.076	107.405
825.127	126.24
825.177	124.828
825.228	109.119
825.279	120.864
825.33	121.493
825.38	113.504
825.431	116.139
825.482	114.939
825.533	121.977
825.583	116.608
825.634	117.32
825.685	116.631
825.735	116.03
825.786	111.888
825.837	109.462
825.888	112
825.938	110.157
825.989	119.213
826.04	126.272
826.091	122.787
826.141	122.111
826.192	114.667
826.243	106.837
826.293	116.873
826.344	115.824
826.395	115.247
826.446	121.393
826.496	104.52
826.547	112.083
826.598	106.344
826.648	109.98
826.699	108
826.75	117.255
826.801	109.661
826.851	108.577
826.902	104.696
826.953	114.616
827.003	114.887
827.054	115.782
827.105	114.362
827.156	110.185
827.206	111.313
827.257	108.337
827.308	113.678
827.358	113.451
827.409	115.447
827.46	113.519
827.511	113.749
827.561	119.317
827.612	115.928
827.663	111.711
827.713	115.391
827.764	114.015
827.815	114
827.865	117.806
827.916	108.879
827.967	109.514
828.018	106.141
828.068	110.624
828.119	110.388
828.17	113.567
828.22	108.667
828.271	105.818
828.322	103.402
828.372	114.81
828.423	109.021
828.474	107.993
828.525	114.399
828.575	106.056
828.626	105.832
828.677	112
828.727	104.351
828.778	106.379
828.829	107.402
828.879	107.894
828.93	112.9
828.981	109.366
829.031	109.726
829.082	105.816
829.133	106.916
829.183	108
829.234	109.502
829.285	111.4
829.336	113.383
829.386	105.613
829.437	102
829.488	105.382
829.538	108.821
829.589	112.158
829.64	106.491
829.69	106.952
829.741	105.276
829.792	105.282
829.842	100.64
829.893	115.435
829.944	113.061
829.994	104.71
830.045	104.472
830.096	103.532
830.146	106.764
830.197	112.159
830.248	109.72
830.298	100.627
830.349	107.081
830.4	113.09
830.45	105.318
830.501	105.94
830.552	100.667
830.602	105.776
830.653	110.895
830.704	107.372
830.754	111.583
830.805	109.464
830.856	103.674
830.906	100.622
830.957	102.954
831.008	106.858
831.058	103.165
831.109	108.24
831.16	111.595
831.21	110.936
831.261	104.688
831.312	106.718
831.362	103.973
831.413	103.83
831.464	101.519
831.514	101.321
831.565	105.544
831.616	107.533
831.666	102.054
831.717	98.667
831.767	101.056
831.818	103.397
831.869	105.753
831.919	103.451
831.97	103.802
832.021	101.604
832.071	102.402
832.122	102.112
832.173	102.56
832.223	96.3663
832.274	99.3326
832.325	103.607
832.375	110.021
832.426	101.766
832.477	100.786
832.527	106
832.578	100.192
832.628	93.8364
832.679	99.771
832.73	105.033
832.78	101.977
832.831	96.9961
832.882	99.7441
832.932	100.482
832.983	101.511
833.034	100.317
833.084	98.4736
833.135	101.55
833.185	101.769
833.236	98.5621
833.287	101.816
833.337	102.352
833.388	99.383
833.439	98.6289
833.489	96.7263
833.54	98.0843
833.59	96.1364
833.641	99.1392
833.692	99.6296
833.742	97.5029
833.793	102.033
833.844	97.3899
833.894	92.6751
833.945	100.931
833.995	94.4285
834.046	90.9325
834.097	97.7548
834.147	102.609
834.198	105.69
834.249	103.943
834.299	96.1004
834.35	101.935
834.4	102.49
834.451	97.2411
834.502	102.912
834.552	103.774
834.603	100.216
834.653	100.747
834.704	98.2231
834.755	99.6717
834.805	102.275
834.856	97.4574
834.906	93.8082
834.957	94.4599
835.008	97.0064
835.058	101.984
835.109	94.3623
835.16	91.9284
835.21	98.1836
835.261	100.566
835.311	96.4803
835.362	108.221
835.413	103.659
835.463	101.711
835.514	95.8532
835.564	96.6476
835.615	98.2971
835.666	99.2844
835.716	97.6169
835.767	96.5627
835.817	96.7337
835.868	93.3199
835.919	96.2236
835.969	90.8678
836.02	94.4143
836.07	96.7786
836.121	100.405
836.161	102
836.212	100
836.263	99.9883
836.314	95.9959
836.365	96.0161
836.415	86.1183
836.466	105.868
836.517	97.9273
836.568	101.976
836.618	95.8275
836.669	91.9875
836.72	99.9778
836.771	105.647
836.821	107.755
836.872	97.7775
836.923	109.7
836.974	92.2838
837.024	84.4508
837.075	89.9559
837.126	101.772
837.177	94.3133
837.227	96.0695
837.278	93.7714
837.329	101.327
837.38	99.7199
837.43	80.3862
837.481	101.16
837.532	88.4789
837.583	92.2843
837.633	86.8608
837.684	88.2258
837.735	95.9673
837.786	105.257
837.836	86.5517
837.887	88.228
837.938	92.061
837.989	99.4963
838.039	88.6817
838.09	97.6264
838.141	102.867
838.192	95.5055
838.242	86.9732
838.293	93.8438
838.344	99.4864
838.395	88.077
838.445	90.1388
838.496	91.9303
838.547	92.1952
838.598	101.581
838.648	92.4291
838.699	100.646
838.75	99.9143
838.801	91.7625
838.851	91.5403
838.902	90.9598
838.953	86.4346
839.003	88.9966
839.054	94.2891
839.105	94.8227
839.156	88.1456
839.206	86.462
839.257	83.771
839.308	90.6456
839.359	90.3974
839.409	97.6693
839.46	95.8397
839.511	86.36
839.562	101.857
839.612	97.0305
839.663	77.6108
839.714	101.248
839.764	88.9119
839.815	85.7933
839.866	85.6517
839.917	90.5812
839.967	88.0235
840.018	89.755
840.069	85.0983
840.119	85.0486
840.17	89.5199
840.221	88.1225
840.272	91.0049
840.322	81.0057
840.373	90.0594
840.424	86.0163
840.474	87.2114
840.525	94.0157
840.576	88.8015
840.627	86.3024
840.677	92
840.728	84.395
840.779	96.1943
840.829	84.1724
840.88	86.7815
840.931	89.073
840.982	77.6681
841.032	86
841.083	90.6727
841.134	96.3922
841.184	98.6467
841.235	87.3052
841.286	85.4918
841.337	97.851
841.387	97.8015
841.438	85.7611
841.489	87.2122
841.539	84.1944
841.59	92.7979
841.641	83.0033
841.691	83.7964
841.742	84.4364
841.793	78.1346
841.844	80.865
841.894	88.4708
841.945	85.7806
841.996	81.7769
842.046	85.1185
842.097	87.3396
842.148	83.9814
842.198	88.8693
842.249	89.0423
842.3	87.9787
842.351	85.579
842.401	88.5734
842.452	80.7333
842.503	85.7122
842.553	90.3463
842.604	91.5069
842.655	82.5361
842.705	89.7328
842.756	88.0348
842.807	94.1247
842.857	81.0749
842.908	84.0562
842.959	87.7909
843.009	82.8904
843.06	88.0265
843.111	81.1686
843.161	87.634
843.212	94.3033
843.263	83.252
843.314	80.7757
843.364	85.9096
843.415	88.5287
843.466	80.9159
843.516	79.2035
843.567	81.1106
843.618	89.6058
843.668	83.7701
843.719	81.9023
843.77	87.507
843.82	87.7877
843.871	81.268
843.922	78.6032
843.972	82.3607
844.023	77.428
844.074	87.3197
844.124	83.943
844.175	88.9072
844.226	89.0991
844.276	86.1087
844.327	82.5773
844.378	87.1558
844.428	76.2385
844.479	88.3474
844.53	77.0576
844.58	84.312
844.631	83.9852
844.682	83.8249
844.732	82.0333
844.783	84.0462
844.834	79.5285
844.884	85.831
844.935	83.2788
844.986	84.8086
845.036	77.255
845.087	91.1361
845.138	75.1129
845.188	83.043
845.239	79.8729
845.29	79.8566
845.34	78.73
845.391	89.5109
845.442	84.7667
845.492	84.1456
845.543	80.0002
845.594	87.6673
845.644	84.4293
845.695	74.4287
845.745	74.2673
845.796	79.4755
845.847	84.7152
845.897	81.4912
845.948	85.9152
845.999	79.6342
846.049	80.9503
846.1	83.0404
846.151	76.2793
846.201	85.8178
846.252	82.3422
846.303	80.8514
846.353	82.4657
846.404	81.7635
846.455	83.3962
846.505	83.7671
846.556	71.2544
846.606	75.6805
846.657	76.7413
846.708	70.3306
846.758	76.4226
846.809	79.8026
846.86	80.6274
846.91	85.0018
846.961	75.3364
847.012	84.0151
847.062	71.9942
847.113	82.1666
847.163	76.0982
847.214	83.4579
847.265	82.3765
847.315	86.1731
847.366	75.4796
847.417	82.421
847.467	74.7285
847.518	86.2583
847.568	84.4227
847.619	87.0656
847.67	79.5668
847.72	85.4512
847.771	77.8134
847.822	81.7885
847.872	81.9487
847.923	76.7205
847.973	79.6129
848.024	77.7001
848.075	71.7979
848.125	81.4209
848.176	75.6913
848.227	73.6651
848.277	77.3931
848.328	75.4671
848.378	76.9372
848.429	74.6209
848.48	83.2525
848.53	76.6336
848.581	72.4697
848.631	79.7509
848.682	78.7724
848.733	71.7426
848.783	75.1598
848.834	84.3614
848.885	79.3463
848.935	78.8318
848.986	73.8243
849.036	73.2184
849.087	81.2203
849.138	83.6887
849.188	76.3538
849.239	80.73
849.289	76.2725
849.34	83.666
849.391	78.0967
849.441	76.968
849.492	72.0521
849.542	71.9398
849.593	74.1357
849.644	82.0438
849.694	78.1932
849.745	81.0754
849.795	74.8331
849.846	76.987
849.897	80.9147
849.947	74.092
849.998	74.839
850.048	76.1395
850.099	80.9321
850.15	77.3705
850.2	71.5615
850.251	74.4385
850.301	80.9139
850.352	72.9676
850.403	73.8121
850.453	76.648
850.504	79.1547
850.554	70.6765
850.605	64.3662
850.656	70.6694
850.706	76.5645
850.757	81.6237
850.807	75.5595
850.858	71.0777
850.908	73.3434
850.959	71.0436
851.01	74.5296
851.06	76.3571
851.111	72.3819
851.161	70.695
851.212	71.9207
851.263	73.5513
851.313	80.9878
851.364	76.0289
851.414	66.3832
851.465	76.0011
851.515	74.5674
851.566	75.7402
851.617	74.5493
851.667	73.6164
851.718	73.8793
851.768	74.7799
851.819	70.3894
851.869	74.9539
851.92	72.6993
851.971	75.0719
852.021	71.221
852.072	75.7329
852.122	62.3063
852.173	74.5626
852.223	80.905
852.274	73.9185
852.325	71.8642
852.375	71.0077
852.426	79.8467
852.476	70.1978
852.527	75.1918
852.577	70.7378
852.628	74.254
852.678	71.4954
852.729	73.274
852.78	74
852.83	74.683
852.881	70.2218
852.931	70.5959
852.982	71.655
853.032	75.1396
853.083	70.4917
853.133	76.6593
853.184	69.87
853.235	66.7278
853.285	68.2136
853.336	73.69
853.386	75.2554
853.437	76.183
853.487	68.0094
853.538	76.2436
853.588	68.8326
853.639	72.7029
853.69	70.9616
853.74	72.4668
853.791	70.1747
853.841	69.7431
853.892	65.0867
853.942	74.0865
853.993	67.4221
854.043	71.7646
854.094	68.1975
854.144	66.1078
854.195	72.1722
854.246	69.0424
854.296	68.0634
854.347	68.6234
854.397	65.1608
854.448	63.5293
854.498	69.0506
854.549	68.9432
854.599	70.0865
854.65	72.8855
854.7	70.0945
854.751	70.5839
854.801	65.8607
854.852	66.5435
854.902	70.4466
854.953	68.3386
855.004	73.9646
855.054	77.6934
855.105	73.737
855.155	66.5363
855.206	65.1206
855.256	66.8585
855.307	71.8508
855.357	73.91
855.408	71.0694
855.458	67.3701
855.509	69.6076
855.559	66.966
855.61	66.0303
855.66	68.4209
855.711	75.2597
855.761	75.2327
855.812	73.5127
855.862	72.534
855.913	71.7085
855.964	65.3867
856.014	63.6582
856.065	69.1573
856.115	67.3174
856.166	63.855
856.216	69.5284
856.267	73.6904
856.317	70.0243
856.368	66.8885
856.418	69.1223
856.469	67.9565
856.519	67.9263
856.57	69.076
856.62	67.8145
856.671	70.9661
856.721	68.7282
856.772	68.8904
856.822	66.0772
856.873	71.1571
856.923	71.9026
856.974	71.9238
857.024	65.9172
857.075	64.0925
857.125	64.4898
857.176	66.1648
857.226	63.5907
857.277	70.0479
857.327	70.6796
857.378	63.9611
857.428	63.4481
857.479	70.3625
857.529	72.5787
857.58	68.3145
857.63	70.3942
857.681	68.637
857.731	64.1869
857.782	64.494
857.832	70.9536
857.883	70.9495
857.933	64.4753
857.984	64.8708
858.034	63.7998
858.085	66.2608
858.135	69.3931
858.186	67.4989
858.236	62.6782
858.287	65.2094
858.337	65.3695
858.388	61.884
858.438	62.6261
858.489	71.8942
858.539	69.6648
858.589	67.5837
858.64	66.0105
858.69	70
858.741	67.6859
858.791	65.0085
858.842	66.9557
858.892	71.0575
858.943	68.4893
858.993	65.1437
859.044	62.3368
859.094	68.0231
859.145	68.3672
859.195	67.738
859.246	66.53
859.296	69.3483
859.347	68.8751
859.397	62.1668
859.448	58.0566
859.498	68.8841
859.549	69.3225
859.599	68.867
859.649	69.2407
859.7	68.0342
859.75	66.2041
859.801	63.7867
859.851	65.879
859.902	64.4046
859.952	64.8654
860.003	58.5358
860.053	66.992
860.104	71.6769
860.154	66.7552
860.205	57.2011
860.255	60.828
860.305	65.9958
860.356	70.1295
860.406	65.235
860.457	63.3262
860.507	66.3548
860.558	60.3581
860.608	60.6876
860.659	61.7697
860.709	62.2208
860.76	63.6471
860.81	60.3452
860.861	70.8969
860.911	71.9263
860.961	64.8034
861.012	57.4105
861.062	63.6434
861.113	67.4068
861.163	64.0379
861.214	58.4166
861.264	57.5003
861.315	65.6967
861.365	65.5148
861.415	63.5713
861.466	63.4245
861.516	67.0164
861.567	63.7945
861.617	63.5436
861.668	64.7378
861.718	72.8772
861.769	68.6598
861.819	64.3889
861.869	67.2578
861.92	71.5259
861.97	69.1546
862.021	65.1528
862.071	65.2103
862.112	77.9844
862.162	69.984
862.213	69.9375
862.263	56.007
862.314	62.0044
862.365	69.909
862.415	61.959
862.466	65.9191
862.516	64.0278
862.567	65.8561
862.618	57.9518
862.668	61.9916
862.719	56.1656
862.77	62.063
862.82	65.8991
862.871	71.6374
862.921	71.652
862.972	57.9762
863.023	63.7658
863.073	65.8603
863.124	62.1261
863.174	73.5683
863.225	58.0751
863.276	60.2213
863.326	64.07
863.377	61.8319
863.427	52.4384
863.478	63.7608
863.529	67.5182
863.579	61.8731
863.63	58.3262
863.68	54.9267
863.731	65.8404
863.782	65.7598
863.832	56.3112
863.883	61.7327
863.933	60.2271
863.984	63.9142
864.034	60.2363
864.085	58.4551
864.136	67.4443
864.186	57.8277
864.237	50.5062
864.287	63.6608
864.338	63.653
864.389	72.9372
864.439	61.9993
864.49	59.9075
864.54	52.6611
864.591	64.9461
864.642	68.1276
864.692	68.5844
864.743	65.2867
864.793	57.7994
864.844	61.4546
864.894	58.1135
864.945	56.3244
864.996	59.8948
865.046	58.3195
865.097	66.4137
865.147	57.2744
865.198	66.7807
865.248	54.9521
865.299	63.4414
865.35	61.4456
865.4	61.8863
865.451	63.1371
865.501	56.546
865.552	64.6508
865.603	67.3293
865.653	62.3889
865.704	60.9239
865.754	57.8037
865.805	55.5476
865.855	50.9447
865.906	68.5283
865.956	65.2282
866.007	53.0148
866.058	58.584
866.108	63.6525
866.159	58.1258
866.209	58.4443
866.26	54.9057
866.31	66.8107
866.361	60.4214
866.412	64.2567
866.462	57.871
866.513	64.0357
866.563	56.9649
866.614	57.6061
866.664	55.1498
866.715	59.3814
866.766	61.0835
866.816	58.2027
866.867	59.1584
866.917	66.1384
866.968	66.2516
867.018	60.398
867.069	55.2431
867.119	65.4412
867.17	63.1994
867.22	54.9419
867.271	54.9344
867.322	62.5197
867.372	67.154
867.423	58.0875
867.473	59.6278
867.524	63.9045
867.574	54.423
867.625	56.1337
867.675	56.5645
867.726	63.3974
867.776	69.8461
867.827	53.0612
867.878	60.6125
867.928	54.1983
867.979	59.1554
868.029	59.3473
868.08	59.8686
868.13	58.1312
868.181	62.9297
868.231	59.3958
868.282	62.4798
868.332	66.296
868.383	60.1246
868.433	57.8544
868.484	57.5543
868.535	58.7498
868.585	61.2489
868.636	57.4951
868.686	54.635
868.737	60.7229
868.787	56.8418
868.838	55.2083
868.888	53.1726
868.939	59.4717
868.989	60.8139
869.04	56
869.09	57.0975
869.141	57.5205
869.191	53.8807
869.242	56.5816
869.292	62.012
869.343	56.653
869.394	61.0814
869.444	55.9314
869.495	52.4551
869.545	62
869.596	61.442
869.646	53.7496
869.697	65.0663
869.747	53.7719
869.798	63.5144
869.848	54.8102
869.899	58.2888
869.949	65.3575
870	58.7768
870.05	55.1256
870.101	57.9536
870.151	61.0474
870.202	62.3595
870.252	53.5631
870.303	56.1891
870.353	61.0838
870.404	55.2675
870.454	61.754
870.505	62.2294
870.555	61.738
870.606	57.1721
870.656	53.5924
870.707	58
870.757	61.833
870.808	56.7336
870.858	49.3821
870.909	59.7328
870.959	54.3183
871.01	53.2242
871.06	53.1881
871.111	65.048
871.161	60.4672
871.212	60.5468
871.262	52.1228
871.313	62.7511
871.363	59.2796
871.414	56.1144
871.464	50.7836
871.515	52.6527
871.565	61.6651
871.616	54.6357
871.666	53.3084
871.717	59.2118
871.767	59.2341
871.818	54.9981
871.868	57.63
871.919	59.2783
871.969	57.3205
872.02	51.6694
872.07	51.1281
872.121	58.634
872.171	54.8383
872.222	50.8733
872.272	48.5746
872.323	55.1036
872.373	53.9675
872.424	56.0405
872.474	51.613
872.525	60.7797
872.575	54.8041
872.626	53.9922
872.676	47.6355
872.727	53.996
872.777	52.3588
872.828	53.986
872.878	47.5531
872.929	59.2706
872.979	52.9649
873.03	48.9356
873.08	61.6989
873.13	54.8519
873.181	55.8017
873.231	54.2517
873.282	55.9355
873.332	57.2026
873.383	55.5535
873.433	51.2893
873.484	60.3331
873.534	58.1436
873.585	60.2261
873.635	54.3793
873.686	55.9204
873.736	55.9761
873.787	56.0631
873.837	49.356
873.888	58.7387
873.938	58.733
873.988	54.7655
874.039	49.3938
874.089	56.9746
874.14	56.9838
874.19	56.2215
874.241	49.9679
874.291	50.7292
874.342	54.2094
874.392	50.7163
874.443	53.2217
874.493	51.4714
874.544	60.4255
874.594	58.6828
874.644	56.9688
874.695	53.7583
874.745	52.5918
874.796	52.8091
874.846	51.0886
874.897	53.8373
874.947	57.3262
874.998	54.0078
875.048	45.6031
875.099	56.3612
875.149	57.5259
875.199	49.0894
875.25	51.6519
875.3	62
875.351	53.8469
875.401	46.9069
875.452	47.2736
875.502	54.5227
875.553	55.7318
875.603	52.5227
875.653	51.2955
875.704	54.1014
875.754	53.1418
875.805	49.883
875.855	51.5694
875.906	57.341
875.956	57.0702
876.006	52.8503
876.057	49.0757
876.107	54.5011
876.158	58.7727
876.208	53.2955
876.259	52.5923
876.309	54.842
876.36	52.4618
876.41	53.1053
876.46	50.5885
876.511	54.0175
876.561	54.3648
876.612	52.5148
876.662	50.9391
876.713	50.2859
876.763	47.3977
876.813	47.438
876.864	52.1159
876.914	58.6239
876.965	51.2478
877.015	49.5254
877.065	53.1694
877.116	50.8318
877.166	48.4847
877.217	52
877.267	49.5146
877.318	53.6468
877.368	53.0605
877.418	46.8114
877.469	49.7131
877.519	54.8638
877.57	53.6346
877.62	50.3764
877.671	50.7747
877.721	54.0479
877.771	56.3538
877.822	52.7601
877.872	54.7743
877.923	49.5667
877.973	49.8998
878.023	52.8755
878.074	51.7206
878.124	57.82
878.175	53.7636
878.225	48.0482
878.276	50.9886
878.326	54.7947
878.376	50.6496
878.427	48.5224
878.477	52.3159
878.528	53.8279
878.578	48.6671
878.628	51.9678
878.679	53.4386
878.729	51.219
878.78	55.3165
878.83	50.4604
878.88	50.8443
878.931	54.9181
878.981	54.0582
879.031	51.384
879.082	49.1563
879.132	49.5012
879.183	46.4781
879.233	43.9171
879.284	44.275
879.334	50.2645
879.384	52.6706
879.435	44.2968
879.485	53.9237
879.535	53.5662
879.586	50.1338
879.636	50.9015
879.687	48.3584
879.737	49.6884
879.787	53.9985
879.838	47.1986
879.888	48.8946
879.939	51.0972
879.989	52.7074
880.039	50.368
880.09	55.6535
880.14	56.1107
880.19	52.083
880.241	45.4616
880.291	46.0136
880.342	52.5889
880.392	50.501
880.442	46.6778
880.493	51.1579
880.543	52.5337
880.594	54
880.644	48.0915
880.694	55.2284
880.745	53.7607
880.795	48.8991
880.845	45.7361
880.896	47.6321
880.946	47.9458
880.996	50.6998
881.047	49.1973
881.097	49.8745
881.148	48.6532
881.198	47.4053
881.248	46.6903
881.299	51.9242
881.349	50.2013
881.399	47.4875
881.45	49.1111
881.5	49.6762
881.551	47.3016
881.601	51.695
881.651	44.2871
881.702	45.4001
881.752	52.3835
881.802	54.7106
881.853	52.8915
881.903	54.6757
881.953	52.417
882.004	47.6461
882.054	47.5053
882.104	48.2392
882.155	51.2343
882.205	44.7958
882.256	44.7418
882.306	53.1161
882.356	53.4548
882.407	48.9255
882.457	46.5395
882.507	46.0395
882.558	46.5313
882.608	46.2319
882.658	49.085
882.709	49.3964
882.759	48.8751
882.809	44.0112
882.86	41.8793
882.91	47.1029
882.96	46.9066
883.011	46.941
883.061	47.5517
883.111	48
883.162	46.3457
883.212	45.2382
883.262	48.7848
883.313	45.1301
883.363	47.5413
883.413	46.4067
883.464	42.2912
883.514	47.0878
883.565	53.414
883.615	47.8905
883.665	47.1966
883.716	52.4387
883.766	52.2361
883.816	44.0934
883.867	52.7643
883.917	53.1699
883.967	47.5916
884.017	45.1864
884.068	47.5249
884.118	49.6707
884.168	45.6081
884.219	44.5868
884.269	38.2387
884.319	47.1108
884.37	49.2652
884.42	47.2465
884.47	50.3511
884.521	50.2001
884.571	48.9389
884.621	48.2608
884.672	53.5449
884.722	48.6832
884.772	53.3619
884.823	45.9166
884.873	50.9277
884.923	51.5259
884.974	45.4919
885.024	51.0168
885.074	50.1253
885.125	47.3598
885.175	48.5952
885.225	47.8526
885.276	48.5007
885.326	52.3415
885.376	44.929
885.426	40.464
885.477	45.7525
885.527	45.5363
885.577	52.7526
885.628	52.6593
885.678	44.5269
885.728	53.4986
885.779	48.0525
885.829	46
885.879	46.0546
885.93	43.8593
885.98	43.2022
886.03	54.8209
886.08	43.7289
886.131	53.2765
886.181	40.1441
886.231	47.9639
886.282	37.7557
886.332	49.6975
886.382	46.3531
886.432	47.7218
886.483	44.7978
886.533	54.2179
886.583	41.0418
886.634	46.8189
886.684	41.7264
886.734	45.6268
886.785	42.8732
886.835	49.2793
886.885	47.8615
886.935	51.6254
886.986	45.9994
887.036	53.1497
887.086	44.6789
887.137	49.9776
887.187	44.1733
887.237	50.9199
887.287	46.0414
887.338	42.4947
887.388	44.0486
887.438	49.7307
887.489	44.0023
887.539	46.1938
887.589	47.753
887.639	42.1593
887.69	45.8212
887.74	46.0723
887.79	40.0933
887.841	41.9317
887.891	45.914
887.941	40.2307
887.943	40.067
887.993	48.0022
888.044	49.9274
888.094	49.9305
888.144	38.0288
888.195	43.8382
888.245	47.8244
888.296	51.8022
888.346	47.7128
888.397	45.8257
888.447	41.9664
888.498	45.6888
888.548	45.819
888.599	49.6735
888.649	40.0899
888.699	49.6794
888.75	45.661
888.8	47.7437
888.851	49.7822
888.901	42.4597
888.952	45.7004
889.002	53.1259
889.053	44.1335
889.103	52.8564
889.153	54.5039
889.204	42.4398
889.254	44.367
889.305	42.5198
889.355	40.1199
889.406	49.5234
889.456	45.7052
889.507	49.1082
889.557	42.7277
889.607	50.6494
889.658	45.7054
889.708	48.5892
889.759	39.2665
889.809	47.102
889.86	39.847
889.91	47.0802
889.96	39.5741
890.011	52.2502
890.061	49.3699
890.112	44.4589
890.162	46.6786
890.213	44.4564
890.263	44.8055
890.313	55.3926
890.364	38.724
890.414	51.3606
890.465	41.7745
890.515	46.9913
890.566	33.7552
890.616	44.5373
890.666	39.0806
890.717	47.5544
890.767	43.2776
890.818	40.7897
890.868	40.3056
890.919	41.3025
890.969	42.3066
891.019	44.9354
891.07	44.2215
891.12	47.3237
891.171	46.2327
891.221	46.3482
891.271	45.5413
891.322	45.3911
891.372	40.0965
891.423	46.3451
891.473	45.4066
891.523	46.7967
891.574	40.0285
891.624	47.6057
891.675	45.3954
891.725	44.9238
891.776	45.7187
891.826	44.7481
891.876	49.149
891.927	49.3278
891.977	40.029
892.028	45.2229
892.078	44.6141
892.128	42
892.179	41.8203
892.229	42.2886
892.28	48.7529
892.33	41.406
892.38	47.7718
892.431	46.331
892.481	45.21
892.532	44.6879
892.582	41.3944
892.632	42.6642
892.683	44.7179
892.733	42.4333
892.784	45.224
892.834	41.9451
892.884	46.2807
892.935	43.166
892.985	43.0275
893.036	36.9758
893.086	43.2614
893.136	41.2385
893.187	45.9274
893.237	42.3412
893.288	49.4361
893.338	44.3983
893.388	45.5486
893.439	42.9613
893.489	47.116
893.539	43.6555
893.59	42.7917
893.64	42.402
893.691	46.1983
893.741	41.8776
893.791	47.1495
893.842	41.2078
893.892	46.8244
893.943	44.0676
893.993	43.9601
894.043	40
894.094	48
894.144	41
894.194	42.0012
894.245	45.9976
894.295	48.9855
894.346	37.0507
894.396	42.9275
894.446	38.1159
894.497	46.8732
894.547	34.1522
894.597	42.9034
894.648	40
894.698	44.8792
894.749	39.1304
894.799	40.0362
894.849	39.1196
894.9	41.913
894.95	38.9082
895	46.8514
895.051	45.156
895.101	47.8889
895.151	42.1775
895.202	43.9384
895.252	42.8696
895.303	47.9312
895.353	43.0713
895.403	44.7754
895.454	43.5495
895.504	43.5894
895.554	40.4232
895.605	44.6522
895.655	38.3623
895.706	40.7174
895.756	43.8065
895.806	43.1002
895.857	44.8961
895.907	41.4256
895.957	45.7802
896.008	38.3406
896.058	46.4196
896.108	46.2391
896.159	43.1221
896.209	44.372
896.259	44.3877
896.31	47.4728
896.36	42.8116
896.41	40.7243
896.461	44.1425
896.511	34.8768
896.561	39.4051
896.612	43.2391
896.662	43.6191
896.713	40.5254
896.763	44.3216
896.813	38.3285
896.864	41
896.914	40.4855
896.964	36.6965
897.015	44.1123
897.065	47.1802
897.115	42.1848
897.166	44.3748
897.216	42.2406
897.266	39.5797
897.317	41.3942
897.367	45.1981
897.417	41.2031
897.468	41.8271
897.518	41.7391
897.568	40.4897
897.619	38.9178
897.669	40.6594
897.719	42.3325
897.77	41
897.82	44
897.87	46.5333
897.921	38.7074
897.971	42.5217
898.021	41.243
898.072	41.2455
898.122	36.4982
898.172	42.2428
898.223	41.0254
898.273	43.7062
898.323	37.312
898.374	40.2056
898.424	39.2693
898.474	42.2721
898.524	39.7243
898.575	42
898.625	43.4365
898.675	44.2842
898.726	40
898.776	43.5386
898.826	39.6554
898.877	40.5067
898.927	40.6022
898.977	38
899.028	42.075
899.078	41.3108
899.128	37.2576
899.179	37.046
899.229	38.6796
899.279	42.0278
899.33	44.9831
899.38	41.6626
899.43	42.6663
899.48	46.3253
899.531	39.659
899.581	42.6892
899.631	38.0411
899.682	42.896
899.732	43.48
899.782	43.4946
899.833	38.1693
899.883	43.5441
899.933	41.4704
899.984	37.7409
