#Acq. time (s)=	3
#Accumulations=	2
#Range (nm)=	520...900
#Windows=	16
#Auto scanning=	On
#Autofocus=	Off
#AutoExposure=	Off
#Spike filter=	Multiple accum.
#Delay time (s)=	0
#Binning=	1
#Readout mode=	Signal
#DeNoise=	Off
#ICS correction=	Off
#Dark correction=	Off
#Inst. Process=	Off
#Detector temperature (°C)=	-59.98
#Instrument=	LabRAM HR Evol
#Detector=	Syncerity OE
#Objective=	x50_VIS
#Grating=	600 (500nm)
#ND Filter=	10%
#Laser=	514nm_Edge
#Hole=	199.981
#Range=	Auto
#StageXY=	Marzhauser
#StageZ=	Marzhauser
#X (µm)=	-4700.1
#Y (µm)=	-8959.1
#Z (µm)=	-21.1
#Full time(mm:ss)=	2:39
#Project=	
#Sample=	
#Site=	
#Title=	PL_SCD3_121223
#Remark=	
#Date=	21.12.2023 09:54
#Acquired=	21.12.2023 09:54:48
520.042	37
520.094	35
520.147	32
520.199	35
520.251	30.1953
520.304	32.8976
520.356	28.8952
520.408	31.1607
520.461	32.114
520.513	31.8254
520.565	32.8813
520.618	37.0628
520.67	35
520.723	35
520.775	30.9325
520.827	34.1395
520.88	34.8556
520.932	36.0733
520.984	29.1513
521.037	34.8463
521.089	35
521.141	34.0815
521.194	33.6694
521.246	37.17
521.298	36.9139
521.351	40.8209
521.403	32.2724
521.455	30.3725
521.508	30.0943
521.56	36
521.612	29.6088
521.665	39.7977
521.717	33.6147
521.769	29.6857
521.822	30.7881
521.874	33.2165
521.926	31.1094
521.979	35.8882
522.031	34.4354
522.083	38.2305
522.136	34.3558
522.188	33.8801
522.24	32.8778
522.293	37
522.345	33.1257
522.397	34.2561
522.45	40.0955
522.502	40.5262
522.554	30.4016
522.607	32.5949
522.659	34
522.711	36.8603
522.764	28.8452
522.816	33.5704
522.868	37.1269
522.921	40.44
522.973	34.447
523.025	31.8487
523.078	29
523.13	38.071
523.182	31.2573
523.234	28.1595
523.287	35.1967
523.339	32.8149
523.391	33.5041
523.444	32.3353
523.496	32.3248
523.548	37
523.601	36.8277
523.653	32.6985
523.705	30.8231
523.758	33.1781
523.81	37.4587
523.862	32.7311
523.915	35.4447
523.967	36.8126
524.019	37.8112
524.072	34.7637
524.124	32.2317
524.176	38
524.229	36.3935
524.281	35.8009
524.333	33.7995
524.385	40
524.438	36.2049
524.49	32
524.542	34.4191
524.595	35
524.647	38.3644
524.699	33.071
524.752	35.1339
524.804	35.7811
524.856	36.6608
524.909	27.3341
524.961	35.7532
525.013	37.908
525.066	34
525.118	34
525.17	37.3015
525.222	34.7028
525.275	35
525.327	35.7614
525.379	35.2762
525.432	36.2165
525.484	42.2631
525.536	38
525.589	41.2517
525.641	28.2631
525.693	34.2235
525.745	32.2552
525.798	36.5145
525.85	34
525.902	33.2608
525.955	33
526.007	40.2028
526.059	36.8033
526.112	36.9197
526.164	35.8147
526.216	37.7264
526.268	39.7238
526.321	38.5565
526.373	32.7203
526.425	37.7183
526.478	37
526.53	39.7133
526.582	35
526.635	38.5804
526.687	35
526.739	33.2937
526.791	29.1874
526.844	33.8065
526.896	36.3004
526.948	33.697
527.001	31
527.053	36.7739
527.105	32.851
527.157	38.7552
527.21	37
527.262	39.3706
527.314	37.2712
527.367	33.3193
527.419	32.3205
527.471	34.3818
527.523	35.9755
527.576	33.3271
527.628	32.3403
527.68	36.6682
527.733	35.669
527.785	37.6643
527.837	35
527.889	37
527.942	33.683
527.994	38.3446
528.046	32.9615
528.099	35
528.151	36.3508
528.203	35.9406
528.255	33.3551
528.308	38
528.36	34.7179
528.412	32
528.464	35.2727
528.517	36.6352
528.569	35.1014
528.621	35.1071
528.674	32.141
528.726	36.6259
528.778	38
528.83	39.7576
528.883	34.4802
528.935	40.1469
528.987	38.1525
529.039	27.6131
529.092	34.4429
529.144	43.6096
529.196	36.1783
529.249	34.1839
529.301	34.4103
529.353	41.7995
529.405	34.2028
529.458	32.7902
529.51	36.5937
529.562	39.4079
529.614	38.359
529.667	36.6504
529.719	35.5862
529.771	38.1678
529.823	37.6764
529.876	33.683
529.928	27.7308
529.98	40.2984
530.033	40
530.085	35.2867
530.137	36.2751
530.189	34.7343
530.242	36.5641
530.294	34.4371
530.346	33.1199
530.398	39.6713
530.451	37.4452
530.503	35.3427
530.555	37.6538
530.607	39.3531
530.66	40.0932
530.712	34.3671
530.764	35.6259
530.816	38.3811
530.869	33.0769
530.921	33.9277
530.973	38.6014
531.025	33.8112
531.078	36.704
531.13	34.3124
531.182	33.6224
531.234	34.9557
531.287	38.5198
531.339	34.4825
531.391	40.0979
531.443	37.3979
531.496	35.5641
531.548	34.958
531.6	39.5245
531.652	36.4942
531.705	36
531.757	34.4988
531.809	33.9977
531.861	35.5105
531.914	35.9767
531.966	37.4924
532.018	40.5093
532.07	37.5117
532.123	38.542
532.175	34.4476
532.227	39
532.279	35.5216
532.332	38.4767
532.384	32.1026
532.436	33.9441
532.488	41.4697
532.541	36.5321
532.593	38.331
532.645	39
532.697	38.7774
532.75	34.8343
532.802	35.7156
532.854	40.5455
532.906	43.2867
532.958	38.9008
533.011	38.1049
533.063	39.8904
533.115	33.7855
533.167	34.8821
533.22	34
533.272	39.1795
533.324	40.3956
533.376	35.5676
533.429	31.5604
533.481	39.2493
533.533	42.4528
533.585	41.3514
533.638	36.1606
533.69	39.7391
533.742	37.145
533.794	36.3646
533.846	33.9575
533.899	39.5744
533.951	38.106
534.003	36.7529
534.055	36.5248
534.108	40
534.16	39.0587
534.212	39.4837
534.264	40.5532
534.316	34.7972
534.369	37.3123
534.421	38.7652
534.473	34.666
534.525	39.3183
534.578	40.7575
534.63	38.7182
534.682	35.0197
534.734	38.6904
534.786	40.683
534.839	40.2621
534.891	37.294
534.943	35.3522
534.995	39.3522
535.047	36.8748
535.1	35.1292
535.152	41.4143
535.204	44.6063
535.256	40.6371
535.309	39.4344
535.361	41.5464
535.413	38.5769
535.465	38.7908
535.517	40.7145
535.57	43.6576
535.622	41.3268
535.674	40.5342
535.726	33.0819
535.778	41.953
535.831	44.4582
535.883	38.8121
535.935	39.5722
535.987	41.2807
536.039	37.2016
536.092	35.2574
536.144	33.8839
536.196	40.6443
536.248	43.0992
536.301	39.4297
536.353	34.6251
536.405	41.7083
536.457	37.3441
536.509	39.7897
536.562	37.3534
536.614	40.6326
536.666	40.0378
536.718	35.608
536.77	39.1013
536.823	42.1911
536.875	39.9596
536.927	40.916
536.979	39.6183
537.031	42.0666
537.083	37.8886
537.136	42.2555
537.188	38.6811
537.24	44.5029
537.292	40
537.344	36.4873
537.397	39.2679
537.449	42.6795
537.501	39.3431
537.553	39.9435
537.605	34.3677
537.658	41.9652
537.71	46
537.762	41.3369
537.814	40.7013
537.866	39.3268
537.919	40.9123
537.971	42.7271
538.023	40.9569
538.075	41.133
538.127	35.4348
538.18	39.4835
538.232	40.2041
538.284	44.38
538.336	43.6632
538.388	41.7692
538.44	38.248
538.493	41.764
538.545	38.401
538.597	39.1121
538.649	38.6558
538.701	38.8063
538.754	38.9934
538.806	37.4134
538.858	37.423
538.91	44.1372
538.962	39.1676
539.014	37.4227
539.067	38.5127
539.119	42.5695
539.171	43.3822
539.223	40.7598
539.275	40.0088
539.327	42.7483
539.38	44.9154
539.432	44.0157
539.484	42
539.536	42.5382
539.588	43.0685
539.641	40.328
539.693	45.5564
539.745	42.9609
539.797	43.796
539.849	40.6395
539.901	45.3692
539.954	39.7005
540.006	42.3973
540.058	36.8057
540.11	41.9194
540.162	38.9824
540.214	40.203
540.267	49.6362
540.319	47.2337
540.371	42.6024
540.423	40.8287
540.475	43.5323
540.527	45.7356
540.58	47.6621
540.632	44.1641
540.684	42.3479
540.736	42.2706
540.788	44.6481
540.84	41.3209
540.892	40.7389
540.945	49.2797
540.997	48.8638
541.049	43.2886
541.101	44.4684
541.153	41.8455
541.205	46.4129
541.258	43.7096
541.31	43.5782
541.362	45.9941
541.414	46.521
541.466	37.8996
541.518	42.3161
541.57	47.7965
541.623	43.4334
541.675	46.4883
541.727	41.0237
541.779	42.5647
541.831	39.8742
541.883	46.1096
541.936	44.2842
541.988	47.927
542.04	45.6497
542.092	46.9755
542.144	44.1801
542.196	49.9438
542.248	46.6614
542.301	47.5232
542.353	42.8256
542.405	49.7162
542.457	50.193
542.509	40.3465
542.561	41.4546
542.613	48.2598
542.666	44.6245
542.718	45.3734
542.77	41.409
542.822	42.6131
542.874	51.7043
542.926	44.8673
542.978	43.7202
543.031	53.1219
543.083	42.3688
543.135	43.9798
543.187	37.4183
543.239	49.8011
543.291	44.0978
543.343	42.0367
543.396	44.2056
543.448	45.9528
543.5	46.2407
543.552	51.8835
543.604	42.3592
543.656	43.3738
543.708	48.0198
543.76	48.4423
543.813	40.9682
543.865	42.5564
543.917	43.7028
543.969	50.6041
544.021	41.7893
544.073	53.2925
544.125	41.5135
544.177	46.9827
544.23	46.3025
544.282	53.3338
544.334	51.4132
544.386	48.4344
544.438	51.216
544.49	55.0519
544.542	45.0383
544.594	48.9142
544.647	43.2393
544.699	47.8218
544.751	49.5419
544.803	53.229
544.855	46.8434
544.907	46
544.959	51.4367
545.011	51.7456
545.064	50.3206
545.116	48.2021
545.168	53.1482
545.22	58.4723
545.272	49.5152
545.324	53.3354
545.376	52.3284
545.428	48.1795
545.48	56.1637
545.533	61.1608
545.585	46.9932
545.637	52.6526
545.689	52.2607
545.741	55.3237
545.793	45.6246
545.845	52.1042
545.897	48.9103
545.949	56.5017
546.002	56.2406
546.054	50.6022
546.106	58.2898
546.158	66.4263
546.21	57.8242
546.262	52.6101
546.314	60.1778
546.366	63.5638
546.418	55.7419
546.471	50.6205
546.523	59.884
546.575	53.8146
546.627	53.6909
546.679	50.7468
546.689	50.0213
546.741	59.9709
546.793	48.1204
546.845	48.0878
546.898	50.0327
546.95	50.0134
547.002	59.8891
547.054	50.0627
547.106	59.7797
547.159	49.9961
547.211	59.814
547.263	57.8355
547.315	61.5557
547.368	63.6777
547.42	60.0507
547.472	48.4496
547.524	58.0664
547.577	61.6721
547.629	56.1113
547.681	54.1955
547.733	54.1204
547.785	56.149
547.838	57.9568
547.89	52.117
547.942	54.0314
547.994	65.6517
548.047	63.6894
548.099	65.3383
548.151	59.7549
548.203	63.6538
548.255	54.1938
548.308	55.8216
548.36	53.8178
548.412	59.2498
548.464	54.2579
548.517	61.2782
548.569	50.2496
548.621	67.2121
548.673	63.646
548.725	61.9337
548.778	63.7966
548.83	64.1374
548.882	58.6754
548.934	61.7872
548.987	65.2926
549.039	62.0733
549.091	62.118
549.143	65.6826
549.195	62.1237
549.248	76.1326
549.3	59.6626
549.352	60.2669
549.404	64.3243
549.456	70.9826
549.509	51.4001
549.561	65.4011
549.613	69.2436
549.665	67.8505
549.718	67.6538
549.77	58.3309
549.822	63.6644
549.874	75.6519
549.926	66.9969
549.979	67.3913
550.031	58.5253
550.083	65.9303
550.135	71.6264
550.187	71.186
550.24	62.8275
550.292	70.9674
550.344	65.8064
550.396	62.2923
550.448	69.6082
550.501	73.4012
550.553	71.2062
550.605	70.6209
550.657	73.1655
550.709	78.8573
550.762	68.5206
550.814	78.5257
550.866	71.6251
550.918	73.7476
550.97	76.8106
551.023	74.3134
551.075	68.2784
551.127	82.5458
551.179	81.8808
551.231	79.2957
551.284	77.8583
551.336	90.163
551.388	78.9161
551.44	85.0265
551.492	90.1539
551.545	83.1265
551.597	88.2187
551.649	88.657
551.701	95.607
551.753	98.8432
551.806	97.8899
551.858	101.355
551.91	117.181
551.962	116.898
552.014	131.813
552.067	133.553
552.119	144.628
552.171	158.362
552.223	191.428
552.275	199.885
552.327	269.528
552.38	388.237
552.432	709.984
552.484	1565.52
552.536	3200.44
552.588	5939.87
552.641	10364.2
552.693	12397.6
552.745	8425.43
552.797	4122.22
552.849	1601.3
552.901	676.247
552.954	375.517
553.006	262.594
553.058	214.858
553.11	182.489
553.162	164.266
553.215	134.056
553.267	127.253
553.319	120.526
553.371	117.865
553.423	103.339
553.475	105.829
553.528	101.258
553.58	95.8905
553.632	107.22
553.684	90.2
553.736	88.8804
553.788	90.1077
553.841	90.3321
553.893	95.1398
553.945	83.1089
553.997	83.1167
554.049	82.9133
554.102	80.461
554.154	80.6306
554.206	88.3165
554.258	82.2079
554.31	80.1205
554.362	75.2359
554.414	86.3859
554.467	80.6807
554.519	74.7964
554.571	71.3903
554.623	86.0853
554.675	78.6089
554.727	74.1575
554.78	78.3443
554.832	82.4293
554.884	75.6515
554.936	77.4086
554.988	73.8404
555.04	81.9065
555.093	81.4526
555.145	79.9106
555.197	68.3512
555.249	90.425
555.301	80.5668
555.353	75.7131
555.406	72.5766
555.458	78.75
555.51	75.1581
555.562	78.5401
555.614	84
555.666	78.7315
555.719	73.089
555.771	74
555.823	81.1569
555.875	80.5761
555.927	84.5953
555.979	81.7723
556.031	81.1595
556.084	71.6282
556.136	76.8244
556.188	81.6421
556.24	75.823
556.292	81.3021
556.344	81.0613
556.396	82.2321
556.449	76.5196
556.501	86.8535
556.553	87.8138
556.605	86.8063
556.657	89.0243
556.709	86.9783
556.762	81.7005
556.814	86.0316
556.866	80.4872
556.918	97.737
556.97	84.1875
557.022	84.4805
557.074	87.7798
557.127	88.9768
557.179	93.941
557.231	83.0208
557.283	86.8035
557.335	90.4644
557.387	90.8871
557.439	90.1502
557.492	95.0638
557.544	88.0336
557.596	92.3463
557.648	88.8909
557.7	88.3711
557.752	96.2265
557.804	97.1084
557.856	92.0227
557.909	92.9753
557.961	96.6932
558.013	89.75
558.065	92.495
558.117	92.995
558.169	84.5456
558.221	87.485
558.273	85.5169
558.326	91.9846
558.378	82.6722
558.43	93.9979
558.482	94.214
558.534	88.6907
558.586	90.4095
558.638	91.981
558.691	86.5996
558.743	94.0842
558.795	93.7039
558.847	87.3447
558.899	95.1585
558.951	90.183
559.003	89.6623
559.055	88.8344
559.108	94.2301
559.16	90.8863
559.212	93.6969
559.264	91.182
559.316	96.6926
559.368	97.9183
559.42	89.0466
559.472	89.2246
559.525	90.7355
559.577	95.856
559.629	95.3082
559.681	94.9119
559.733	101.779
559.785	99.047
559.837	89.2903
559.889	86.9942
559.941	96.9259
559.994	99.5662
560.046	93.4857
560.098	95.9906
560.15	98.7228
560.202	92.1899
560.254	97.7977
560.306	96.7441
560.358	93.9411
560.41	99.971
560.463	102.139
560.515	95.7982
560.567	88.5821
560.619	95.7953
560.671	94.9228
560.723	92.9036
560.775	99.2932
560.827	97.8203
560.879	97.9461
560.932	100.117
560.984	98.1595
561.036	104.76
561.088	101.367
561.14	99.0709
561.192	102.25
561.244	107.865
561.296	101.722
561.348	102.204
561.4	97.7782
561.453	100.673
561.505	103.934
561.557	97.554
561.609	106.711
561.661	102.764
561.713	105.575
561.765	97.4709
561.817	104.579
561.869	113.36
561.921	105.555
561.974	107.892
562.026	104.731
562.078	112.225
562.13	103.83
562.182	109.861
562.234	110
562.286	113.752
562.338	116.978
562.39	110.177
562.442	111.665
562.494	113.822
562.547	106.61
562.599	119.47
562.651	118.409
562.703	114.311
562.755	110.596
562.807	116.233
562.859	107.119
562.911	113.922
562.963	116.038
563.015	118.48
563.067	120.548
563.12	118.54
563.172	118.188
563.224	110.904
563.276	114.85
563.328	115.096
563.38	117.366
563.432	113.644
563.484	121.476
563.536	130.401
563.588	124.912
563.64	121.278
563.692	117.622
563.744	119.209
563.797	123.29
563.849	115.409
563.901	122.902
563.953	127.302
564.005	121.18
564.057	122.329
564.109	125.627
564.161	121.468
564.213	121.333
564.265	126.959
564.317	118.837
564.369	124.546
564.421	122.987
564.474	118.428
564.526	125.297
564.578	131.256
564.63	120.635
564.682	122.527
564.734	130.07
564.786	120.399
564.838	119.213
564.89	117.424
564.942	128.434
564.994	127.518
565.046	128.767
565.098	131.839
565.15	134.488
565.202	134
565.255	127.937
565.307	127.755
565.359	134.593
565.411	140.06
565.463	131.237
565.515	125.547
565.567	133.522
565.619	125.506
565.671	126.05
565.723	134.633
565.775	136.308
565.827	132.807
565.879	127.497
565.931	136.382
565.983	142.461
566.035	137.307
566.087	134.36
566.139	136.93
566.192	137.89
566.244	134.615
566.296	129.247
566.348	130.912
566.4	134.328
566.452	134.375
566.504	133.26
566.556	133.041
566.608	132
566.66	135.488
566.712	139.675
566.764	145.311
566.816	149.031
566.868	148.469
566.92	137.386
566.972	143.148
567.024	145.518
567.076	145.359
567.128	136.3
567.18	142.937
567.232	141.6
567.285	145.194
567.337	148.765
567.389	153.434
567.441	152.529
567.493	142.978
567.545	144.129
567.597	151.922
567.649	146.537
567.701	142.348
567.753	147.342
567.805	151.042
567.857	145.574
567.909	138.513
567.961	141.603
568.013	144.203
568.065	152.656
568.117	151.427
568.169	152.468
568.221	156.862
568.273	153.317
568.325	152.666
568.377	151.872
568.429	151.919
568.481	159.004
568.533	161.477
568.585	158.419
568.637	157.119
568.69	153.722
568.742	153.362
568.794	149.728
568.846	154.923
568.898	155.959
568.95	148.325
569.002	158.404
569.054	166.569
569.106	162.447
569.158	156.694
569.21	152.668
569.262	150.3
569.314	158.809
569.366	162.623
569.418	165.916
569.47	164.99
569.522	166.406
569.574	163.829
569.626	166.499
569.678	164.856
569.73	162.93
569.782	166.687
569.834	173.953
569.886	175.715
569.938	174.63
569.99	173.848
570.042	173.306
570.094	169.706
570.146	178.624
570.198	172.386
570.25	167.588
570.302	179.609
570.354	186.877
570.406	176.234
570.458	174.195
570.51	186.714
570.562	186.911
570.614	176.484
570.666	172.589
570.718	178.37
570.77	185.594
570.822	185.8
570.874	191.525
570.926	191.141
570.978	192.387
571.03	195.134
571.082	190.079
571.134	193.116
571.186	189.619
571.238	192.405
571.29	205.606
571.342	209.168
571.394	204.464
571.446	205.131
571.498	207.517
571.55	213.747
571.602	203.743
571.654	193.41
571.706	199.102
571.758	211.519
571.81	223.074
571.862	224.727
571.914	213.752
571.966	212.694
572.018	225.558
572.07	221.909
572.122	227.952
572.174	232.219
572.226	222.858
572.278	223.606
572.33	226.116
572.382	242.334
572.434	242.043
572.486	243.133
572.538	242.669
572.59	253.19
572.642	257.191
572.694	256.526
572.746	250.041
572.798	253.904
572.85	255.017
572.902	251.52
572.954	271.359
573.006	265.719
573.058	270.936
573.11	269.586
573.162	280.15
573.214	282.62
573.266	290.224
573.302	272.045
573.355	278.048
573.407	260.256
573.459	298.014
573.511	294.165
573.563	296.07
573.615	307.751
573.667	327.446
573.719	310.044
573.772	323.865
573.824	333.585
573.876	327.816
573.928	330
573.98	336.06
574.032	326.643
574.084	357.863
574.136	350.11
574.188	346.489
574.241	352.406
574.293	373.652
574.345	355.265
574.397	385.785
574.449	385.744
574.501	403.208
574.553	409.103
574.605	394.577
574.657	402.024
574.71	413.335
574.762	403.042
574.814	407.526
574.866	424.517
574.918	430.302
574.97	453.924
575.022	450.549
575.074	474.186
575.126	465.334
575.178	466.482
575.231	478.649
575.283	478.175
575.335	478.144
575.387	481.853
575.439	475.645
575.491	468.72
575.543	496.343
575.595	522.807
575.647	493.986
575.7	502.998
575.752	505.955
575.804	507.237
575.856	527.065
575.908	502.652
575.96	502.256
576.012	494.711
576.064	511.063
576.116	515.58
576.168	505.513
576.22	492.385
576.273	492.871
576.325	484.135
576.377	469.781
576.429	483.074
576.481	470.384
576.533	494.284
576.585	471.341
576.637	467.91
576.689	465.722
576.741	452.054
576.793	454.333
576.846	450.868
576.898	458.279
576.95	445.3
577.002	443.389
577.054	445.708
577.106	430.18
577.158	416.557
577.21	397.219
577.262	418.968
577.314	428.109
577.366	403.922
577.418	399.555
577.471	398.436
577.523	390.63
577.575	373.964
577.627	371.238
577.679	382.782
577.731	369.324
577.783	370.617
577.835	371.413
577.887	364.253
577.939	356.502
577.991	368.485
578.043	359.165
578.095	378.194
578.148	335.998
578.2	340.629
578.252	359.745
578.304	352.73
578.356	345.468
578.408	351.909
578.46	339.78
578.512	349.895
578.564	327.769
578.616	339
578.668	319.516
578.72	337.746
578.772	343.353
578.824	321.651
578.877	325.182
578.929	329.885
578.981	337.073
579.033	317.244
579.085	327.411
579.137	341.329
579.189	335.352
579.241	326.398
579.293	327.292
579.345	318.5
579.397	337.227
579.449	328.964
579.501	330.791
579.553	319.704
579.605	335.164
579.658	318.475
579.71	314.885
579.762	334.588
579.814	323.081
579.866	322.384
579.918	334.724
579.97	324.004
580.022	322.44
580.074	319.362
580.126	333.094
580.178	326.64
580.23	322.507
580.282	327.66
580.334	311.913
580.386	332.199
580.438	314.665
580.49	341.129
580.542	333.447
580.595	334.384
580.647	334.643
580.699	324.792
580.751	336.948
580.803	337.036
580.855	327.354
580.907	320.183
580.959	336.738
581.011	338.465
581.063	327.709
581.115	337.829
581.167	335.36
581.219	344.967
581.271	332.938
581.323	338.344
581.375	341.149
581.427	337.47
581.479	345.109
581.531	342.658
581.583	360.314
581.635	330.5
581.688	336.818
581.74	334.643
581.792	344.457
581.844	335.931
581.896	339.508
581.948	352.656
582	337.748
582.052	361.013
582.104	333.236
582.156	358.547
582.208	357.708
582.26	338.752
582.312	347.014
582.364	348.006
582.416	345.658
582.468	343.426
582.52	353.001
582.572	356.359
582.624	359.299
582.676	362.72
582.728	356.982
582.78	355.393
582.832	363.239
582.884	375.534
582.936	358.304
582.988	359.123
583.04	364.397
583.092	367.715
583.144	362.933
583.196	359.514
583.249	370.857
583.301	358.323
583.353	368.896
583.405	364.675
583.457	362.315
583.509	381.274
583.561	367.117
583.613	371.56
583.665	365.49
583.717	371.673
583.769	370.619
583.821	376.055
583.873	393.065
583.925	376.772
583.977	382.807
584.029	391.34
584.081	386.054
584.133	383.698
584.185	383.844
584.237	381.631
584.289	388.365
584.341	407.559
584.393	388.254
584.445	395.446
584.497	397.665
584.549	399.124
584.601	395.438
584.653	402.145
584.705	405.943
584.757	414.801
584.809	400.612
584.861	404.542
584.913	413.099
584.965	405.712
585.017	405.355
585.069	407.328
585.121	410.152
585.173	420.148
585.225	415.24
585.277	417.953
585.329	439.204
585.381	426.865
585.433	408.141
585.485	425.137
585.537	426.172
585.589	431.17
585.641	422.645
585.693	424.727
585.745	438.681
585.797	431.807
585.849	434.111
585.901	431.745
585.953	440.425
586.005	438.108
586.057	429.703
586.109	433.96
586.161	427.128
586.213	435.885
586.265	431.035
586.317	421.074
586.369	443.585
586.421	452.342
586.473	437.887
586.525	440.928
586.577	442.858
586.629	441.03
586.681	449.235
586.733	456.893
586.785	454.36
586.837	445.216
586.889	437.711
586.941	461.398
586.993	458.557
587.045	445.451
587.097	447.298
587.149	450.701
587.201	454.314
587.253	427.557
587.305	460.569
587.357	461.953
587.409	446.251
587.461	456.573
587.513	448.985
587.565	448.094
587.617	462.937
587.669	447.104
587.721	464.893
587.773	465.352
587.825	458.219
587.877	467.444
587.929	461.553
587.981	471.631
588.033	474.545
588.085	456.637
588.137	477.337
588.189	468.792
588.241	463.399
588.293	463.533
588.345	456.808
588.397	472.995
588.449	468.323
588.501	462.904
588.552	479.612
588.604	468.579
588.656	478.332
588.708	485.839
588.76	480.178
588.812	472.689
588.864	480.117
588.916	467.51
588.968	460.675
589.02	475.766
589.072	467.649
589.124	474.851
589.176	479.174
589.228	492.408
589.28	499.102
589.332	488.432
589.384	495.091
589.436	487.63
589.488	496.092
589.54	490.423
589.592	486.958
589.644	486.119
589.696	505.907
589.748	479.107
589.8	485.393
589.852	489.239
589.904	479.653
589.956	473.671
590.008	468.271
590.06	482.726
590.112	477.1
590.163	493.638
590.215	495.662
590.267	495.574
590.319	485.645
590.371	482.951
590.423	490.564
590.475	497.239
590.527	466.861
590.579	491.864
590.631	488.403
590.683	489.468
590.735	484.887
590.787	488.946
590.839	494.917
590.891	479.979
590.943	483.338
590.995	484.046
591.047	494.063
591.099	491.794
591.151	475.829
591.203	464.569
591.254	480.731
591.306	470.326
591.358	473.446
591.41	484.358
591.462	485.965
591.514	479.175
591.566	459.453
591.618	463.826
591.67	458.589
591.722	456.206
591.774	463.744
591.826	471.794
591.878	469.037
591.93	460.367
591.982	474.371
592.034	456.735
592.086	457.176
592.137	465.553
592.189	464.605
592.241	464.224
592.293	461.007
592.345	469.564
592.397	483.009
592.449	472.253
592.501	468.19
592.553	466.574
592.605	468.23
592.657	467.157
592.709	471.9
592.761	469.662
592.813	465.671
592.865	464.601
592.916	455.143
592.968	446.575
593.02	465.381
593.072	471.093
593.124	462.759
593.176	459.432
593.228	458.096
593.28	458.018
593.332	471.911
593.384	473.246
593.436	469.933
593.488	461.209
593.54	463.527
593.591	467.199
593.643	463.327
593.695	456.918
593.747	466.401
593.799	451.087
593.851	454.737
593.903	468.166
593.955	470.942
594.007	470.554
594.059	467.95
594.111	470.243
594.163	473.231
594.215	467.51
594.266	471.528
594.318	477.08
594.37	482.394
594.422	463.522
594.474	460.779
594.526	474.893
594.578	480.785
594.63	470.042
594.682	476.375
594.734	485.672
594.786	478.295
594.837	484.673
594.889	485.416
594.941	491.261
594.993	482.093
595.045	468.434
595.097	478.923
595.149	482.759
595.201	476.617
595.253	484.049
595.305	483.981
595.357	485.656
595.408	492.679
595.46	488.644
595.512	482.82
595.564	483.887
595.616	496.629
595.668	492.547
595.72	495.612
595.772	496.928
595.824	496.988
595.876	491.111
595.927	492.028
595.979	489.135
596.031	491.121
596.083	496.891
596.135	500.161
596.187	511.029
596.239	499.602
596.291	492.181
596.343	505.683
596.394	505.302
596.446	493.079
596.498	506.536
596.55	522.585
596.602	523.574
596.654	524.35
596.706	524.605
596.758	521.091
596.81	513.692
596.862	511.346
596.913	510.631
596.965	515.936
597.017	506.187
597.069	505.436
597.121	508.393
597.173	510.218
597.225	502.193
597.277	512.818
597.328	523.048
597.38	508.103
597.432	493.642
597.484	507.752
597.536	520.668
597.588	518.218
597.64	521.109
597.692	505.28
597.744	509.547
597.795	530.493
597.847	526.206
597.899	505.033
597.951	506.19
598.003	514.604
598.055	528.981
598.107	531.36
598.159	514.549
598.21	500.291
598.262	507.917
598.314	528.379
598.366	512.999
598.418	515.905
598.47	528.228
598.522	516.455
598.574	503.767
598.625	529.222
598.677	528.764
598.729	517.977
598.781	532.179
598.833	544.771
598.885	533.737
598.937	511.263
598.988	517.601
599.04	529.264
599.092	526.663
599.144	523.097
599.196	521.319
599.248	521.822
599.3	528.19
599.352	518.841
599.403	511.807
599.455	525.892
599.507	519.461
599.559	520.762
599.611	529.016
599.663	523.231
599.715	537.184
599.766	518.942
599.803	512.001
599.855	535.949
599.907	512.073
599.959	535.988
600.011	537.797
600.063	541.619
600.115	522.14
600.167	529.88
600.219	512.112
600.271	529.529
600.323	531.605
600.375	514.206
600.427	535.984
600.479	542.89
600.531	524.14
600.583	524.51
600.635	533.614
600.686	519.108
600.738	524.017
600.79	524.242
600.842	517.385
600.894	533.169
600.946	533.297
600.998	521.851
601.05	528.227
601.102	513.619
601.154	523.525
601.206	522.645
601.258	528.281
601.31	547.635
601.362	530.365
601.414	524.916
601.466	526.403
601.518	543.238
601.57	529.188
601.622	518.797
601.674	526.442
601.726	554.799
601.778	531.996
601.83	561.227
601.882	537.513
601.934	525.176
601.986	552.874
602.038	554.471
602.09	519.91
602.142	525.822
602.194	532.361
602.246	559.773
602.298	536.871
602.35	543.3
602.402	533.788
602.454	538.997
602.506	532.221
602.558	533.776
602.61	534.701
602.662	552.444
602.714	514.229
602.766	543.089
602.818	539.104
602.87	531.384
602.922	543.865
602.974	572.92
603.026	546.757
603.078	547.649
603.13	541.764
603.182	530.678
603.234	527.635
603.285	538.141
603.337	539.65
603.389	553.814
603.441	551.909
603.493	559.532
603.545	538.39
603.597	552.77
603.649	545.888
603.701	548.531
603.753	550.577
603.805	539.287
603.857	540.193
603.909	565.236
603.961	544.097
604.013	547.299
604.065	556.883
604.117	558.146
604.169	555.133
604.221	550.612
604.273	539.808
604.325	554.899
604.377	576.049
604.429	565.908
604.481	564.531
604.533	558.182
604.584	567.205
604.636	560.997
604.688	562.924
604.74	547.026
604.792	563.777
604.844	543.182
604.896	575.043
604.948	548.878
605	544.853
605.052	575.209
605.104	563.405
605.156	569.853
605.208	557.176
605.26	555.844
605.312	566.429
605.364	546.939
605.416	566.845
605.468	564.028
605.52	564.022
605.572	550.92
605.623	565.188
605.675	562.481
605.727	552.363
605.779	544.236
605.831	573.463
605.883	537.729
605.935	551.173
605.987	559.898
606.039	535.216
606.091	550.848
606.143	550.016
606.195	567.63
606.247	554.946
606.299	566.63
606.351	541.237
606.403	544.557
606.455	561.361
606.506	551.962
606.558	579.819
606.61	564.103
606.662	561.31
606.714	550.817
606.766	560.943
606.818	556.005
606.87	567.881
606.922	556.72
606.974	555.291
607.026	563.45
607.078	557.531
607.13	554.986
607.182	552.227
607.234	559.696
607.285	551.981
607.337	566.817
607.389	542.413
607.441	566.014
607.493	554.219
607.545	571.904
607.597	558.891
607.649	567.415
607.701	566.696
607.753	555.426
607.805	562.661
607.857	548.678
607.909	557.834
607.96	551.381
608.012	551.119
608.064	576.314
608.116	575.723
608.168	549.077
608.22	546.239
608.272	568.805
608.324	545.213
608.376	558.595
608.428	567.416
608.48	571.527
608.532	563.766
608.583	590.641
608.635	578.199
608.687	562.413
608.739	564.861
608.791	575.908
608.843	567.229
608.895	570.66
608.947	572.546
608.999	572.666
609.051	565.762
609.103	563.314
609.155	590.654
609.206	587.465
609.258	579.415
609.31	578.075
609.362	571.637
609.414	585.017
609.466	580.96
609.518	581.824
609.57	585.279
609.622	588.818
609.674	581.526
609.725	577.24
609.777	574.763
609.829	578.464
609.881	580.931
609.933	578.494
609.985	583.175
610.037	560.806
610.089	579.415
610.141	580.979
610.193	584.456
610.245	593.057
610.296	598.919
610.348	581.474
610.4	588.444
610.452	579.529
610.504	569.042
610.556	588.549
610.608	590.166
610.66	595.802
610.712	589.488
610.763	594.257
610.815	608.002
610.867	576.414
610.919	588.323
610.971	587.23
611.023	597.343
611.075	590.923
611.127	608.404
611.179	610.348
611.23	601.78
611.282	598.732
611.334	608.515
611.386	594.476
611.438	595.987
611.49	599.838
611.542	584.654
611.594	610.613
611.646	596.072
611.697	597.836
611.749	617.987
611.801	598.285
611.853	607.934
611.905	583.16
611.957	594.121
612.009	599.41
612.061	592.988
612.113	607.706
612.164	599.05
612.216	593.291
612.268	613.627
612.32	594.172
612.372	599.15
612.424	609.32
612.476	596.118
612.528	618.331
612.579	619.334
612.631	605.919
612.683	614.409
612.735	612.405
612.787	619.755
612.839	625.622
612.891	613.033
612.943	615.005
612.994	616.188
613.046	604.13
613.098	618.97
613.15	611.939
613.202	621.076
613.254	627.269
613.306	617.355
613.357	623.871
613.409	624.432
613.461	620.913
613.513	617.109
613.565	623.084
613.617	633.13
613.669	626.376
613.721	633.867
613.772	641.169
613.824	626.834
613.876	624.118
613.928	627.596
613.98	623.583
614.032	643.329
614.084	622.613
614.135	631.214
614.187	633.498
614.239	639.046
614.291	631.622
614.343	641.397
614.395	642.161
614.447	657.984
614.498	639.582
614.55	640.666
614.602	648.041
614.654	644.242
614.706	644.923
614.758	650.44
614.81	644.182
614.861	643.038
614.913	653.151
614.965	645.899
615.017	650.803
615.069	648.374
615.121	661.906
615.172	645.994
615.224	650.436
615.276	659.086
615.328	664.735
615.38	648.812
615.432	659.828
615.484	644.508
615.535	658
615.587	669.885
615.639	657.284
615.691	663.169
615.743	667.918
615.795	662.012
615.846	673.276
615.898	683.882
615.95	664.031
616.002	660.951
616.054	678.938
616.106	669.488
616.158	665.583
616.209	662.647
616.261	668.362
616.313	687.236
616.365	690.704
616.417	672.26
616.469	670.235
616.52	683.191
616.572	683.378
616.624	677.788
616.676	684.853
616.728	673.449
616.78	689.003
616.831	673.752
616.883	661.616
616.935	692.826
616.987	701.087
617.039	688.796
617.091	700.462
617.142	694.776
617.194	697.42
617.246	694.87
617.298	696.543
617.35	706.877
617.401	701.412
617.453	703.453
617.505	707.019
617.557	697.881
617.609	705.948
617.661	704.893
617.712	716.561
617.764	730.92
617.816	724.015
617.868	713.658
617.92	705.863
617.972	700.893
618.023	719.979
618.075	714.844
618.127	700.866
618.179	714.925
618.231	702.35
618.282	712.353
618.334	716.176
618.386	723.616
618.438	718.17
618.49	718.999
618.542	708.779
618.593	718.124
618.645	707.278
618.697	710.427
618.749	721.602
618.801	735.641
618.852	720.577
618.904	732.167
618.956	734.979
619.008	713.267
619.06	721.507
619.111	730.489
619.163	733.157
619.215	735.095
619.267	735.5
619.319	724.052
619.37	734.582
619.422	727.842
619.474	742.597
619.526	737.88
619.578	748.972
619.63	746.281
619.681	755.951
619.733	737.886
619.785	746.307
619.837	753.429
619.888	749.234
619.94	741.814
619.992	743.659
620.044	748.208
620.096	723.566
620.147	740.354
620.199	746.559
620.251	735.369
620.303	726.834
620.355	758.693
620.406	762.386
620.458	750.879
620.51	756.68
620.562	757.179
620.614	764.427
620.665	751.27
620.717	773.546
620.769	755.54
620.821	757.653
620.873	778.256
620.924	757.516
620.976	781.433
621.028	778.66
621.08	791.542
621.132	764.535
621.183	763.734
621.235	766.82
621.287	765.752
621.339	771.381
621.39	771.233
621.442	746.371
621.494	767.66
621.546	750.57
621.598	758.578
621.649	756.221
621.701	778.205
621.753	764.189
621.805	760.896
621.856	781.945
621.908	756.08
621.96	790.57
622.012	781.404
622.064	775.221
622.115	749.861
622.167	785.798
622.219	760.798
622.271	786.969
622.322	763.949
622.374	762.255
622.426	776.567
622.478	765.319
622.53	780.03
622.581	771.004
622.633	787.185
622.685	760.26
622.737	754.984
622.788	777.701
622.84	762.016
622.892	795.501
622.944	790.835
622.995	791.177
623.047	771.253
623.099	775.184
623.151	777.185
623.203	801.4
623.254	758.192
623.306	773.745
623.358	757.689
623.41	792.492
623.461	784.127
623.513	775.128
623.565	761.385
623.617	800.502
623.668	798.893
623.72	790.59
623.772	780.252
623.824	796.411
623.875	807.232
623.927	762.082
623.979	800.861
624.031	791.707
624.082	772.686
624.134	789.086
624.186	805.006
624.238	775.528
624.289	782.394
624.341	795.59
624.393	816.882
624.445	788.528
624.496	780.102
624.548	785.217
624.6	769.751
624.652	808.274
624.703	806.327
624.755	804.213
624.807	787.136
624.859	793.548
624.91	801.52
624.962	791.423
625.014	783.745
625.066	783.053
625.117	809.346
625.169	781.274
625.221	804.518
625.273	823.668
625.324	792.933
625.376	784.738
625.428	777.267
625.48	806.188
625.531	810.666
625.583	797.898
625.635	823.562
625.687	821.379
625.738	820.045
625.79	811.852
625.842	785.307
625.893	808.935
625.945	812.378
625.997	795.483
626.049	798.811
626.1	812.003
626.152	802.468
626.204	830.177
626.256	825.91
626.307	823.902
626.316	823.788
626.368	790.159
626.42	807.795
626.472	797.641
626.523	829.683
626.575	819.597
626.627	821.022
626.679	837.599
626.731	831.083
626.783	807.594
626.835	866.337
626.887	827.365
626.938	829.429
626.99	836.637
627.042	831.512
627.094	847.173
627.146	825.996
627.198	829.201
627.25	841.473
627.302	822.335
627.353	846.142
627.405	842.536
627.457	854.481
627.509	837.689
627.561	817.282
627.613	814.848
627.665	832.758
627.716	848.129
627.768	852.301
627.82	853.259
627.872	840.905
627.924	843.423
627.976	841.502
628.028	853.416
628.079	865.675
628.131	850.512
628.183	853.427
628.235	830.158
628.287	831.322
628.339	868.833
628.391	838.615
628.443	850.082
628.494	854.139
628.546	846.486
628.598	846.747
628.65	866.514
628.702	867.66
628.754	871.807
628.805	844.557
628.857	851.12
628.909	866.55
628.961	881.928
629.013	858.14
629.065	861.297
629.117	849.078
629.168	857.763
629.22	862.439
629.272	844.1
629.324	864.727
629.376	855.527
629.428	867.285
629.479	852.342
629.531	898.702
629.583	874.002
629.635	846.652
629.687	866.908
629.739	879.28
629.791	875.747
629.842	882.352
629.894	880.781
629.946	875.059
629.998	872.514
630.05	882.367
630.102	874.045
630.153	881.133
630.205	858.392
630.257	903.392
630.309	870.904
630.361	871.554
630.413	833.16
630.464	879.772
630.516	902.286
630.568	881.803
630.62	867.484
630.672	885.496
630.724	876.648
630.776	898.358
630.827	878.977
630.879	896.695
630.931	883.281
630.983	900.623
631.035	908.548
631.086	911.015
631.138	911.424
631.19	926.975
631.242	903.068
631.294	916.392
631.346	902.275
631.397	900.796
631.449	922.306
631.501	912.668
631.553	908.796
631.605	931.744
631.657	912.101
631.708	915.757
631.76	929.174
631.812	928.967
631.864	925.539
631.916	916.468
631.967	895.489
632.019	907.247
632.071	920.669
632.123	931.793
632.175	909.705
632.227	927.847
632.278	935.305
632.33	915.608
632.382	910.424
632.434	944.985
632.486	931.461
632.537	929.517
632.589	914.294
632.641	924.056
632.693	944.274
632.745	957.684
632.797	919.657
632.848	948.698
632.9	932.714
632.952	936.193
633.004	961.078
633.056	936.041
633.107	964.851
633.159	958.454
633.211	935.141
633.263	963.88
633.315	968.737
633.366	943.461
633.418	949.649
633.47	971.255
633.522	966.717
633.574	969.76
633.625	973.849
633.677	982.768
633.729	967.819
633.781	966.177
633.833	966.981
633.885	978.28
633.936	979.368
633.988	999.424
634.04	967.916
634.092	987.052
634.143	994.39
634.195	978.325
634.247	998.356
634.299	1001.87
634.351	992.794
634.403	987.682
634.454	989.808
634.506	1000.83
634.558	993.272
634.61	1015.91
634.661	1013.28
634.713	1014.38
634.765	1004.18
634.817	1029.19
634.869	1021.28
634.92	1031.72
634.972	1047.27
635.024	1010.02
635.076	1017.53
635.128	1023.83
635.179	1065.16
635.231	1046.15
635.283	1060.4
635.335	1069.13
635.387	1055.28
635.438	1066.24
635.49	1068.69
635.542	1074.55
635.594	1058.5
635.645	1086.54
635.697	1070.65
635.749	1063.6
635.801	1095.92
635.853	1109.69
635.904	1073.76
635.956	1101.1
636.008	1125.36
636.06	1083.09
636.112	1119.49
636.163	1134.66
636.215	1163.14
636.267	1142.04
636.319	1144.7
636.37	1149.43
636.422	1174.09
636.474	1192.74
636.526	1198.75
636.577	1217.99
636.629	1196.18
636.681	1213.05
636.733	1237.12
636.785	1256.52
636.836	1261.12
636.888	1262.65
636.94	1254.35
636.992	1266.39
637.043	1296.75
637.095	1320.22
637.147	1330.36
637.199	1329.18
637.25	1354.64
637.302	1374.14
637.354	1385.21
637.406	1391.16
637.458	1388.99
637.509	1428.82
637.561	1431.75
637.613	1411.32
637.665	1433.09
637.716	1424.02
637.768	1441.25
637.82	1456.19
637.872	1486.23
637.923	1469.85
637.975	1473.07
638.027	1532.68
638.079	1509.15
638.13	1492.09
638.182	1501.83
638.234	1537.01
638.286	1512.35
638.337	1505.59
638.389	1504.36
638.441	1508.33
638.493	1494.44
638.544	1488.78
638.596	1502.47
638.648	1471.43
638.7	1465.28
638.752	1467
638.803	1471.89
638.855	1457.16
638.907	1445.6
638.958	1451.83
639.01	1430.94
639.062	1411.55
639.114	1438.77
639.165	1417.25
639.217	1390.68
639.269	1391.37
639.321	1371.87
639.372	1371.75
639.424	1361.41
639.476	1359.67
639.528	1381.41
639.579	1368.56
639.631	1343.35
639.683	1346.34
639.735	1322.31
639.786	1340.25
639.838	1316.84
639.89	1308.8
639.942	1314.3
639.993	1298.36
640.045	1294.25
640.097	1285.72
640.149	1280.71
640.2	1289.16
640.252	1306
640.304	1282.15
640.356	1277.65
640.407	1301.25
640.459	1276.71
640.511	1271.98
640.562	1268.87
640.614	1266.6
640.666	1267.86
640.718	1258.49
640.769	1262.81
640.821	1261.44
640.873	1238.22
640.925	1243.3
640.976	1260.38
641.028	1249.8
641.08	1249.66
641.131	1252.98
641.183	1263.21
641.235	1226.91
641.287	1213.42
641.338	1252.31
641.39	1247.99
641.442	1243.63
641.494	1212.58
641.545	1217.31
641.597	1233.68
641.649	1247.02
641.7	1223
641.752	1229.58
641.804	1223.59
641.856	1234.43
641.907	1231.04
641.959	1237.75
642.011	1221.45
642.063	1233.88
642.114	1227.37
642.166	1227.72
642.218	1217.44
642.269	1226.1
642.321	1222.59
642.373	1229.38
642.424	1225.3
642.476	1235.22
642.528	1253.97
642.58	1228.09
642.631	1207.28
642.683	1202.82
642.735	1224.05
642.786	1221.17
642.838	1233.73
642.89	1228.54
642.942	1244.75
642.993	1272.77
643.045	1236.84
643.097	1210.22
643.148	1240.88
643.2	1246.91
643.252	1242.46
643.304	1254.64
643.355	1230.3
643.407	1236.32
643.459	1234.02
643.51	1265.81
643.562	1260.26
643.614	1264.87
643.665	1256.69
643.717	1222.34
643.769	1235.18
643.82	1239.13
643.872	1238.66
643.924	1238.15
643.976	1236.9
644.027	1233.83
644.079	1253.4
644.131	1255.75
644.182	1239.77
644.234	1232.01
644.286	1253.36
644.337	1242.86
644.389	1253.93
644.441	1238.39
644.493	1255.36
644.544	1268.83
644.596	1264.89
644.648	1236.68
644.699	1268.44
644.751	1254
644.803	1255.73
644.854	1267.45
644.906	1272.59
644.958	1266.15
645.009	1263.64
645.061	1240.69
645.113	1262.65
645.164	1288.34
645.216	1254.5
645.268	1268.54
645.32	1282.5
645.371	1275.08
645.423	1255.88
645.475	1267.46
645.526	1301.86
645.578	1272.79
645.63	1287.09
645.681	1273.31
645.733	1305.93
645.785	1291.13
645.836	1301.46
645.888	1278.26
645.94	1298.42
645.991	1312.91
646.043	1283.48
646.095	1305.23
646.146	1288.11
646.198	1281.25
646.25	1287.31
646.301	1309.62
646.353	1289.96
646.405	1280.05
646.456	1307.71
646.508	1295.89
646.56	1297.12
646.611	1284.2
646.663	1278.2
646.715	1285.83
646.766	1287.63
646.818	1284.87
646.87	1290.21
646.921	1272.69
646.973	1295.25
647.025	1315.17
647.076	1306.63
647.128	1312.06
647.18	1354.28
647.231	1308.92
647.283	1318.57
647.335	1319.68
647.386	1320.91
647.438	1326.76
647.49	1321.51
647.541	1308
647.593	1332.71
647.645	1296.26
647.696	1339.88
647.748	1351.26
647.8	1287.49
647.851	1304.3
647.903	1298.08
647.955	1323.16
648.006	1355.42
648.058	1342.11
648.109	1341.84
648.161	1346.28
648.213	1306
648.264	1331.16
648.316	1349.32
648.368	1337.84
648.419	1351.09
648.471	1345.84
648.523	1331.16
648.574	1347.44
648.626	1390.24
648.678	1343.62
648.729	1337.21
648.781	1368.66
648.833	1366.85
648.884	1363.75
648.936	1351.3
648.987	1365.09
649.039	1349.03
649.091	1366.12
649.142	1361.1
649.194	1360.07
649.246	1398.47
649.297	1356.97
649.349	1353.11
649.401	1381.34
649.452	1377.68
649.504	1361.66
649.555	1404.08
649.607	1388.28
649.659	1412.96
649.71	1388.31
649.762	1355.33
649.814	1359.93
649.865	1392.8
649.917	1399.35
649.969	1396.8
650.02	1400.79
650.072	1402.47
650.123	1406.79
650.175	1421.61
650.227	1417.49
650.278	1363.18
650.33	1405.13
650.382	1412.73
650.433	1409.07
650.485	1389.22
650.536	1409.92
650.588	1403.49
650.64	1433.99
650.691	1416.46
650.743	1431.3
650.795	1397.82
650.846	1441.9
650.898	1463.57
650.949	1427.07
651.001	1419.73
651.053	1423.78
651.104	1431.67
651.156	1423.69
651.208	1443.2
651.259	1442.53
651.311	1444.33
651.362	1459.83
651.414	1456.27
651.466	1472.98
651.517	1450
651.569	1455.73
651.62	1464.3
651.672	1471.97
651.724	1455.45
651.775	1484.72
651.827	1479.54
651.878	1461.61
651.93	1456.26
651.982	1460.36
652.033	1449.39
652.085	1453.84
652.137	1488.24
652.188	1455.73
652.24	1474.74
652.291	1478.78
652.343	1467.04
652.395	1485.16
652.446	1510.73
652.498	1477.94
652.549	1498.99
652.601	1506.52
652.653	1485.6
652.704	1497.46
652.756	1512.85
652.772	1515.94
652.824	1498.23
652.876	1494.26
652.927	1482.62
652.979	1500.11
653.031	1496.39
653.083	1529.41
653.134	1482.75
653.186	1524.14
653.238	1510.17
653.29	1525.93
653.341	1539.91
653.393	1546.26
653.445	1503.8
653.497	1491.49
653.548	1575.5
653.6	1521.55
653.652	1578.27
653.704	1521.98
653.755	1560.43
653.807	1531.28
653.859	1519.49
653.91	1529.29
653.962	1566.65
654.014	1558.5
654.066	1555.83
654.117	1576.11
654.169	1576.9
654.221	1542.97
654.273	1550.25
654.324	1568.83
654.376	1616.85
654.428	1558.2
654.48	1564.45
654.531	1583
654.583	1579.7
654.635	1573.63
654.686	1605.36
654.738	1565.62
654.79	1573.62
654.842	1593.64
654.893	1586.71
654.945	1613.6
654.997	1570.87
655.049	1609.15
655.1	1611.04
655.152	1612.59
655.204	1615.35
655.255	1637.51
655.307	1598.04
655.359	1617.62
655.411	1644.9
655.462	1666.45
655.514	1658.22
655.566	1646.35
655.618	1647.42
655.669	1642.25
655.721	1631.14
655.773	1671.69
655.824	1675.12
655.876	1672.3
655.928	1675.33
655.98	1654.48
656.031	1695.23
656.083	1677.74
656.135	1701.81
656.186	1712.2
656.238	1717.15
656.29	1712.37
656.342	1703.46
656.393	1678.48
656.445	1677.65
656.497	1680.54
656.548	1715.56
656.6	1719.76
656.652	1682.81
656.704	1675.64
656.755	1724.13
656.807	1736.78
656.859	1728.28
656.91	1714.09
656.962	1701.19
657.014	1714.34
657.065	1752.61
657.117	1738.95
657.169	1708.98
657.221	1776.35
657.272	1776.14
657.324	1768.58
657.376	1758.23
657.427	1763.55
657.479	1749.05
657.531	1786.43
657.583	1762.52
657.634	1794.73
657.686	1805.22
657.738	1785.47
657.789	1787.89
657.841	1774.6
657.893	1808.19
657.944	1795.28
657.996	1793.44
658.048	1815.27
658.099	1794.13
658.151	1801.03
658.203	1799.39
658.255	1803.85
658.306	1810.49
658.358	1788.31
658.41	1813.05
658.461	1795.94
658.513	1799.96
658.565	1819.25
658.616	1800.81
658.668	1822.45
658.72	1806.22
658.771	1814.51
658.823	1787.25
658.875	1824.99
658.927	1813.68
658.978	1801.65
659.03	1828.06
659.082	1829.28
659.133	1798.19
659.185	1819.4
659.237	1860.71
659.288	1852.83
659.34	1838.7
659.392	1833.67
659.443	1848.6
659.495	1853.16
659.547	1862.17
659.598	1813.24
659.65	1873.12
659.702	1843.67
659.753	1845.08
659.805	1816.17
659.857	1843.47
659.909	1874.12
659.96	1866.36
660.012	1831.3
660.064	1834.91
660.115	1829.21
660.167	1829.2
660.219	1844.52
660.27	1849.22
660.322	1852.55
660.374	1873.72
660.425	1861.49
660.477	1827.3
660.529	1831.71
660.58	1842.09
660.632	1813.8
660.684	1855.6
660.735	1841.65
660.787	1849.89
660.839	1837.93
660.89	1816.08
660.942	1853.01
660.994	1828
661.045	1864.66
661.097	1861.14
661.149	1840.68
661.2	1833.36
661.252	1833.01
661.304	1843.03
661.355	1854.31
661.407	1849.11
661.459	1865
661.51	1859.66
661.562	1847.28
661.614	1852.21
661.665	1830.91
661.717	1828.63
661.768	1842.5
661.82	1843.26
661.872	1844.1
661.923	1865.81
661.975	1860.25
662.027	1810
662.078	1823.01
662.13	1845.34
662.182	1866.61
662.233	1865.13
662.285	1861.51
662.337	1855.71
662.388	1864.29
662.44	1870.82
662.492	1833.47
662.543	1861.99
662.595	1858.99
662.647	1837.45
662.698	1842.13
662.75	1847.72
662.802	1865.2
662.853	1839.77
662.905	1836.05
662.956	1832.27
663.008	1831.82
663.06	1852.84
663.111	1865.18
663.163	1838.96
663.215	1853.88
663.266	1846.64
663.318	1854.15
663.37	1835.47
663.421	1857.75
663.473	1841.83
663.525	1852.52
663.576	1833.19
663.628	1852.46
663.679	1817.52
663.731	1873.82
663.783	1840.9
663.834	1872.64
663.886	1864.95
663.938	1858.18
663.989	1864.18
664.041	1838.94
664.093	1851.76
664.144	1847.59
664.196	1832.36
664.247	1834.31
664.299	1840.64
664.351	1853.5
664.402	1884.7
664.454	1859.83
664.506	1845.77
664.557	1864.57
664.609	1828.35
664.66	1852.94
664.712	1837.31
664.764	1834.93
664.815	1847.39
664.867	1839.58
664.919	1830.79
664.97	1846.16
665.022	1877.47
665.073	1826.05
665.125	1856.57
665.177	1840.66
665.228	1841.72
665.28	1834.01
665.332	1879.05
665.383	1834.7
665.435	1834.62
665.486	1848.87
665.538	1816.33
665.59	1842.72
665.641	1847.44
665.693	1832.81
665.745	1855.31
665.796	1834.49
665.848	1849.13
665.899	1861.53
665.951	1859.25
666.003	1831.82
666.054	1849.51
666.106	1856.39
666.157	1855.84
666.209	1847.87
666.261	1827.47
666.312	1835.17
666.364	1845.15
666.415	1845
666.467	1853.9
666.519	1845.06
666.57	1807.68
666.622	1835.25
666.673	1853.88
666.725	1838.86
666.777	1832.93
666.828	1848.53
666.88	1847.72
666.931	1857.99
666.983	1810.31
667.035	1843.86
667.086	1848.88
667.138	1835.93
667.189	1822.42
667.241	1841.53
667.293	1856.3
667.344	1825.73
667.396	1842.33
667.447	1840.1
667.499	1836.15
667.551	1842.1
667.602	1823.36
667.654	1841.42
667.705	1846.63
667.757	1818.43
667.809	1856.28
667.86	1848.59
667.912	1849.6
667.963	1860.93
668.015	1823.84
668.067	1844.23
668.118	1826.35
668.17	1869.61
668.221	1821.01
668.273	1815.39
668.325	1816.84
668.376	1851.3
668.428	1816.01
668.479	1849.15
668.531	1834.46
668.582	1833.4
668.634	1837.89
668.686	1852.53
668.737	1849.58
668.789	1805.81
668.84	1822.16
668.892	1821.78
668.944	1835.01
668.995	1816.06
669.047	1843.09
669.098	1848.81
669.15	1875.62
669.201	1826.8
669.253	1867.9
669.305	1845.94
669.356	1828.97
669.408	1834.49
669.459	1807.92
669.511	1805.7
669.562	1816.18
669.614	1834.51
669.666	1836.25
669.717	1837.15
669.769	1816.47
669.82	1847.92
669.872	1811.16
669.923	1880.59
669.975	1854.78
670.027	1872.97
670.078	1857.32
670.13	1832.31
670.181	1826.62
670.233	1853.82
670.284	1826
670.336	1819.74
670.388	1836.63
670.439	1833.76
670.491	1817
670.542	1857.84
670.594	1861.95
670.645	1829.88
670.697	1816.23
670.748	1821.79
670.8	1842.54
670.852	1849.74
670.903	1846.43
670.955	1834.52
671.006	1832.61
671.058	1867.48
671.109	1826.32
671.161	1792.81
671.212	1838.87
671.264	1838.41
671.316	1836.96
671.367	1823.58
671.419	1826.75
671.47	1854.96
671.522	1843.02
671.573	1825.54
671.625	1844.14
671.676	1856.74
671.728	1849.57
671.78	1818.2
671.831	1858.94
671.883	1847.47
671.934	1836.82
671.986	1835.34
672.037	1832.87
672.089	1803.47
672.14	1850.68
672.192	1850.06
672.243	1845.43
672.295	1834.93
672.347	1852.7
672.398	1831.65
672.45	1834.45
672.501	1850.14
672.553	1850.9
672.604	1868.32
672.656	1862.06
672.707	1876.97
672.759	1874.89
672.81	1863.38
672.862	1879.21
672.913	1900.43
672.965	1882.07
673.017	1853.54
673.068	1871.6
673.12	1867.66
673.171	1894.39
673.223	1911.59
673.274	1874.25
673.326	1881.98
673.377	1889.06
673.429	1902.21
673.48	1909.76
673.532	1865.88
673.583	1885.16
673.635	1877.61
673.686	1909.27
673.738	1901.41
673.789	1916.78
673.841	1941.58
673.893	1911.79
673.944	1916.72
673.996	1909.74
674.047	1899.36
674.099	1900.38
674.15	1903.57
674.202	1889.1
674.253	1891.66
674.305	1901.38
674.356	1898.72
674.408	1886
674.459	1927.06
674.511	1927.49
674.562	1928.41
674.614	1922.39
674.665	1916.96
674.717	1918.33
674.768	1913.69
674.82	1958.39
674.871	1933.98
674.923	1961.61
674.974	1953.02
675.026	1947.5
675.077	1939.22
675.129	1934.18
675.18	1939.24
675.232	1947.45
675.284	1956.28
675.335	1957.42
675.387	1941.81
675.438	1952.96
675.49	1933.92
675.541	1947.36
675.593	1948.74
675.644	1957.41
675.696	1981.15
675.747	1994.8
675.799	1953.06
675.85	1944.26
675.902	1964.5
675.953	1969.97
676.005	1972.43
676.056	1976.56
676.108	1966.95
676.159	1977.03
676.211	1965.34
676.262	1969.5
676.314	1981.25
676.365	1991.53
676.417	1998.57
676.468	1959.67
676.52	1974.04
676.571	1948.27
676.623	1932.58
676.674	1966.65
676.726	1967.15
676.777	1968.61
676.828	1970.88
676.88	1962.82
676.932	1957.83
676.983	1949.14
677.034	1944.14
677.086	1953.63
677.137	1963.1
677.189	1978.06
677.24	1972.29
677.292	1974.75
677.343	1982.39
677.395	1979.35
677.446	1970.31
677.498	1974.01
677.549	1980.48
677.601	1966.91
677.652	1958.01
677.704	1950.44
677.755	1945.49
677.807	1941.4
677.858	1946.16
677.91	1977.58
677.961	1971.18
678.013	1957.52
678.064	1953.28
678.116	1946.74
678.167	1996.08
678.219	2003.29
678.27	1961.25
678.322	1951.65
678.373	1996.29
678.424	2016.15
678.476	1968.71
678.527	1951.27
678.579	1951.56
678.63	1963.16
678.682	1968.16
678.733	1972.18
678.785	1981.82
678.836	1993.82
678.888	2001.76
678.939	1987.57
678.991	1982.63
679.042	1969.61
679.094	1964.5
679.122	1981.94
679.173	1948.13
679.225	2019.86
679.277	1991.72
679.328	1977.95
679.38	1958.03
679.432	1930.83
679.483	1994.15
679.535	1985.93
679.586	1987.39
679.638	1973.76
679.69	1945.25
679.741	1978.36
679.793	1961.1
679.844	1948.1
679.896	2041.77
679.948	2000.38
679.999	1992.3
680.051	2003.44
680.103	2004
680.154	1979.82
680.206	1988.29
680.257	1997.16
680.309	2004.97
680.361	1999.98
680.412	2034.75
680.464	2018.15
680.515	2001.97
680.567	1983.15
680.619	1993.2
680.67	2010.82
680.722	2003.69
680.773	2031.61
680.825	1962.45
680.877	2035.93
680.928	1987.21
680.98	1975.54
681.031	2019.29
681.083	2018.61
681.135	2025.5
681.186	2023.46
681.238	2020.48
681.289	1975.51
681.341	2022.22
681.393	1986.13
681.444	2025.13
681.496	2005.16
681.547	2054.67
681.599	2022.98
681.651	2017.71
681.702	2036.01
681.754	2052.77
681.805	2002.56
681.857	2030.23
681.909	2059.07
681.96	2023.61
682.012	2008.27
682.063	2006.2
682.115	2031.51
682.166	2044.06
682.218	2029.83
682.27	2076.97
682.321	2014.89
682.373	2032.16
682.424	2038.53
682.476	2028.86
682.528	2028.4
682.579	1991.4
682.631	2075.35
682.682	2045.78
682.734	2021.4
682.785	2030.28
682.837	2064.28
682.889	2022.58
682.94	2049.25
682.992	2063.25
683.043	2033.93
683.095	2067.68
683.146	1984.26
683.198	2065.4
683.25	2044.39
683.301	2023.7
683.353	2046.33
683.404	1990.66
683.456	2049.03
683.508	2028.21
683.559	2071.33
683.611	2045.77
683.662	2055.59
683.714	2002.46
683.765	2066.15
683.817	2041.88
683.869	2027.47
683.92	2076.72
683.972	2045.83
684.023	2040.93
684.075	2065.58
684.126	2021.6
684.178	2068.65
684.229	2039.35
684.281	2039.03
684.333	2051.4
684.384	2043.72
684.436	2012.84
684.487	2032.34
684.539	2067.4
684.59	2044.55
684.642	2018.85
684.694	1993.15
684.745	2025.39
684.797	2074.57
684.848	1993.7
684.9	1993.17
684.951	2005.3
685.003	2006.58
685.055	2000.95
685.106	2031.47
685.158	2024.19
685.209	2041.65
685.261	2046.73
685.312	2022.58
685.364	2021.52
685.415	2031.94
685.467	2010.99
685.518	2016.79
685.57	2023.51
685.622	2028.4
685.673	1978.27
685.725	2023.59
685.776	2022.57
685.828	2013.98
685.879	2040.73
685.931	1985.94
685.982	2020.69
686.034	1974.28
686.086	1971.25
686.137	1989
686.189	2028.06
686.24	2018.03
686.292	1995.8
686.343	1988.68
686.395	2033.95
686.446	2019.16
686.498	1967.35
686.549	1998.29
686.601	2024.43
686.652	1998.36
686.704	1988.5
686.756	2007.84
686.807	2001.7
686.859	1990.66
686.91	1971.05
686.962	1990.6
687.013	1960.04
687.065	1995.83
687.116	1990.78
687.168	2006.26
687.219	2001.42
687.271	1932.5
687.322	1976.97
687.374	2009.7
687.426	1997.03
687.477	1980.42
687.529	1982.92
687.58	1993.31
687.632	1948.21
687.683	1971.12
687.735	1973.34
687.786	1967.59
687.838	2011.16
687.889	1973.34
687.941	1991.29
687.992	2019.47
688.044	1984.07
688.095	1995.72
688.147	1980.3
688.198	2003.63
688.25	2000.93
688.302	1998.22
688.353	1991.22
688.405	1962.89
688.456	1994.33
688.508	1993.22
688.559	1948.79
688.611	1993.62
688.662	1978.87
688.714	1987.32
688.765	1977.87
688.817	1944.32
688.868	2009.91
688.92	1981.78
688.971	1972.74
689.023	1962.8
689.074	1998.25
689.126	1972.08
689.177	1980.98
689.229	1983.89
689.28	1961.89
689.332	2005.8
689.383	1969.44
689.435	1973.91
689.486	1974.83
689.538	1997.14
689.589	1985.92
689.641	1956.56
689.692	1951.19
689.744	1993.54
689.795	1996.89
689.847	1966.88
689.898	1950.17
689.95	1967.27
690.001	1946.01
690.053	1957.47
690.104	1976.12
690.156	1959.37
690.207	1920.4
690.259	1962.38
690.31	1937.85
690.362	1961.09
690.413	1943.2
690.465	1943.8
690.516	1981.45
690.568	1959.97
690.619	1949.65
690.671	1982.05
690.722	1958.73
690.774	1979.48
690.825	1946.96
690.877	1965.07
690.928	1939.65
690.98	1949.45
691.031	1922.38
691.083	1934.59
691.134	1929.25
691.186	1928.26
691.237	1939.29
691.289	1919.98
691.34	1961.84
691.392	1931.96
691.443	1936.99
691.495	1950.21
691.546	1961.83
691.598	1949.53
691.649	1927.92
691.701	1944.52
691.752	1927.61
691.804	1954.66
691.855	1952.4
691.907	1921.73
691.958	1952.26
692.01	1908.79
692.061	1914.9
692.113	1945.15
692.164	1917.32
692.216	1935.08
692.267	1927.83
692.319	1916.03
692.37	1902.54
692.421	1910.13
692.473	1944.75
692.524	1913.14
692.576	1886.01
692.627	1910.14
692.679	1901.45
692.73	1912.89
692.782	1950.55
692.833	1916.31
692.885	1924.1
692.936	1882.13
692.988	1914.3
693.039	1900.97
693.091	1902.15
693.142	1902.24
693.194	1883.62
693.245	1876.71
693.297	1901.28
693.348	1888.57
693.399	1867.76
693.451	1901.14
693.502	1905.24
693.554	1878.6
693.605	1899.22
693.657	1904.95
693.708	1909.69
693.76	1881.55
693.811	1876.95
693.863	1875.23
693.914	1900.5
693.966	1906.99
694.017	1864.46
694.068	1888.06
694.12	1878.26
694.171	1913.44
694.223	1888.12
694.274	1880.08
694.326	1904.68
694.377	1870.9
694.429	1877.71
694.48	1886.08
694.532	1867.31
694.583	1824.46
694.634	1876.73
694.686	1859.38
694.737	1884.41
694.789	1920.43
694.84	1874.2
694.892	1874.18
694.943	1899.88
694.995	1859.49
695.046	1884.4
695.097	1877.1
695.149	1873.55
695.2	1900.11
695.252	1874.39
695.303	1859.37
695.355	1858.42
695.406	1881.98
695.458	1884.67
695.509	1885.91
695.56	1848.89
695.612	1850.47
695.663	1887.36
695.715	1858.06
695.766	1847.94
695.818	1852.52
695.869	1882.16
695.921	1885.38
695.972	1844.08
696.023	1844.85
696.075	1867.84
696.126	1879.51
696.178	1863.05
696.229	1878.41
696.281	1860.31
696.332	1844.07
696.383	1846.2
696.435	1844.22
696.486	1839.48
696.538	1867.01
696.589	1833.12
696.641	1858.68
696.692	1857.14
696.744	1849.29
696.795	1860.42
696.846	1832.39
696.898	1806.3
696.949	1854.22
697.001	1850
697.052	1820.64
697.104	1823.52
697.155	1844.77
697.206	1801.44
697.258	1845.36
697.309	1822.09
697.361	1826.15
697.412	1842.89
697.463	1822.54
697.515	1856.78
697.566	1804.44
697.618	1831.16
697.669	1843.68
697.721	1812.14
697.772	1786.83
697.823	1793.15
697.875	1817.6
697.926	1814.68
697.978	1802.8
698.029	1815.94
698.08	1796.42
698.132	1798.21
698.183	1818.9
698.235	1799.4
698.286	1786.63
698.338	1810.81
698.389	1803.39
698.44	1804.21
698.492	1789.51
698.543	1779.57
698.595	1786.8
698.646	1782.16
698.697	1802.56
698.749	1780.42
698.8	1771.73
698.852	1786.22
698.903	1779.23
698.954	1762.22
699.006	1781.89
699.057	1783.11
699.109	1787.25
699.16	1789.35
699.211	1770.4
699.263	1777.26
699.314	1774.15
699.366	1773.63
699.417	1778.21
699.468	1778.53
699.52	1780.11
699.571	1792.87
699.623	1767.18
699.674	1774.47
699.725	1780.78
699.777	1798.77
699.828	1789.87
699.88	1799.54
699.931	1745.11
699.982	1755.86
700.034	1757.39
700.085	1761.42
700.137	1750.39
700.188	1753.74
700.239	1753.87
700.291	1778.21
700.342	1773.06
700.393	1760.22
700.445	1775.23
700.496	1761.43
700.548	1733.44
700.599	1752.9
700.65	1738.01
700.702	1756.1
700.753	1775.49
700.805	1768.14
700.856	1750.28
700.907	1751.87
700.959	1759.32
701.01	1745.67
701.061	1764.9
701.113	1773.87
701.164	1768.63
701.216	1769.77
701.267	1734.71
701.318	1740.81
701.37	1781.05
701.421	1772.28
701.472	1748.58
701.524	1763.75
701.575	1770.6
701.627	1770.14
701.678	1791.01
701.729	1781.71
701.781	1773.35
701.832	1778.51
701.883	1754.37
701.935	1725.5
701.986	1737.4
702.038	1776.33
702.089	1770.31
702.14	1758.31
702.192	1770.31
702.243	1779.21
702.294	1772.43
702.346	1756.89
702.397	1768.74
702.448	1759.11
702.5	1752.15
702.551	1756.72
702.603	1757.39
702.654	1758.7
702.705	1752.31
702.757	1754.93
702.808	1756.58
702.859	1725.11
702.911	1724.79
702.962	1754.32
703.013	1761.21
703.065	1758.53
703.116	1763.38
703.167	1757.57
703.219	1760.96
703.27	1759.15
703.322	1763.74
703.373	1777
703.424	1767.11
703.476	1768.97
703.527	1760.92
703.578	1748.35
703.63	1746.16
703.681	1749.31
703.732	1768.04
703.784	1756.83
703.835	1762.13
703.886	1758.66
703.938	1746.69
703.989	1753.49
704.04	1739.21
704.092	1719.82
704.143	1743.36
704.194	1731.8
704.246	1741.52
704.297	1734.44
704.348	1707.4
704.4	1719.33
704.451	1740.57
704.503	1735.44
704.554	1724.39
704.605	1720.2
704.656	1725.86
704.708	1735.8
704.759	1711.26
704.81	1725.64
704.862	1723.04
704.913	1702.86
704.964	1719.56
705.016	1735.01
705.067	1752.65
705.119	1736.8
705.17	1723.77
705.221	1723.9
705.273	1715.99
705.324	1695.13
705.375	1688.58
705.408	1686
705.459	1704
705.511	1706.02
705.562	1708.03
705.614	1694.1
705.665	1717.89
705.717	1715.83
705.768	1690.28
705.82	1690.34
705.871	1685.97
705.923	1696.2
705.974	1685.88
706.026	1697.54
706.077	1670.45
706.129	1668.3
706.18	1682.4
706.232	1677
706.283	1705.53
706.335	1675.37
706.386	1657.63
706.438	1678.4
706.489	1706.87
706.541	1681.09
706.592	1664.61
706.643	1693.73
706.695	1635.64
706.746	1633.16
706.798	1653.12
706.849	1681.02
706.901	1650.63
706.952	1676
707.004	1649.87
707.055	1641.01
707.107	1683.7
707.158	1658.81
707.21	1652.15
707.261	1635.52
707.313	1664.42
707.364	1676.29
707.416	1641.16
707.467	1678.04
707.518	1642.17
707.57	1656.6
707.621	1642.82
707.673	1662.67
707.724	1638.64
707.776	1647.57
707.827	1638.2
707.879	1641.14
707.93	1656.37
707.982	1646.34
708.033	1634.41
708.084	1648.3
708.136	1665.81
708.187	1624.55
708.239	1615.38
708.29	1642.82
708.342	1629.12
708.393	1619.31
708.445	1629.15
708.496	1621.36
708.548	1635.09
708.599	1629.11
708.651	1607.24
708.702	1644.41
708.753	1626.45
708.805	1644.37
708.856	1579.92
708.908	1619.03
708.959	1628.77
709.011	1619.21
709.062	1652.06
709.114	1626.15
709.165	1617.65
709.216	1631.68
709.268	1640.37
709.319	1580.19
709.371	1634.06
709.422	1601.58
709.474	1603.42
709.525	1636.85
709.577	1635.07
709.628	1600.33
709.679	1587.55
709.731	1620.82
709.782	1598.24
709.834	1638.9
709.885	1617.07
709.937	1618.57
709.988	1595.38
710.039	1610.02
710.091	1597.92
710.142	1627.67
710.194	1622.52
710.245	1599.58
710.297	1587.67
710.348	1640.26
710.4	1573.24
710.451	1596.54
710.502	1576.76
710.554	1560.02
710.605	1603.42
710.657	1588.21
710.708	1569.7
710.76	1605.26
710.811	1602.7
710.862	1595.68
710.914	1583.08
710.965	1572.78
711.017	1589.75
711.068	1588.92
711.12	1598.27
711.171	1584.56
711.222	1565.24
711.274	1595.34
711.325	1570.06
711.377	1587.22
711.428	1580.57
711.479	1557.37
711.531	1564.58
711.582	1581.56
711.634	1582.74
711.685	1543.56
711.737	1550.54
711.788	1564.68
711.839	1570.72
711.891	1558.46
711.942	1566.62
711.994	1537.24
712.045	1552.22
712.096	1557.09
712.148	1558.79
712.199	1540.61
712.251	1584.24
712.302	1555.66
712.354	1538.93
712.405	1565.21
712.456	1556.32
712.508	1532.87
712.559	1558.12
712.611	1554.94
712.662	1532.25
712.713	1543.17
712.765	1539.76
712.816	1538.9
712.868	1517.02
712.919	1530.45
712.97	1555.84
713.022	1497.05
713.073	1535.32
713.125	1551.03
713.176	1525.55
713.227	1518.47
713.279	1529.01
713.33	1522.69
713.382	1511.86
713.433	1538.97
713.484	1518.26
713.536	1509.26
713.587	1498.79
713.639	1504.49
713.69	1498.94
713.741	1514.47
713.793	1483.17
713.844	1499.76
713.896	1523.36
713.947	1500.06
713.998	1497.53
714.05	1487.86
714.101	1504.35
714.153	1472.07
714.204	1480.06
714.255	1493.75
714.307	1481.48
714.358	1478.49
714.41	1501.83
714.461	1479.68
714.512	1489.51
714.564	1470.51
714.615	1467.67
714.666	1469.7
714.718	1460.55
714.769	1463.59
714.821	1475.36
714.872	1463.55
714.923	1464.74
714.975	1438.71
715.026	1492.91
715.078	1444.78
715.129	1455.86
715.18	1469.52
715.232	1444.35
715.283	1455.36
715.334	1447.94
715.386	1469.26
715.437	1475.43
715.489	1427.52
715.54	1429.21
715.591	1450.09
715.643	1431.38
715.694	1468.21
715.745	1449.35
715.797	1480.48
715.848	1467.81
715.9	1442.78
715.951	1424.38
716.002	1434.22
716.054	1414.08
716.105	1435.35
716.156	1459.02
716.208	1416.34
716.259	1444.75
716.31	1422.15
716.362	1421.09
716.413	1440.43
716.465	1420.88
716.516	1436.11
716.567	1409.98
716.619	1427.69
716.67	1419.64
716.721	1422.19
716.773	1429.05
716.824	1436.24
716.875	1430.05
716.927	1445.24
716.978	1428.78
717.03	1424.16
717.081	1433.87
717.132	1405.76
717.184	1436.25
717.235	1413.24
717.286	1410.82
717.338	1414.98
717.389	1409.5
717.44	1424.09
717.492	1399.68
717.543	1420.83
717.594	1418.59
717.646	1371.55
717.697	1378.99
717.749	1425.55
717.8	1406.29
717.851	1417.17
717.903	1393.18
717.954	1421.9
718.005	1389.1
718.057	1382.01
718.108	1411.59
718.159	1405.85
718.211	1384.54
718.262	1403.03
718.313	1399.23
718.365	1391.5
718.416	1424.89
718.467	1384.84
718.519	1372.47
718.57	1377.5
718.621	1415.77
718.673	1385.56
718.724	1398.26
718.775	1375.82
718.827	1388.94
718.878	1402.34
718.93	1377.02
718.981	1378.62
719.032	1391.52
719.083	1397.3
719.135	1392.46
719.186	1382.7
719.237	1392.9
719.289	1385.53
719.34	1379.17
719.391	1372.42
719.443	1360.81
719.494	1369.87
719.545	1364.77
719.597	1345.93
719.648	1351.37
719.699	1361.25
719.751	1376.02
719.802	1381.13
719.853	1356.9
719.905	1342.53
719.956	1355.94
720.007	1359.91
720.059	1349.79
720.11	1327
720.161	1365.64
720.213	1361.76
720.264	1352.97
720.315	1347.25
720.367	1339.92
720.418	1339.39
720.469	1358.85
720.521	1345.33
720.572	1341.7
720.623	1350.05
720.675	1355.81
720.726	1322.08
720.777	1326.12
720.829	1334.93
720.88	1339.83
720.931	1345.61
720.982	1329.05
721.034	1310.32
721.085	1333.78
721.136	1334.59
721.188	1341.76
721.239	1314.07
721.29	1307.92
721.342	1319.81
721.393	1320.56
721.444	1325.94
721.496	1319.18
721.547	1318.35
721.598	1311.35
721.65	1305.32
721.701	1305.1
721.752	1300.85
721.803	1302.45
721.855	1297.52
721.906	1299.55
721.957	1314.74
722.009	1298.58
722.06	1274.73
722.111	1290.39
722.163	1282.68
722.214	1289.66
722.265	1301.87
722.316	1287.28
722.368	1269.48
722.419	1275.64
722.47	1269.18
722.522	1280.53
722.573	1279.56
722.624	1302.21
722.676	1304.13
722.727	1285.63
722.778	1261.73
722.829	1259.99
722.881	1263.82
722.932	1269.98
722.983	1276.03
723.035	1261.27
723.086	1268.59
723.137	1273.6
723.188	1283.08
723.24	1277.71
723.291	1258.73
723.342	1282.96
723.394	1279.03
723.445	1261.19
723.496	1250.46
723.547	1244.89
723.599	1236.98
723.65	1252.34
723.701	1241.09
723.753	1252.64
723.804	1241.03
723.855	1259.29
723.906	1255.75
723.958	1248.62
724.009	1230.59
724.06	1243.98
724.112	1248.68
724.163	1234.92
724.214	1229.93
724.265	1248.26
724.317	1265.2
724.368	1246.88
724.419	1250.56
724.47	1233.51
724.522	1253.12
724.573	1247.45
724.624	1243.2
724.676	1250.59
724.727	1243.75
724.778	1241.29
724.829	1227.07
724.881	1226.89
724.932	1247.62
724.983	1245.28
725.034	1210.12
725.086	1244.29
725.137	1242.65
725.188	1224.97
725.24	1212.82
725.291	1239.91
725.342	1243.79
725.393	1226.74
725.445	1241.63
725.496	1244.31
725.547	1225.62
725.598	1227.23
725.65	1230.7
725.701	1227.91
725.752	1221.39
725.803	1220.41
725.855	1216
725.906	1235.52
725.957	1226.97
726.008	1205.14
726.06	1221.16
726.111	1209.42
726.162	1207.06
726.213	1192.74
726.265	1192.6
726.316	1210.5
726.367	1207.06
726.418	1200.73
726.47	1204.57
726.521	1206.64
726.572	1167.47
726.623	1196.43
726.675	1193.25
726.726	1190.92
726.777	1177.34
726.828	1201.42
726.88	1198.12
726.931	1185.09
726.982	1194.54
727.033	1189
727.085	1178.03
727.136	1185.2
727.187	1196.03
727.238	1193.85
727.29	1170.25
727.341	1190.51
727.392	1202.72
727.443	1184.15
727.495	1160.44
727.546	1174.8
727.597	1193.49
727.648	1171.7
727.7	1164.25
727.751	1184.86
727.802	1148.78
727.853	1186.63
727.904	1159.1
727.956	1160.49
728.007	1168.55
728.058	1152.93
728.109	1169.45
728.161	1166.77
728.212	1184.34
728.263	1143.66
728.314	1149.02
728.366	1152.02
728.417	1182.23
728.468	1153.52
728.519	1153.88
728.57	1124.65
728.622	1146.23
728.673	1131.56
728.724	1147.68
728.775	1154.6
728.827	1153.98
728.878	1134.11
728.929	1140.39
728.98	1122.15
729.031	1111.89
729.083	1134.43
729.134	1147.98
729.185	1125.45
729.236	1128.05
729.288	1125.15
729.339	1134.62
729.39	1119.42
729.441	1130.49
729.492	1112.94
729.544	1090.22
729.595	1110.45
729.646	1099.42
729.697	1106.87
729.748	1106.47
729.8	1109.26
729.851	1111.75
729.902	1117.36
729.953	1105.13
730.004	1094.4
730.056	1098.49
730.107	1084.08
730.158	1077.35
730.209	1079.06
730.26	1101.94
730.312	1104.92
730.363	1129.52
730.414	1065.67
730.465	1092.83
730.517	1075.56
730.568	1093.15
730.619	1049.93
730.67	1077.43
730.721	1082.51
730.773	1087.08
730.824	1051.01
730.875	1067.62
730.926	1064.83
730.977	1053.72
731.029	1095.19
731.08	1080.03
731.131	1049.06
731.182	1061.28
731.233	1077.35
731.284	1052.5
731.336	1062.13
731.387	1044.77
731.438	1058.06
731.489	1050.29
731.54	1044.41
731.592	1072.05
731.643	1056.12
731.643	1056
731.694	1038
731.746	1070
731.797	1050.03
731.848	1052.1
731.9	1072.12
731.951	1082.11
732.002	1064.06
732.054	1022.38
732.105	1042.11
732.156	1050.2
732.208	1042.38
732.259	1038.59
732.311	1034.63
732.362	1062.07
732.413	1042.72
732.465	1062.81
732.516	1052.52
732.567	1028.4
732.619	1047.62
732.67	1025.61
732.721	1023.19
732.773	1012.01
732.824	1007.52
732.875	1063.83
732.927	1060.21
732.978	1023.09
733.029	1036.81
733.081	1032.27
733.132	1059.33
733.183	1024.04
733.235	1040.46
733.286	1044.52
733.337	1039.81
733.389	1033.52
733.44	1026.33
733.491	1017.29
733.543	1036.67
733.594	1008.81
733.645	1013.77
733.697	1042.79
733.748	1026.6
733.799	1006.91
733.851	1040.34
733.902	1047.21
733.953	1013.42
734.005	1015.3
734.056	1006.42
734.107	1001.23
734.158	1026.89
734.21	1028.99
734.261	1003.55
734.312	1003
734.364	1039.05
734.415	1032.84
734.466	1012.13
734.518	1009.51
734.569	1025.12
734.62	1021.49
734.672	1042.59
734.723	990.251
734.774	978.813
734.826	1011.93
734.877	1030.31
734.928	995.286
734.98	1007.71
735.031	994.997
735.082	1005.05
735.133	991.628
735.185	998.945
735.236	1018.08
735.287	1002.45
735.339	1002.14
735.39	1017.21
735.441	1017.75
735.493	991.679
735.544	1025.94
735.595	984.624
735.647	1011.51
735.698	994.97
735.749	1001.97
735.8	1003.96
735.852	1003.41
735.903	1011.63
735.954	1005.73
736.006	976.002
736.057	991.477
736.108	974.015
736.16	994.664
736.211	992.417
736.262	959.845
736.313	1011.24
736.365	1015.41
736.416	999.046
736.467	1000.01
736.519	981.996
736.57	981.715
736.621	1000.83
736.673	1007.82
736.724	992.629
736.775	979.922
736.826	997.574
736.878	968.681
736.929	967.089
736.98	1000.23
737.032	994.42
737.083	995.367
737.134	934.712
737.185	1008.67
737.237	972.227
737.288	997.956
737.339	958.72
737.391	979.475
737.442	988.738
737.493	957.563
737.544	979.623
737.596	1014.44
737.647	972.724
737.698	996.45
737.75	976.214
737.801	976.724
737.852	970.935
737.903	990.935
737.955	992.008
738.006	982.012
738.057	944.949
738.109	980.441
738.16	980.817
738.211	959.636
738.262	999.615
738.314	991.892
738.365	970.315
738.416	1007.47
738.468	992.835
738.519	981.936
738.57	969.276
738.621	980.23
738.673	976.757
738.724	985.712
738.775	974.054
738.826	980.424
738.878	958.362
738.929	968.154
738.98	975.464
739.031	969.597
739.083	947.789
739.134	988.06
739.185	962.761
739.237	978.559
739.288	986.127
739.339	972.558
739.39	964.722
739.442	950.747
739.493	951.264
739.544	937.174
739.595	956.179
739.647	948.453
739.698	962.365
739.749	948.113
739.8	976.985
739.852	949.255
739.903	927.563
739.954	954.843
740.005	959.6
740.057	955.403
740.108	970.609
740.159	949.64
740.211	953.71
740.262	936.17
740.313	973.129
740.364	928.588
740.416	923.905
740.467	933.021
740.518	951.45
740.569	929.779
740.621	937.533
740.672	972.958
740.723	957.223
740.774	948.177
740.826	937.803
740.877	933.214
740.928	937.181
740.979	936.209
741.031	948.065
741.082	953.955
741.133	949.704
741.184	936.485
741.235	912.156
741.287	937.325
741.338	950.169
741.389	936.033
741.44	941.246
741.492	940.971
741.543	918.813
741.594	906.293
741.645	905.33
741.697	928.576
741.748	917.113
741.799	945.925
741.85	936.708
741.902	910.431
741.953	893.425
742.004	896.063
742.055	914.818
742.107	922.079
742.158	918.438
742.209	898.523
742.26	928.859
742.311	913.243
742.363	925.492
742.414	929.137
742.465	907.448
742.516	910.067
742.568	903.198
742.619	903.886
742.67	903.505
742.721	910.048
742.773	895.396
742.824	907.315
742.875	896.847
742.926	896.029
742.977	911.056
743.029	905.369
743.08	905.343
743.131	908.882
743.182	918.38
743.234	895.089
743.285	902.049
743.336	900.919
743.387	879.332
743.438	871.517
743.49	902.544
743.541	894
743.592	886.481
743.643	896.443
743.694	865.487
743.746	890.079
743.797	886.022
743.848	882.297
743.899	874.803
743.951	874.61
744.002	898.205
744.053	881.413
744.104	879.514
744.155	886.054
744.207	877.374
744.258	874.696
744.309	891.732
744.36	878.038
744.411	865.812
744.463	870.477
744.514	884.777
744.565	893.58
744.616	878.785
744.667	867.522
744.719	860.115
744.77	881.971
744.821	886.232
744.872	856.95
744.923	862.559
744.975	878.211
745.026	887.607
745.077	869.707
745.128	849.56
745.179	852.863
745.231	863.217
745.282	860.774
745.333	862.648
745.384	864.592
745.435	850.57
745.487	861.842
745.538	855.532
745.589	851.556
745.64	876.495
745.691	850.693
745.743	846.121
745.794	869.104
745.845	849.586
745.896	847.378
745.947	843.419
745.998	840.838
746.05	852.283
746.101	854.712
746.152	850.516
746.203	856.032
746.254	833.494
746.306	820.762
746.357	843.006
746.408	854.471
746.459	839.501
746.51	836.244
746.562	842.167
746.613	836.922
746.664	844.851
746.715	831.372
746.766	830.584
746.817	843.088
746.869	847.893
746.92	836.975
746.971	829.679
747.022	824.594
747.073	829.642
747.125	831.219
747.176	833.732
747.227	823.135
747.278	835.598
747.329	840.232
747.38	831.574
747.432	820.687
747.483	836.821
747.534	836.64
747.585	829.626
747.636	839.579
747.687	836.181
747.739	833.042
747.79	819.849
747.841	826.966
747.892	823.462
747.943	823.967
747.994	843.807
748.046	817.274
748.097	817.9
748.148	832.439
748.199	818.799
748.25	830.859
748.301	833.969
748.352	835.369
748.404	823.46
748.455	808.805
748.506	827.195
748.557	812.309
748.608	811.758
748.659	797.35
748.711	791.274
748.762	812.188
748.813	811.789
748.864	826.203
748.915	815.846
748.966	823.294
749.018	826.324
749.069	823.197
749.12	822.586
749.171	811.329
749.222	819.821
749.273	825.941
749.324	797.615
749.376	785.683
749.427	798.471
749.478	805.083
749.529	806.613
749.58	815.62
749.631	800.806
749.682	798
749.734	797.403
749.785	805.079
749.836	814.528
749.887	794.83
749.938	787.989
749.989	814.732
750.04	806.923
750.092	804.63
750.143	799.811
750.194	791.151
750.245	805.323
750.296	816.268
750.347	781.744
750.398	792.794
750.45	806.557
750.501	774.131
750.552	770.151
750.603	797.38
750.654	794.964
750.705	793.298
750.756	788.825
750.807	797.903
750.859	798.32
750.91	774.45
750.961	781.066
751.012	790.911
751.063	779.128
751.114	780.352
751.165	775.761
751.216	780.531
751.268	784.159
751.319	785.533
751.37	784.266
751.421	773.153
751.472	795.043
751.523	795.621
751.574	769.198
751.625	762.369
751.677	764.211
751.728	769.8
751.779	756.83
751.83	760.08
751.881	759.433
751.932	780.148
751.983	771.554
752.034	756.9
752.086	774.892
752.137	759.566
752.188	763.212
752.239	775.83
752.29	775.544
752.341	770.705
752.392	773.36
752.443	775.964
752.494	760.401
752.546	763.162
752.597	749.976
752.648	747.298
752.699	764.449
752.75	779.06
752.801	749.109
752.852	776.571
752.903	763.308
752.954	755.884
753.005	743.924
753.057	738.635
753.108	756.997
753.159	765.521
753.21	763.594
753.261	733.372
753.312	734.443
753.363	744.406
753.414	758.274
753.465	741.287
753.516	749.156
753.568	760.942
753.619	742.825
753.67	750.542
753.721	746.03
753.772	737.925
753.823	749.773
753.874	729.933
753.925	726.834
753.976	744.967
754.027	744.224
754.079	728.428
754.13	733.043
754.181	750.398
754.232	748.553
754.283	723.519
754.334	723.072
754.385	749.494
754.436	716.369
754.487	731.585
754.538	712.129
754.589	730.906
754.641	738.892
754.692	714.327
754.743	721.965
754.794	724.415
754.845	719.268
754.896	720.451
754.947	716.131
754.998	705.358
755.049	722.913
755.1	725.451
755.151	711.327
755.202	737.34
755.253	708.649
755.305	725.52
755.356	733.931
755.407	706.209
755.458	717.136
755.509	706.287
755.56	692
755.611	701.294
755.662	707.209
755.713	679.901
755.764	702.012
755.815	710.165
755.866	709.928
755.917	718.457
755.968	683.486
756.02	685.197
756.071	693.28
756.122	710.957
756.173	678.77
756.224	697.267
756.275	713.241
756.326	707.254
756.377	704.132
756.428	702.845
756.479	695.289
756.53	682.903
756.581	697.302
756.632	692.994
756.683	685.649
756.734	698.857
756.785	703.048
756.837	698.509
756.888	676.071
756.939	660.421
756.99	688.19
757.041	682.257
757.092	682.487
757.143	685.66
757.194	669.294
757.245	687.259
757.296	688.251
757.347	679.968
757.398	700.283
757.449	668.48
757.5	677.756
757.551	677.009
757.602	689.487
757.653	686.956
757.704	684.34
757.755	678.957
757.807	691.37
757.858	675.69
757.909	691.973
757.917	696
757.968	675.982
758.02	669.996
758.071	673.941
758.122	667.891
758.173	665.999
758.224	681.914
758.276	654.221
758.327	661.906
758.378	669.635
758.429	677.13
758.48	663.351
758.532	669.542
758.583	650.491
758.634	652.686
758.685	656.334
758.736	654.472
758.788	677.383
758.839	675.756
758.89	647.41
758.941	656.41
758.992	685.216
759.044	642.824
759.095	662.352
759.146	650.645
759.197	674.83
759.248	642.762
759.3	650.496
759.351	645.076
759.402	675.22
759.453	655.703
759.504	654.303
759.556	639.336
759.607	673.557
759.658	647.404
759.709	631.37
759.76	635.651
759.811	656.716
759.863	642.451
759.914	656.069
759.965	634.375
760.016	642.133
760.067	641.29
760.119	646.636
760.17	632.267
760.221	630.008
760.272	645.195
760.323	632.54
760.375	649.22
760.426	628.533
760.477	633.403
760.528	653.468
760.579	624.789
760.63	648.059
760.682	653.263
760.733	607.792
760.784	636.124
760.835	615.393
760.886	611.85
760.937	639.029
760.989	625.883
761.04	618.171
761.091	644.962
761.142	637.205
761.193	620.868
761.245	616.653
761.296	618.558
761.347	596.733
761.398	632.987
761.449	624.509
761.5	626.928
761.552	627.149
761.603	641.866
761.654	608.932
761.705	621.286
761.756	630.318
761.807	611.565
761.859	601.76
761.91	631.551
761.961	603.227
762.012	592.71
762.063	627.382
762.114	602.625
762.165	611.678
762.217	598.727
762.268	600.077
762.319	616.412
762.37	615.215
762.421	603.339
762.472	605.926
762.524	612.534
762.575	618.416
762.626	589.786
762.677	608.79
762.728	605.448
762.779	592.45
762.831	600.819
762.882	590.687
762.933	607.906
762.984	598.125
763.035	591.218
763.086	591.375
763.137	603.949
763.189	579.846
763.24	592.787
763.291	607.336
763.342	593.973
763.393	614.436
763.444	599.378
763.495	562.723
763.547	582.778
763.598	560.874
763.649	600.508
763.7	572.096
763.751	599.872
763.802	583.506
763.853	570.752
763.905	606.387
763.956	590.494
764.007	581.039
764.058	567.867
764.109	578.883
764.16	585.851
764.211	578.77
764.263	571.447
764.314	575.317
764.365	567.217
764.416	572.321
764.467	597.707
764.518	575.999
764.569	597.31
764.621	584.659
764.672	567.723
764.723	583.185
764.774	581.551
764.825	573.248
764.876	574.885
764.927	562.072
764.978	575.45
765.03	565.999
765.081	584.753
765.132	574.039
765.183	561.464
765.234	572.557
765.285	576.392
765.336	571.176
765.387	566.076
765.439	562.741
765.49	585.699
765.541	569.376
765.592	574.674
765.643	554.953
765.694	549.089
765.745	579.052
765.796	565.873
765.848	549.173
765.899	547.942
765.95	567.738
766.001	561.384
766.052	559.659
766.103	555.956
766.154	548.053
766.205	549.353
766.256	572.826
766.308	558.577
766.359	570.592
766.41	554.558
766.461	552.486
766.512	542.069
766.563	554.634
766.614	556.353
766.665	545.711
766.716	559.426
766.768	555.115
766.819	559.451
766.87	545.984
766.921	543.75
766.972	546.52
767.023	542.736
767.074	532.48
767.125	564.199
767.176	556.214
767.227	551.809
767.279	547.067
767.33	550.705
767.381	544.699
767.432	543.703
767.483	527.212
767.534	537.116
767.585	526.162
767.636	540.079
767.687	537.582
767.739	529.574
767.79	531.618
767.841	523.784
767.892	536.967
767.943	553.272
767.994	535.697
768.045	530.413
768.096	536.83
768.147	538.62
768.198	530.666
768.249	533.115
768.301	525.039
768.352	550.569
768.403	520.309
768.454	525.853
768.505	541.094
768.556	532.969
768.607	525.693
768.658	523.682
768.709	511.185
768.76	525.499
768.811	528.924
768.862	525.694
768.914	518.275
768.965	504.06
769.016	509.117
769.067	503.943
769.118	517.949
769.169	533.582
769.22	519.387
769.271	524.298
769.322	519.852
769.373	518.963
769.424	518.951
769.475	501.317
769.526	507.217
769.578	523.689
769.629	510.949
769.68	511.219
769.731	505.613
769.782	505.386
769.833	481.558
769.884	511.965
769.935	514.344
769.986	501.643
770.037	514.258
770.088	512.037
770.139	508.722
770.19	525.534
770.242	507.185
770.293	497.781
770.344	503.563
770.395	525.212
770.446	512.27
770.497	514.328
770.548	478.48
770.599	504.888
770.65	501.257
770.701	494.961
770.752	483.314
770.803	478.832
770.854	487.339
770.905	484.905
770.956	484.817
771.007	499.876
771.058	496.069
771.11	488.2
771.161	491.9
771.212	478.109
771.263	498.674
771.314	488.329
771.365	484.272
771.416	496.561
771.467	489.742
771.518	473.341
771.569	491.196
771.62	494.197
771.671	472.655
771.722	477.769
771.773	492.449
771.824	478.939
771.875	479.956
771.926	480.137
771.977	477.361
772.028	511.352
772.079	480.898
772.131	477.353
772.182	478.827
772.233	489.35
772.284	489.502
772.335	489.362
772.386	471.34
772.437	465.923
772.488	466.907
772.539	479.962
772.59	470.422
772.641	478.827
772.692	468.909
772.743	485.633
772.794	486.929
772.845	469.094
772.896	480.783
772.947	467.987
772.998	473.508
773.049	465.855
773.1	469.571
773.151	468.255
773.202	462.347
773.253	451.414
773.304	474.462
773.355	466.863
773.406	443.942
773.457	462.186
773.508	475.226
773.56	447.151
773.611	457.207
773.662	445.061
773.713	463.915
773.764	476.143
773.815	464.624
773.866	460.531
773.917	461.642
773.968	469.152
774.019	452.315
774.07	462.635
774.121	462.665
774.172	449.741
774.223	462.347
774.274	455.401
774.325	457.42
774.376	439.914
774.427	449.91
774.478	455.11
774.529	450.669
774.58	455.249
774.631	444.317
774.682	452.47
774.733	437.137
774.784	444.759
774.835	461.694
774.886	449.675
774.937	446.854
774.988	442.516
775.039	439.443
775.09	442.542
775.141	438.427
775.192	440.403
775.243	446.748
775.294	442.564
775.345	456.565
775.396	433.784
775.447	441.76
775.498	436.532
775.549	452.201
775.6	451.436
775.651	446.533
775.702	435.907
775.753	432.273
775.804	436.428
775.855	441.725
775.906	428.281
775.957	439.555
776.008	447.751
776.059	436.418
776.11	435.223
776.161	418.681
776.212	435.338
776.263	432.24
776.314	426.804
776.365	423.982
776.416	425.874
776.467	427.092
776.518	426.554
776.569	423.52
776.62	419.926
776.671	416.11
776.722	429.396
776.773	423.047
776.824	431.17
776.875	413.696
776.926	416.375
776.977	418.343
777.028	412.102
777.079	402.579
777.13	417.048
777.181	418.167
777.232	419.742
777.283	420.411
777.334	413.897
777.385	420.007
777.436	431.839
777.487	426.516
777.538	432
777.589	417.606
777.64	406.174
777.691	409.532
777.742	419.813
777.793	420.27
777.844	417.436
777.895	408.693
777.946	413.295
777.997	418.523
778.047	412.549
778.098	410.43
778.149	403.231
778.2	413.975
778.251	411.203
778.302	405.949
778.353	403.611
778.404	407.219
778.455	400.195
778.506	402.139
778.557	414.106
778.608	416.297
778.659	414.747
778.71	411.017
778.761	404.805
778.812	405.191
778.863	407.191
778.914	402.077
778.965	387.987
779.016	395.52
779.067	405.714
779.118	403.707
779.169	392.599
779.22	388.285
779.271	388.481
779.322	392.904
779.373	392.784
779.424	397.567
779.474	405.914
779.525	401.007
779.576	390.99
779.627	388.52
779.678	389.023
779.729	384.378
779.78	388.137
779.831	396.611
779.882	391.543
779.933	385.583
779.984	393.348
780.035	384.758
780.086	388.146
780.137	379.807
780.188	380.955
780.239	380.607
780.29	380.017
780.341	393.499
780.392	383.967
780.442	376.531
780.493	373.882
780.544	384.532
780.595	385.712
780.646	390.46
780.697	371.534
780.748	361.262
780.799	380.519
780.85	389.647
780.901	379.015
780.952	380.956
781.003	386.07
781.054	381.291
781.105	383.043
781.156	381.275
781.207	385.368
781.257	383.949
781.308	390.316
781.359	382.37
781.41	377.244
781.461	386.404
781.512	379.849
781.563	363.269
781.614	362.268
781.665	382.156
781.716	381.377
781.767	365.865
781.818	370.069
781.869	372.863
781.919	370.433
781.97	371.212
782.021	373.227
782.072	365.279
782.123	364.8
782.174	365.532
782.225	343.911
782.276	364.193
782.327	366.265
782.378	372.552
782.429	381.001
782.48	369.298
782.531	356.264
782.581	353.612
782.632	369.611
782.683	354.906
782.734	350.725
782.785	357.785
782.836	363.487
782.887	349.512
782.938	362.879
782.989	362.252
783.04	362.692
783.091	358.649
783.141	341.676
783.192	345.719
783.243	353.505
783.294	360.609
783.345	348.701
783.396	365.772
783.447	352.413
783.498	357.017
783.549	353.496
783.6	348.46
783.651	345.907
783.701	351.271
783.752	346.507
783.803	344.468
783.854	360.411
783.905	346.632
783.956	359.007
784.007	358.812
784.058	333.341
784.1	330
784.151	356.002
784.202	363.911
784.253	357.968
784.304	353.988
784.355	324.042
784.406	344.001
784.458	354.017
784.509	344.235
784.56	340.139
784.611	341.951
784.662	359.52
784.713	357.588
784.764	347.725
784.815	341.731
784.866	351.792
784.917	352.145
784.968	336.12
785.019	353.796
785.07	357.244
785.121	351.633
785.172	337.738
785.223	329.894
785.274	348.867
785.326	341.241
785.377	331.649
785.428	328.618
785.479	338.785
785.53	345.487
785.581	322.854
785.632	351.856
785.683	342.933
785.734	338.268
785.785	337.351
785.836	340.912
785.887	325.672
785.938	333.797
785.989	329.416
786.04	323.745
786.091	338.945
786.142	327.707
786.193	315.201
786.244	320.737
786.295	323.676
786.346	320.213
786.397	331.101
786.448	336.742
786.5	329.364
786.551	327.027
786.602	325.62
786.653	331.083
786.704	330.146
786.755	321.941
786.806	335.104
786.857	338.351
786.908	323.058
786.959	331.741
787.01	321.871
787.061	313.71
787.112	331.516
787.163	325.516
787.214	312.533
787.265	320.128
787.316	330.786
787.367	324.199
787.418	303.805
787.469	321.778
787.52	322.004
787.571	320.783
787.622	319.198
787.673	320.272
787.724	322.695
787.775	303.95
787.826	321.992
787.877	306.887
787.928	307.983
787.979	298.935
788.03	312.833
788.081	317.069
788.132	319.175
788.183	305.002
788.234	311.536
788.285	309.459
788.336	329.175
788.387	308.116
788.438	310.705
788.49	325.97
788.541	310.016
788.591	308.938
788.643	303.031
788.694	295.925
788.745	300.04
788.796	308.434
788.847	304.937
788.898	302.317
788.949	306.227
789	306.025
789.051	301.553
789.102	305.293
789.153	315.301
789.204	311.687
789.255	317.82
789.306	310.524
789.357	308.186
789.408	307.951
789.459	297.516
789.51	302.784
789.561	311.672
789.612	307.01
789.663	299.59
789.714	316.996
789.765	303.752
789.816	285.003
789.867	298.721
789.918	303.163
789.969	292.811
790.02	281.38
790.071	296.416
790.122	302.267
790.173	299.22
790.224	285.968
790.275	293.211
790.326	289.634
790.377	299.378
790.428	291.973
790.479	305.014
790.53	298.449
790.581	283.307
790.632	287.252
790.682	292.658
790.734	287.192
790.784	289.122
790.836	289.15
790.886	286.175
790.937	293.495
790.988	280.688
791.039	270.93
791.09	283.032
791.141	307.899
791.192	301.142
791.243	285.299
791.294	284.858
791.345	300.47
791.396	282.775
791.447	278.179
791.498	276.782
791.549	300.971
791.6	281.138
791.651	278.804
791.702	299.019
791.753	287.528
791.804	289.137
791.855	265.93
791.906	273.016
791.957	278.223
792.008	284.217
792.059	274.695
792.11	276.132
792.161	284.457
792.212	288.63
792.263	273.819
792.314	281.17
792.365	279.713
792.416	268.511
792.467	286.881
792.518	272.817
792.569	278.057
792.62	286.538
792.671	267.784
792.722	277.445
792.773	279.427
792.823	276.669
792.874	271.057
792.925	275.178
792.976	279.013
793.027	271.187
793.078	274.882
793.129	270.852
793.18	282.477
793.231	264.312
793.282	259.795
793.333	268.419
793.384	283.507
793.435	267.766
793.486	270.559
793.537	279.361
793.588	275.526
793.639	258.19
793.69	276.601
793.741	280.394
793.792	276.3
793.843	272.876
793.894	256.729
793.945	277.547
793.995	268.464
794.046	271.86
794.097	266.792
794.148	265.627
794.199	266.944
794.25	269.91
794.301	269.552
794.352	267.211
794.403	263.252
794.454	266.52
794.505	246.982
794.556	258.731
794.607	266.915
794.658	257.751
794.709	256.487
794.76	255.719
794.811	270.521
794.862	253.403
794.912	251.295
794.963	258.268
795.014	265.894
795.065	251.707
795.116	263.919
795.167	251.152
795.218	261.931
795.269	261.077
795.32	254.593
795.371	261.701
795.422	244.336
795.473	257.228
795.524	264.152
795.575	262.491
795.625	256.556
795.676	247.289
795.727	248.843
795.778	257.832
795.829	264.892
795.88	263.842
795.931	254.55
795.982	249.271
796.033	249.001
796.084	247.746
796.135	231.733
796.186	250.834
796.237	261.633
796.287	251.106
796.338	249.936
796.389	252.829
796.44	245.788
796.491	253.051
796.542	245.146
796.593	254
796.644	242.38
796.695	240.092
796.746	244.429
796.797	251.099
796.848	246.674
796.898	246.624
796.949	246.773
797	244.984
797.051	242.976
797.102	239.867
797.153	249
797.204	247.902
797.255	243.795
797.306	244.524
797.357	239.369
797.408	249.953
797.458	243.137
797.509	241.932
797.56	240.455
797.611	229.762
797.662	235.342
797.713	233.495
797.764	233.082
797.815	240.534
797.866	250.748
797.917	233.795
797.968	237.935
798.018	239.905
798.069	238.412
798.12	232.269
798.171	235.691
798.222	234.703
798.273	243.684
798.324	240.425
798.375	231.274
798.426	242.738
798.477	243.024
798.527	232.419
798.578	238.452
798.629	236.552
798.68	238.696
798.731	230.448
798.782	230.583
798.833	235.389
798.884	237.888
798.935	233.54
798.985	241.041
799.036	243.767
799.087	234.942
799.138	243.695
799.189	236.662
799.24	235.692
799.291	234.393
799.342	231.773
799.393	229.133
799.443	233.943
799.494	230.847
799.545	226
799.596	229.428
799.647	237.511
799.698	235.489
799.749	228.231
799.8	232.611
799.85	222.431
799.901	226.599
799.952	224.859
800.003	226.553
800.054	228.362
800.105	218.048
800.156	219.186
800.207	218.08
800.257	222.63
800.308	223.787
800.359	220.583
800.41	227.08
800.461	228.986
800.512	216.265
800.563	214.334
800.613	229.964
800.664	226.537
800.715	226.056
800.766	223.651
800.817	217.899
800.868	218.342
800.919	222.605
800.97	225.811
801.02	221.926
801.071	212.669
801.122	225.163
801.173	213.208
801.224	226.201
801.275	229.343
801.326	212.459
801.376	216.507
801.427	216.977
801.478	223.336
801.529	212.55
801.58	206.022
801.631	216.746
801.682	221.155
801.732	220.762
801.783	207.777
801.834	220.475
801.885	211.638
801.936	218.775
801.987	216.513
802.038	218.654
802.088	221.157
802.139	215.168
802.19	209.979
802.241	219.477
802.292	211.771
802.343	205.999
802.393	213.196
802.444	215.643
802.495	210.233
802.546	228.161
802.597	209.958
802.648	208.179
802.698	212.712
802.749	201.352
802.8	220.795
802.851	213.774
802.902	217.256
802.953	204.237
803.004	204.852
803.054	204.555
803.105	215.232
803.156	220.144
803.207	204.544
803.258	204.14
803.309	203.64
803.359	206.169
803.41	215.271
803.461	215.829
803.512	210.197
803.563	214.074
803.614	205.3
803.664	202.28
803.715	213.671
803.766	204.862
803.817	202.667
803.868	212.812
803.919	195.751
803.969	211.045
804.02	198.611
804.071	213.648
804.122	197.87
804.173	195.999
804.223	204.134
804.274	205.964
804.325	211.268
804.376	195.472
804.427	204.024
804.478	204.103
804.528	193.767
804.579	209.481
804.63	189.418
804.681	207.138
804.732	201.606
804.782	196.11
804.833	212.928
804.884	182.843
804.935	200.951
804.986	206.248
805.036	211.905
805.087	210.531
805.138	205.424
805.189	196.761
805.24	195.245
805.291	195.559
805.341	185.022
805.392	196.751
805.443	198.337
805.494	203.888
805.545	199.581
805.595	192.793
805.646	199.831
805.697	196.218
805.748	195.853
805.799	188.608
805.849	182.827
805.9	191.753
805.951	189.707
806.002	200.666
806.053	197.988
806.103	199.842
806.154	189.895
806.205	184.944
806.256	191.898
806.307	196.273
806.357	184.364
806.408	187.34
806.459	183.818
806.51	192.378
806.561	192.686
806.611	187.83
806.662	181.791
806.713	195.371
806.764	191.38
806.815	185.738
806.865	187.518
806.916	194.223
806.967	188.555
807.018	188.963
807.068	193.113
807.119	188.002
807.17	193.313
807.221	177.702
807.272	192.859
807.322	191.742
807.373	172.621
807.424	181.124
807.475	189.231
807.526	187.47
807.576	188.136
807.627	192.429
807.678	186.296
807.729	188.385
807.779	184.371
807.83	184.897
807.881	189.291
807.932	182.838
807.982	184.762
808.033	187.975
808.084	182.198
808.135	183.791
808.186	172.138
808.236	183.124
808.287	186.722
808.338	186.751
808.389	189.865
808.439	188.457
808.49	177.499
808.541	178.605
808.592	190.176
808.643	175.707
808.693	177.643
808.744	183.429
808.795	180.807
808.846	181.384
808.896	195.717
808.947	196.579
808.998	180.278
809.049	180.573
809.099	185.38
809.15	190.341
809.201	185.912
809.252	181.015
809.302	183.729
809.353	189.682
809.404	180.576
809.455	184.252
809.505	188.895
809.556	184.536
809.607	176.764
809.658	168.737
809.708	178.059
809.759	181.25
809.81	181.212
809.861	185.881
809.911	181.487
809.962	180.71
810.013	176.813
810.064	184.329
810.114	175.837
810.133	168
810.183	180
810.234	183.986
810.285	185.939
810.336	177.985
810.387	183.938
810.438	162.147
810.489	176.01
810.54	161.904
810.591	174.001
810.642	174.006
810.693	175.784
810.743	179.63
810.794	164.159
810.845	177.571
810.896	165.775
810.947	171.73
810.998	173.697
811.049	171.838
811.1	171.711
811.151	161.893
811.202	175.649
811.253	171.685
811.303	156.252
811.354	160.535
811.405	171.985
811.456	171.628
811.507	177.345
811.558	169.644
811.609	177.369
811.66	164.302
811.711	175.654
811.762	158.548
811.813	169.667
811.863	158.47
811.914	172.061
811.965	171.617
812.016	156.895
812.067	159.779
812.118	161.621
812.169	162.67
812.22	171.051
812.271	176.046
812.321	174.104
812.372	169.838
812.423	166.171
812.474	158.523
812.525	159.767
812.576	172.539
812.627	168.827
812.678	166.241
812.729	161.207
812.779	169.581
812.83	180.92
812.881	165.563
812.932	171.581
812.983	153.902
813.034	152.984
813.085	170.279
813.136	161.298
813.187	165.513
813.237	158.409
813.288	153.978
813.339	147.964
813.39	158.419
813.441	158.51
813.492	161.891
813.543	164.82
813.594	154.73
813.644	168.785
813.695	166.448
813.746	161.717
813.797	163.674
813.848	160.975
813.899	159.12
813.95	155.471
814.001	163.217
814.051	149.218
814.102	158.459
814.153	166.003
814.204	155.742
814.255	163.511
814.306	160.641
814.357	146.882
814.408	155.247
814.458	153.05
814.509	161.272
814.56	158.263
814.611	153.936
814.662	157.056
814.713	164.534
814.764	159.498
814.814	156.465
814.865	155.764
814.916	155.716
814.967	146.137
815.018	147.276
815.069	157.384
815.12	160.731
815.17	162.433
815.221	151.622
815.272	138.72
815.323	151.411
815.374	161.817
815.425	148.206
815.476	159.394
815.526	149.614
815.577	152.726
815.628	155.187
815.679	146.421
815.73	163.2
815.781	148.366
815.832	157.157
815.882	156.485
815.933	151.147
815.984	147.763
816.035	142.928
816.086	149.061
816.137	159.099
816.188	159.939
816.238	144.907
816.289	147.614
816.34	146.375
816.391	157.401
816.442	146.931
816.493	150.229
816.543	141.301
816.594	152.852
816.645	139.041
816.696	136.994
816.747	145.787
816.798	138.027
816.848	147.402
816.899	137.397
816.95	146.475
817.001	153.929
817.052	157.348
817.103	150.196
817.153	146.292
817.204	152.65
817.255	150.115
817.306	145.092
817.357	157.084
817.408	150.208
817.458	138.018
817.509	137.472
817.56	149.19
817.611	148.008
817.662	138.169
817.713	135.424
817.763	146.203
817.814	148.751
817.865	147.556
817.916	136.882
817.967	148.142
818.018	143.836
818.068	142.047
818.119	140.66
818.17	142.778
818.221	143.549
818.272	143.033
818.323	141.456
818.373	149.703
818.424	140.5
818.475	155.294
818.526	138.435
818.577	139.561
818.627	134.927
818.678	133.914
818.729	143.546
818.78	139.576
818.831	147.484
818.881	141.471
818.932	147.027
818.983	142.786
819.034	139.748
819.085	129.21
819.135	137.183
819.186	130.339
819.237	145.414
819.288	141.423
819.339	145.807
819.39	139.284
819.44	144.521
819.491	146.571
819.542	132.999
819.593	146.038
819.644	137.101
819.694	134.381
819.745	136.597
819.796	137.068
819.847	132.811
819.898	124.805
819.948	136.918
819.999	145.247
820.05	146.137
820.101	144.609
820.152	141.453
820.202	144.462
820.253	138.487
820.304	136.545
820.355	138.973
820.406	134.24
820.456	137.592
820.507	137.141
820.558	140.035
820.609	138.954
820.66	135.978
820.71	134.499
820.761	141.545
820.812	137.17
820.863	129.007
820.914	135.734
820.964	133.898
821.015	137.648
821.066	134.553
821.117	136.04
821.167	132.511
821.218	132.405
821.269	127.127
821.32	131.276
821.371	133.53
821.421	138.127
821.472	127.796
821.523	130.763
821.574	131.005
821.624	124.466
821.675	136.364
821.726	133.568
821.777	132.438
821.828	133.085
821.878	131.211
821.929	132.923
821.98	133.193
822.031	135.61
822.081	131.485
822.132	121.095
822.183	137.673
822.234	141.387
822.285	122.46
822.335	128.141
822.386	124.281
822.437	136.653
822.488	131.509
822.538	131.543
822.589	127.106
822.64	120.543
822.691	122.068
822.741	125.233
822.792	129.875
822.843	124.794
822.894	129.67
822.945	132.779
822.995	126.797
823.046	129.059
823.097	132.98
823.148	124.317
823.198	134.079
823.249	131.8
823.3	123.841
823.351	117.14
823.401	124.031
823.452	128.059
823.503	129.007
823.554	125.051
823.604	133.863
823.655	123.967
823.706	126.07
823.757	123.135
823.807	130.867
823.858	126.407
823.909	125.176
823.96	125.066
824.01	124.721
824.061	126.434
824.112	121.985
824.163	118.277
824.213	126.215
824.264	123.396
824.315	130.946
824.366	123.887
824.416	128.148
824.467	119.197
824.518	121.488
824.569	120.359
824.619	114.937
824.67	126.323
824.721	117.657
824.772	121.321
824.822	127.337
824.873	120.689
824.924	120.456
824.974	122.943
825.025	127.22
825.076	126.293
825.127	122.545
825.177	125.382
825.228	118.79
825.279	118.781
825.33	117.702
825.38	122.159
825.431	114.731
825.482	117.638
825.533	117.663
825.583	113.807
825.634	118.436
825.685	126.063
825.735	111.597
825.786	122.817
825.837	117.303
825.888	118.824
825.938	120.889
825.989	122.837
826.04	126.781
826.091	119.458
826.141	122.981
826.192	119.489
826.243	124.407
826.293	123.439
826.344	121.066
826.395	118.233
826.446	122.152
826.496	119.047
826.547	121.352
826.598	127.445
826.648	119.354
826.699	121.815
826.75	111.576
826.801	108.217
826.851	118.167
826.902	119.857
826.953	113.581
827.003	116.406
827.054	115.148
827.105	120.313
827.156	118.101
827.206	117.171
827.257	123.284
827.308	116.809
827.358	114.58
827.409	116.025
827.46	115.657
827.511	114.054
827.561	122.154
827.612	118.918
827.663	112.678
827.713	115.197
827.764	113.515
827.815	106.644
827.865	115.943
827.916	120.288
827.967	111.765
828.018	117.82
828.068	120.022
828.119	117.113
828.17	119.641
828.22	120.424
828.271	111.961
828.322	112.179
828.372	119.809
828.423	115.603
828.474	111.584
828.525	114.458
828.575	114.263
828.626	114.565
828.677	115.836
828.727	118.83
828.778	115.469
828.829	110.129
828.879	116.318
828.93	119.634
828.981	111.88
829.031	112.229
829.082	108.96
829.133	105.943
829.183	116.552
829.234	113.659
829.285	111.426
829.336	104.903
829.386	108.755
829.437	114.68
829.488	111.397
829.538	115.465
829.589	117.076
829.64	108.306
829.69	116.368
829.741	116.415
829.792	116.75
829.842	119.061
829.893	112.77
829.944	110.537
829.994	109.284
830.045	111.886
830.096	110.451
830.146	105.213
830.197	103.22
830.248	105.659
830.298	106.452
830.349	111.437
830.4	112.625
830.45	107.747
830.501	114.066
830.552	111.534
830.602	108.265
830.653	107.907
830.704	105.718
830.754	110.834
830.805	110.175
830.856	114.11
830.906	112.058
830.957	111.612
831.008	104.053
831.058	104.015
831.109	107.019
831.16	108.275
831.21	115.446
831.261	110.716
831.312	108.292
831.362	109.521
831.413	109.211
831.464	111.323
831.514	109.567
831.565	107.671
831.616	110.35
831.666	108.614
831.717	107.945
831.767	111.641
831.818	109.539
831.869	110.619
831.919	109.869
831.97	112.87
832.021	109.111
832.071	108.963
832.122	111.221
832.173	109.149
832.223	103.994
832.274	102.658
832.325	108.629
832.375	106.057
832.426	104.171
832.477	104.586
832.527	103.9
832.578	102.146
832.628	105.789
832.679	102.98
832.73	100.506
832.78	100.045
832.831	100.483
832.882	102.482
832.932	105.212
832.983	107.511
833.034	105.355
833.084	99.8447
833.135	101.194
833.185	109.522
833.236	107.947
833.287	102.359
833.337	108.694
833.388	106.859
833.439	103.733
833.489	107.593
833.54	109.723
833.59	106.494
833.641	106.924
833.692	101.052
833.742	99.8747
833.793	101.529
833.844	100.826
833.894	103.875
833.945	103.219
833.995	98.0759
834.046	105.302
834.097	100.435
834.147	101.249
834.198	104.954
834.249	104.565
834.299	105.933
834.35	102.247
834.4	100.999
834.451	100.954
834.502	101.678
834.552	104.373
834.603	100.655
834.653	100.537
834.704	90.9261
834.755	100.679
834.805	106.897
834.856	102.056
834.906	100.904
834.957	108.169
835.008	107.967
835.058	104.525
835.109	106.359
835.16	106.874
835.21	104.471
835.261	102.221
835.311	105.123
835.362	100.21
835.413	103.943
835.463	98.3741
835.514	98.6278
835.564	96.473
835.615	105.22
835.666	107.194
835.716	98.0998
835.767	98.5333
835.817	97.9828
835.868	93.5915
835.919	103.727
835.969	98.617
836.02	105.879
836.07	99.2354
836.121	101.568
836.161	92
836.212	98
836.263	94
836.314	88.0273
836.365	103.971
836.415	98.0112
836.466	96.0352
836.517	99.8777
836.568	92.0266
836.618	99.8702
836.669	88.2471
836.72	101.955
836.771	101.852
836.821	93.8569
836.872	90.096
836.923	107.766
836.974	91.9592
837.024	111.51
837.075	95.7621
837.126	93.726
837.177	83.8477
837.227	103.833
837.278	95.7835
837.329	90.283
837.38	90.3058
837.43	99.3965
837.481	91.8347
837.532	106.876
837.583	99.5608
837.633	96.0537
837.684	103.332
837.735	101.651
837.786	88.5969
837.836	97.5454
837.887	90.4344
837.938	103.834
837.989	101.803
838.039	92.5178
838.09	94.3253
838.141	106.525
838.192	95.7452
838.242	88.2864
838.293	99.659
838.344	97.6543
838.395	92.706
838.445	110.6
838.496	93.8258
838.547	99.4121
838.598	90.7437
838.648	95.3428
838.699	101.338
838.75	105.552
838.801	91.7725
838.851	99.0727
838.902	106.283
838.953	92.2147
839.003	101.856
839.054	91.6421
839.105	90.2951
839.156	94.6714
839.206	103.092
839.257	97.761
839.308	93.8535
839.359	98.6398
839.409	96.7769
839.46	91.5029
839.511	102.63
839.562	92.3486
839.612	93.8341
839.663	93.2331
839.714	100.194
839.764	95.5258
839.815	93.8274
839.866	86.8395
839.917	98.5134
839.967	83.3949
840.018	92.4705
840.069	93.5741
840.119	100.086
840.17	83.5799
840.221	94.5544
840.272	90.8102
840.322	92.3755
840.373	105.708
840.424	84.9106
840.474	95.9823
840.525	92.7331
840.576	86.3346
840.627	98.7523
840.677	87.5938
840.728	89.1791
840.779	92.6897
840.829	92.9091
840.88	89.4143
840.931	91.5097
840.982	89.7619
841.032	89.3055
841.083	89.9633
841.134	96.4289
841.184	76.7386
841.235	95.9629
841.286	93.4007
841.337	96.5557
841.387	87.102
841.438	93.1977
841.489	90.6411
841.539	98.3237
841.59	92.5456
841.641	88.734
841.691	87.1721
841.742	98.3846
841.793	87.3613
841.844	93.3994
841.894	90.2581
841.945	89.5602
841.996	87.5524
842.046	96
842.097	89.7987
842.148	99.431
842.198	88.1859
842.249	91.4115
842.3	84.4862
842.351	89.4865
842.401	81.103
842.452	85.2127
842.503	94.6779
842.553	87.79
842.604	91.1332
842.655	87.5673
842.705	81.0844
842.756	90.3517
842.807	87.4001
842.857	88.5385
842.908	89.4279
842.959	90.1068
843.009	92.6712
843.06	88.1648
843.111	86.9033
843.161	78.4579
843.212	79.5323
843.263	91.2896
843.314	92.4944
843.364	84.1393
843.415	95.0015
843.466	83.3444
843.516	86.3324
843.567	85.5424
843.618	87.781
843.668	79.2473
843.719	78.5662
843.77	93.0939
843.82	93.5789
843.871	85.4676
843.922	78.5628
843.972	93.9065
844.023	85.428
844.074	82.1164
844.124	85.9477
844.175	84.8397
844.226	84.3912
844.276	79.6362
844.327	81.7759
844.378	80.1926
844.428	84.2256
844.479	83.3968
844.53	84.169
844.58	94
844.631	92.8958
844.682	82.8718
844.732	88.7158
844.783	78.2124
844.834	88
844.884	81.8009
844.935	82.6575
844.986	83.2965
845.036	84.4644
845.087	89.4821
845.138	89.0873
845.188	75.8062
845.239	91.137
845.29	84.9855
845.34	78.3697
845.391	85.9194
845.442	88.1327
845.492	79.8752
845.543	86.8709
845.594	81.5908
845.644	88.5967
845.695	83.6731
845.745	95.7287
845.796	82.399
845.847	89.8419
845.897	75.2544
845.948	84.9802
845.999	85.2466
846.049	79.2223
846.1	83.9936
846.151	78.1904
846.201	83.8813
846.252	83.7042
846.303	76.8178
846.353	85.1302
846.404	80.5596
846.455	81.8228
846.505	85.3699
846.556	90.636
846.606	85.73
846.657	82.9717
846.708	83.1129
846.758	86.9233
846.809	81.2912
846.86	83.3653
846.91	83.6124
846.961	77.1722
847.012	78.1737
847.062	82.7967
847.113	80.8911
847.163	78.3524
847.214	82.1548
847.265	76.4937
847.315	81.4858
847.366	84.6701
847.417	78.442
847.467	83.1763
847.518	85.8313
847.568	80.6731
847.619	76.7186
847.67	78.5085
847.72	79.155
847.771	86.0865
847.822	81.1545
847.872	85.4904
847.923	84.8386
847.973	86.1296
848.024	82.3601
848.075	84.6353
848.125	77.8356
848.176	78.8076
848.227	80.3712
848.277	80.7128
848.328	79.0665
848.378	79.2699
848.429	81.7986
848.48	76.0881
848.53	81.8081
848.581	83.3288
848.631	79.6365
848.682	72.9502
848.733	76.5546
848.783	81.6726
848.834	91.9205
848.885	76.0081
848.935	76.3013
848.986	75.68
849.036	75.1965
849.087	78.0969
849.138	83.2764
849.188	80.941
849.239	78.8959
849.289	73.9768
849.34	79.8509
849.391	78.0014
849.441	78.0969
849.492	75.9318
849.542	76.6714
849.593	72.0464
849.644	81.9353
849.694	81.9009
849.745	79.9104
849.795	70.0193
849.846	75.2284
849.897	83.1187
849.947	79.0078
849.998	73.9016
850.048	78.9206
850.099	74
850.15	75.8513
850.2	75.2271
850.251	74.0156
850.301	77.8173
850.352	79.9712
850.403	76.0394
850.453	76
850.504	77.2523
850.554	74.618
850.605	75.0096
850.656	72.2632
850.706	80.2615
850.757	81.6483
850.807	75.8469
850.858	80.9226
850.908	84.1545
850.959	73.2844
851.01	77.5919
851.06	75.1448
851.111	69.5306
851.161	68.4659
851.212	76.6806
851.263	78.7118
851.313	82.0883
851.364	73.8751
851.414	76.5404
851.465	80.3026
851.515	69.6493
851.566	72.8227
851.617	77.038
851.667	77.0756
851.718	72.0915
851.768	71.8539
851.819	73.4844
851.869	75.8663
851.92	85.024
851.971	75.0038
852.021	70.7318
852.072	81.5366
852.122	76.923
852.173	81.9775
852.223	77.4249
852.274	73.4087
852.325	87.8447
852.375	71.487
852.426	74.5161
852.476	73.0176
852.527	80.7744
852.577	68.0063
852.628	78.1762
852.678	83.1224
852.729	77.2131
852.78	67.1115
852.83	78.5127
852.881	76.3383
852.931	68.3457
852.982	67.4074
853.032	75.9798
853.083	67.7211
853.133	77.8815
853.184	72.7704
853.235	80.3655
853.285	74.7009
853.336	74.5436
853.386	72.3469
853.437	77.0457
853.487	75.709
853.538	76.6734
853.588	71.2104
853.639	73.9195
853.69	72.6517
853.74	72
853.791	78.4692
853.841	76.0917
853.892	68.6254
853.942	72.6552
853.993	70.0553
854.043	72.4971
854.094	72.4814
854.144	72.8749
854.195	74.6595
854.246	77.651
854.296	80.3718
854.347	76.2684
854.397	68.2094
854.448	71.0921
854.498	76.8219
854.549	73.0517
854.599	69.9639
854.65	72.9132
854.7	80.3156
854.751	77.8502
854.801	70.7342
854.852	73.4263
854.902	73.4595
854.953	70.2278
855.004	67.3238
855.054	70.4642
855.105	70.4457
855.155	71.553
855.206	71.0685
855.256	68.409
855.307	67.9689
855.357	69.4986
855.408	66.5614
855.458	70.4603
855.509	73.4785
855.559	68.1084
855.61	65.5391
855.66	68.2684
855.711	72.5653
855.761	74.0274
855.812	75.8341
855.862	72.2631
855.913	71.8943
855.964	70.2146
856.014	69.8856
856.065	74.8157
856.115	70.9984
856.166	71.2809
856.216	73.6823
856.267	72.9781
856.317	76.5956
856.368	67.1678
856.418	70.7653
856.469	69.3816
856.519	71.0859
856.57	68.2333
856.62	75.5088
856.671	68.8529
856.721	72.4382
856.772	71.6579
856.822	69.182
856.873	67.4891
856.923	70.9796
856.974	72.9743
857.024	73.7453
857.075	72.1454
857.125	68.8524
857.176	66.0164
857.226	73.4849
857.277	75.4051
857.327	73.9698
857.378	69.4687
857.428	71.7207
857.479	76.1333
857.529	72.5657
857.58	65.1573
857.63	69.233
857.681	70.8048
857.731	63.1593
857.782	64.9798
857.832	68.6771
857.883	69.1795
857.933	66.3673
857.984	64.7828
858.034	66.9505
858.085	69.9227
858.135	68.1795
858.186	64.3033
858.236	69.057
858.287	72.4461
858.337	69.2137
858.388	66.1485
858.438	68.7387
858.489	67.7492
858.539	64.4539
858.589	69.0361
858.64	69.2405
858.69	68
858.741	67.2192
858.791	66.7394
858.842	65.9859
858.892	66.7644
858.943	63.3091
858.993	61.6387
859.044	69.1528
859.094	74.0907
859.145	67.7284
859.195	65.1475
859.246	69.3142
859.296	61.5148
859.347	65.1979
859.397	69.1624
859.448	68.5616
859.498	67.7508
859.549	63.1248
859.599	65.9475
859.649	70.2813
859.7	68.4785
859.75	69.1587
859.801	65.5584
859.851	64.669
859.902	74.5423
859.952	70.0846
860.003	65.0412
860.053	65.1056
860.104	64.4416
860.154	59.5328
860.205	61.3367
860.255	63.1341
860.305	63.3811
860.356	71.3392
860.406	66.4618
860.457	68.8433
860.507	69.2956
860.558	64.7608
860.608	59.832
860.659	63.8885
860.709	63.4164
860.76	58.478
860.81	58.8964
860.861	65.9857
860.911	73.6918
860.961	76.0989
861.012	69.4106
861.062	73.158
861.113	71.3305
861.163	68.6943
861.214	66.2111
861.264	63.2529
861.315	66.6143
861.365	67.8865
861.415	69.3388
861.466	73.0992
861.516	69.4857
861.567	65.2211
861.617	59.3064
861.668	68.8989
861.718	66.4733
861.769	68.3365
861.819	67.8401
861.869	62.6741
861.92	72.8249
861.97	73.8473
862.021	65.9941
862.071	67.208
862.112	71.9941
862.162	66.0111
862.213	64.0021
862.263	73.9045
862.314	73.9101
862.365	62.0295
862.415	64.0627
862.466	81.7817
862.516	65.8856
862.567	56.0905
862.618	62.0409
862.668	67.9103
862.719	62.0194
862.77	58.0738
862.82	56.0794
862.871	65.9372
862.921	67.9241
862.972	62.0682
863.023	65.97
863.073	63.9435
863.124	71.4743
863.174	60.0608
863.225	59.9245
863.276	69.3714
863.326	65.5638
863.377	65.7831
863.427	61.917
863.478	65.6433
863.529	65.8394
863.579	63.8731
863.63	56.3031
863.68	71.3189
863.731	57.989
863.782	56.1411
863.832	63.5865
863.883	76.4036
863.933	71.4005
863.984	63.8889
864.034	61.4784
864.085	67.3977
864.136	60.5617
864.186	69.4153
864.237	63.5075
864.287	67.3216
864.338	60
864.389	60.2683
864.439	62.2716
864.49	69.352
864.54	67.4327
864.591	61.7151
864.642	61.1201
864.692	66.6822
864.743	63.5906
864.793	54.6257
864.844	65.2611
864.894	70.6911
864.945	61.5833
864.996	60.9981
865.046	59.8331
865.097	64.232
865.147	62.1465
865.198	57.6916
865.248	52.6407
865.299	62.3834
865.35	64.1129
865.4	65.8863
865.451	69.337
865.501	55.5789
865.552	64.1504
865.603	60.1888
865.653	66.7441
865.704	68.6062
865.754	61.8371
865.805	58.4524
865.855	68.4265
865.906	65.5558
865.956	62.7014
866.007	54.8366
866.058	51.665
866.108	74.5096
866.159	68.9327
866.209	53.0825
866.26	59.4159
866.31	66.9525
866.361	61.3051
866.412	60.3085
866.462	61.8417
866.513	61.7771
866.563	61.9298
866.614	62.1676
866.664	61.0723
866.715	61.5484
866.766	65.5417
866.816	61.8079
866.867	60.9489
866.917	69.0157
866.968	65.4694
867.018	62.4617
867.069	64.1077
867.119	64.2664
867.17	65.8581
867.22	60
867.271	67.3359
867.322	60.5148
867.372	65.3249
867.423	51.6556
867.473	56.2526
867.524	61.7509
867.574	58.3309
867.625	53.6554
867.675	69.4448
867.726	71.1548
867.776	61.8326
867.827	53.9031
867.878	64.8419
867.928	61.0994
867.979	57.6032
868.029	63.5839
868.08	60.6613
868.13	62.937
868.181	54.9396
868.231	60.661
868.282	61.7847
868.332	64.5179
868.383	52.2269
868.433	55.3058
868.484	69.2774
868.535	59.8869
868.585	57.6218
868.636	62.4854
868.686	62.6
868.737	62.5971
868.787	51.6586
868.838	60.5424
868.888	56.2477
868.939	67.7287
868.989	63.8012
869.04	58.7561
869.09	63.2826
869.141	59.6958
869.191	57.8807
869.242	62.5032
869.292	61.5194
869.343	64.6433
869.394	59.3348
869.444	57.6949
869.495	59.4872
869.545	65.0352
869.596	62.0209
869.646	60.1119
869.697	60.2601
869.747	59.4677
869.798	52.0027
869.848	54.7734
869.899	56.2177
869.949	57.6113
870	60.371
870.05	49.019
870.101	61.9467
870.151	58.0364
870.202	53.5688
870.252	64.4149
870.303	56.9835
870.353	59.3574
870.404	57.3435
870.454	58.5795
870.505	59.8232
870.555	54.653
870.606	54.6569
870.656	59.7644
870.707	58.5884
870.757	59.5225
870.808	50.9083
870.858	58.2323
870.909	60.7574
870.959	64.1604
871.01	53.5594
871.06	58.4588
871.111	58.3556
871.161	63.667
871.212	52.7037
871.262	55.2293
871.313	60.8343
871.363	57.9777
871.414	57.3242
871.464	57.2768
871.515	62.2042
871.565	54.1646
871.616	54.9459
871.666	62.306
871.717	56.0456
871.767	58.1295
871.818	59.9603
871.868	61.445
871.919	59.4069
871.969	54.6942
872.02	55.7018
872.07	52.0892
872.121	60.3404
872.171	51.2728
872.222	51.5634
872.272	50.3775
872.323	54.8438
872.373	60.7609
872.424	53.2294
872.474	63.9469
872.525	54
872.575	52.7651
872.626	45.5402
872.676	59.1823
872.727	56.002
872.777	64.8047
872.828	50.2846
872.878	60.2551
872.929	64.1027
872.979	54.2768
873.03	59.0089
873.08	62.5468
873.13	55.5153
873.181	61.037
873.231	56.1567
873.282	62.6897
873.332	53.7349
873.383	52.9611
873.433	55.2509
873.484	60.3965
873.534	54.6115
873.585	55.8491
873.635	56.272
873.686	60.6662
873.736	56.4412
873.787	55.3555
873.837	49.2248
873.888	56.8089
873.938	52.7427
873.988	48.667
874.039	52.3139
874.089	50.8434
874.14	60.7247
874.19	51.9129
874.241	54.31
874.291	56.8677
874.342	58.9543
874.392	57.1537
874.443	52.6603
874.493	58.3929
874.544	59.4676
874.594	53.6222
874.644	57.3399
874.695	56.6542
874.745	53.7782
874.796	58
874.846	56.8178
874.897	58.302
874.947	60.7206
874.998	57.1427
875.048	58.1508
875.099	57.6982
875.149	56.3161
875.199	52.1857
875.25	53.0156
875.3	56.2245
875.351	59.3842
875.401	46.7684
875.452	50.7872
875.502	50.9649
875.553	56.3902
875.603	50.174
875.653	55.569
875.704	55.493
875.754	52.6221
875.805	55.2038
875.855	56.2857
875.906	55.2084
875.956	55.0141
876.006	48.7834
876.057	46.3006
876.107	51.8205
876.158	58.0407
876.208	48.1793
876.259	51.9399
876.309	53.0386
876.36	57.1101
876.41	53.1061
876.46	52.3367
876.511	58.0827
876.561	58.3648
876.612	54
876.662	54.9134
876.713	50.2573
876.763	49.4958
876.813	52.7649
876.864	54.2547
876.914	57.1911
876.965	54.0417
877.015	49.9654
877.065	55.6737
877.116	56.8297
877.166	50.4977
877.217	51.1676
877.267	56.9613
877.318	55.5286
877.368	52.8207
877.418	49.5497
877.469	55.2515
877.519	53.6578
877.57	54.3401
877.62	49.4981
877.671	52.0451
877.721	54.3801
877.771	50.3762
877.822	47.2654
877.872	57.5279
877.923	53.727
877.973	54.4219
878.023	54.6199
878.074	56.0533
878.124	51.5731
878.175	50.2896
878.225	48.273
878.276	49.3097
878.326	51.3224
878.376	53.764
878.427	48.7785
878.477	50.3619
878.528	53.462
878.578	54.3613
878.628	52.6946
878.679	55.1618
878.729	51.657
878.78	48.9131
878.83	47.8621
878.88	53.2292
878.931	51.5101
878.981	48
879.031	50.2275
879.082	52.8437
879.132	58.7368
879.183	54.4781
879.233	53.4357
879.284	55.6025
879.334	59.159
879.384	53.0759
879.435	52.7336
879.485	53.3138
879.535	49.9482
879.586	47.0307
879.636	48.5482
879.687	53.6634
879.737	55.254
879.787	52.0994
879.838	52.1111
879.888	52.7485
879.939	55.0373
879.989	55.0814
880.039	49.8421
880.09	50.8737
880.14	51.8211
880.19	48.027
880.241	53.2138
880.291	56.1184
880.342	56.2298
880.392	53.653
880.442	54.6034
880.493	53.853
880.543	54.5751
880.594	49.2923
880.644	45.9708
880.694	51.9758
880.745	55.6414
880.795	50.3935
880.845	50.227
880.896	52.6717
880.946	54.2472
880.996	51.4452
881.047	47.7496
881.097	51.1391
881.148	56.1229
881.198	52.6427
881.248	49.4606
881.299	44.8338
881.349	45.9106
881.399	48.3257
881.45	50.8127
881.5	50.9658
881.551	52.1053
881.601	51.2286
881.651	46.2213
881.702	48.1344
881.752	46.4784
881.802	48.2773
881.853	54.593
881.903	51.054
881.953	45.6706
882.004	49.4191
882.054	51.7078
882.104	52.283
882.155	48.5688
882.205	53.0814
882.256	56.7975
882.306	57.1421
882.356	47.4499
882.407	44.6279
882.457	52.6062
882.507	54.6761
882.558	52.2709
882.608	50.3769
882.658	45.7761
882.709	49.5194
882.759	52.452
882.809	46.0376
882.86	51.1299
882.91	54.9116
882.96	50.7017
883.011	46.5688
883.061	48.7089
883.111	52.6964
883.162	44.0208
883.212	39.441
883.262	44.9058
883.313	49.1301
883.363	48.8675
883.413	43.9069
883.464	42.5978
883.514	51.8583
883.565	49.8543
883.615	48.0151
883.665	51.6786
883.716	53.2779
883.766	50.9536
883.816	45.6377
883.867	48.4527
883.917	51.9808
883.967	46.406
884.017	49.582
884.068	48.7401
884.118	52.4494
884.168	46.4666
884.219	47.4303
884.269	51.1234
884.319	52.8988
884.37	47.2414
884.42	50.7135
884.47	52.931
884.521	51.0048
884.571	56.0778
884.621	51.8552
884.672	44.3816
884.722	49.6504
884.772	48.6158
884.823	50.7127
884.873	49.2717
884.923	52.7529
884.974	47.6377
885.024	48.7541
885.074	46.0345
885.125	44.6045
885.175	45.0886
885.225	45.7573
885.276	49.9226
885.326	53.7795
885.376	47.9847
885.426	48.7052
885.477	55.0546
885.527	46.2878
885.577	45.1002
885.628	49.0205
885.678	51.1485
885.728	43.588
885.779	51.9765
885.829	48.7478
885.879	48.7709
885.93	47.5511
885.98	46.9337
886.03	48.8555
886.08	51.0476
886.131	52
886.181	48.6085
886.231	37.9329
886.282	47.1875
886.332	50.5156
886.382	52.0265
886.432	45.8598
886.483	59.8938
886.533	58.4064
886.583	49.1336
886.634	47.6569
886.684	42.5667
886.734	45.8645
886.785	49.154
886.835	46.6034
886.885	55.6
886.935	49.1942
886.986	47.7208
887.036	44.4007
887.086	44.5657
887.137	46.1911
887.187	53.4402
887.237	44.2929
887.287	59.0119
887.338	47.717
887.388	47.6891
887.438	41.8763
887.489	49.7846
887.539	53.5276
887.589	42.3057
887.639	46.1678
887.69	51.7975
887.74	45.919
887.79	45.9717
887.841	44.0887
887.891	47.8152
887.941	55.6998
887.943	55.9502
887.993	42.0387
888.044	49.9383
888.094	48.0052
888.144	43.9881
888.195	51.8185
888.245	51.7962
888.296	51.8335
888.346	51.7916
888.397	46.0562
888.447	46.1345
888.498	42.5501
888.548	49.9224
888.599	40.3198
888.649	47.9613
888.699	44.501
888.75	51.5643
888.8	40.3083
888.851	51.1348
888.901	58.639
888.952	54.9867
889.002	40.6196
889.053	47.9385
889.103	43.9492
889.153	52.5039
889.204	45.6453
889.254	47.434
889.305	48.1655
889.355	46.1719
889.406	46
889.456	51.2918
889.507	42.5759
889.557	52.6485
889.607	40.9461
889.658	41.823
889.708	47.749
889.759	47.7481
889.809	38.9102
889.86	52.1862
889.91	51.9128
889.96	49.5817
890.011	48.4323
890.061	44.361
890.112	42.5522
890.162	48.5839
890.213	45.6141
890.263	45.797
890.313	45.9213
890.364	47.6329
890.414	46.3237
890.465	46.2905
890.515	49.188
890.566	41.2657
890.616	43.257
890.666	51.8556
890.717	46.6307
890.767	49.5948
890.818	42.1014
890.868	48.4168
890.919	46.6975
890.969	48.6727
891.019	44.6479
891.07	46.4369
891.12	43.2985
891.171	45.3547
891.221	36.6149
891.271	47.0189
891.322	43.5024
891.372	46.6447
891.423	40.301
891.473	51.3259
891.523	48.8878
891.574	44.1418
891.624	44.4928
891.675	48.1127
891.725	49.9974
891.776	40.995
891.826	43.4908
891.876	47.1793
891.927	46.0042
891.977	44.1418
892.028	48.8928
892.078	43.6596
892.128	51.6375
892.179	46.5809
892.229	51.4277
892.28	44.3693
892.33	43.5779
892.38	44.5494
892.431	37.5855
892.481	45.6396
892.532	46.401
892.582	40.8676
892.632	40.0776
892.683	48.0373
892.733	41.0949
892.784	43.6118
892.834	43.0143
892.884	43.3802
892.935	42.8633
892.985	37.2493
893.036	43.7524
893.086	40.0062
893.136	46.3232
893.187	38.0165
893.237	42.1089
893.288	45.7934
893.338	43.6937
893.388	43.8635
893.439	48.9501
893.489	45.1414
893.539	42.4234
893.59	45.9249
893.64	46.2336
893.691	44.9767
893.741	44.1888
893.791	41.9007
893.842	47.1613
893.892	41.9259
893.943	39.1014
893.993	46.9203
894.043	43.0326
894.094	42.971
894.144	43.029
894.194	45.9988
894.245	46.0024
894.295	42.0048
894.346	41.0254
894.396	41.9517
894.446	41.0435
894.497	42.9638
894.547	40.0652
894.597	41.9517
894.648	48.8936
894.698	43.0302
894.749	47
894.799	41.1087
894.849	45.1196
894.9	46.6957
894.95	35.3213
895	38.8514
895.051	43.052
895.101	45.8889
895.151	40.2367
895.202	45.5688
895.252	42.2609
895.303	48.7935
895.353	39.2854
895.403	46.7754
895.454	45.2355
895.504	45.8357
895.554	41.1693
895.605	42.913
895.655	45.2717
895.706	43.7174
895.756	41.2902
895.806	47.4988
895.857	41.4155
895.907	46.468
895.957	41.3297
896.008	46.7729
896.058	41.5804
896.108	46.5217
896.159	38.3664
896.209	44.4976
896.259	39.7754
896.31	37.8682
896.36	36.8647
896.41	43.5865
896.461	45.285
896.511	47.7077
896.561	40.2975
896.612	45.6957
896.662	42.3096
896.713	40.8418
896.763	40.3216
896.813	38.5072
896.864	41.5042
896.914	42
896.964	41.3035
897.015	41.8877
897.065	46.2793
897.115	42.5543
897.166	38.8126
897.216	35.7594
897.266	43.0338
897.317	43.6058
897.367	44.599
897.417	43.8126
897.468	44.4135
897.518	44.3696
897.568	40.2128
897.619	45.2164
897.669	46.3406
897.719	43.89
897.77	43.8694
897.82	42.6884
897.87	43.7666
897.921	42.7074
897.971	37.5217
898.021	35.4861
898.072	43.2636
898.122	39.9927
898.172	41.2234
898.223	42.3071
898.273	41.2237
898.323	45.9504
898.374	45.7352
898.424	41.0773
898.474	36.0883
898.524	35.7243
898.575	37.8875
898.625	45.7183
898.675	42
898.726	40.5756
898.776	36.8768
898.826	43.1149
898.877	42.7013
898.927	41
898.977	39.3047
899.028	45.3833
899.078	43.3108
899.128	35.5719
899.179	38.7279
899.229	39.3591
899.279	37.9722
899.33	38.3277
899.38	41.3434
899.43	47.0012
899.48	43.3253
899.531	41.659
899.581	44.0339
899.631	43.653
899.682	45.2987
899.732	39.4172
899.782	39.9262
899.833	42.3615
899.883	43.364
899.933	31.838
899.984	40.4068
