#Acq. time (s)=	3
#Accumulations=	2
#Range (nm)=	520...900
#Windows=	16
#Auto scanning=	On
#Autofocus=	Off
#AutoExposure=	Off
#Spike filter=	Multiple accum.
#Delay time (s)=	0
#Binning=	1
#Readout mode=	Signal
#DeNoise=	Off
#ICS correction=	Off
#Dark correction=	Off
#Inst. Process=	Off
#Detector temperature (°C)=	-59.98
#Instrument=	LabRAM HR Evol
#Detector=	Syncerity OE
#Objective=	x50_VIS
#Grating=	600 (500nm)
#ND Filter=	10%
#Laser=	514nm_Edge
#Hole=	199.981
#Range=	Auto
#StageXY=	Marzhauser
#StageZ=	Marzhauser
#X (µm)=	-26126.2
#Y (µm)=	-8975.3
#Z (µm)=	0.8
#Full time(mm:ss)=	2:32
#Project=	
#Sample=	
#Site=	
#Title=	PL_SCD1_121223
#Remark=	
#Date=	21.12.2023 09:42
#Acquired=	21.12.2023 09:42:55
520.042	36
520.094	43.6988
520.147	40.2724
520.199	40.7672
520.251	37.1465
520.304	41.8976
520.356	37
520.408	43
520.461	38.114
520.513	40.8254
520.565	37.1781
520.618	41.9372
520.67	35.064
520.723	41.7392
520.775	38.4051
520.827	39.7209
520.88	43
520.932	42
520.984	42.8487
521.037	41.1537
521.089	45.7628
521.141	43.2445
521.194	42
521.246	47
521.298	40.1723
521.351	42.6419
521.403	39.2724
521.455	34.3725
521.508	37
521.56	32.7101
521.612	41.7066
521.665	40.8988
521.717	45.2049
521.769	43.7905
521.822	45.2119
521.874	42.3248
521.926	41.5623
521.979	35.1118
522.031	35.2258
522.083	43.3085
522.136	41.7116
522.188	37.6403
522.24	36.1222
522.293	41.2468
522.345	40.7485
522.397	35.3842
522.45	38.4831
522.502	41.6054
522.554	38.8033
522.607	45.3248
522.659	37.4121
522.711	38.5588
522.764	44.1548
522.816	41.1432
522.868	46.8545
522.921	42.1467
522.973	40.298
523.025	36.8487
523.078	37.305
523.13	44.6903
523.182	43.8428
523.234	42.8405
523.287	40.482
523.339	44.5111
523.391	48.3306
523.444	41.6647
523.496	35.1816
523.548	41.8089
523.601	42.1723
523.653	39
523.705	41.3539
523.758	42.1781
523.81	43.6391
523.862	35.8172
523.915	38.1851
523.967	41.8126
524.019	42.8112
524.072	40
524.124	40.3842
524.176	46
524.229	49.4098
524.281	35.3981
524.333	44
524.385	42.7974
524.438	43.4098
524.49	38
524.542	45.3714
524.595	42.789
524.647	39.6356
524.699	40
524.752	42.2165
524.804	37.532
524.856	42.2378
524.909	38.5553
524.961	42.2247
525.013	40.773
525.066	46.9138
525.118	40.3085
525.17	45
525.222	40.9371
525.275	43.291
525.327	41
525.379	45
525.432	38.7031
525.484	44.5437
525.536	42.248
525.589	43.4988
525.641	44.2515
525.693	43.2538
525.745	45.2343
525.798	40.7718
525.85	45.4825
525.902	42.0431
525.955	41.4144
526.007	45.0629
526.059	43.7322
526.112	45.9197
526.164	40.3578
526.216	40.7264
526.268	44.2762
526.321	45.7218
526.373	34.8392
526.425	38.4366
526.478	38.5681
526.53	44.7063
526.582	42.4435
526.635	42.7098
526.687	44.5844
526.739	44.8252
526.791	41.2969
526.844	43
526.896	41.901
526.948	44.4848
527.001	45.915
527.053	46
527.105	42
527.157	47.3112
527.21	39.6263
527.262	43.0559
527.314	47
527.367	43.3193
527.419	41.2821
527.471	47.7346
527.523	40.6504
527.576	44.3457
527.628	40.6492
527.68	40.6729
527.733	45.669
527.785	44.993
527.837	44.3376
527.889	45
527.942	42.366
527.994	39.3108
528.046	33.6923
528.099	41.3015
528.151	41
528.203	44.2937
528.255	43
528.308	48.6434
528.36	40.7949
528.412	40.5565
528.464	39
528.517	45.6352
528.569	45.4685
528.621	46.1548
528.674	41.859
528.726	44.6259
528.778	42.376
528.83	38.8636
528.883	40.8998
528.935	41.7063
528.987	41.305
529.039	39.8392
529.092	42.6107
529.144	46
529.196	40.1783
529.249	40.6054
529.301	40.6026
529.353	42.8007
529.405	44.6037
529.458	45.1772
529.51	44.0314
529.562	47.1842
529.614	44.2308
529.667	37.4126
529.719	39.5862
529.771	44.3357
529.823	39.3527
529.876	45.2133
529.928	40.2308
529.98	46.1713
530.033	46.4277
530.085	43.5711
530.137	43.2937
530.189	44
530.242	44.4359
530.294	40.6888
530.346	41.3201
530.398	45.5571
530.451	48.5548
530.503	47.7622
530.555	43.6923
530.607	44.0979
530.66	44.7203
530.712	38.6329
530.764	41.0839
530.816	48.9207
530.869	45.0769
530.921	40.3916
530.973	39.4662
531.025	39.5944
531.078	49.0583
531.13	45.4732
531.182	44.4266
531.234	43.5221
531.287	41.5198
531.339	44.0699
531.391	43.8695
531.443	46.0875
531.496	44
531.548	47
531.6	46.4918
531.652	45.4825
531.705	42.5035
531.757	43.0047
531.809	43.5035
531.861	42.4965
531.914	45.9883
531.966	47.5076
532.018	44.0186
532.07	49.465
532.123	43.028
532.175	42
532.227	47.4802
532.279	45
532.332	45.5233
532.384	43.5256
532.436	42.4161
532.488	46.5303
532.541	46.9358
532.593	43.7366
532.645	46.8555
532.697	43.6981
532.75	45.6686
532.802	49.5431
532.854	43.5455
532.906	44.6434
532.958	41.3512
533.011	42
533.063	47.1096
533.115	39.5571
533.167	49.7643
533.22	42.8788
533.272	50.5641
533.324	48.6978
533.376	45.4324
533.429	41.1443
533.481	51.213
533.533	43.2901
533.585	45.1952
533.638	44.859
533.69	46.167
533.742	44.5451
533.794	47.9264
533.846	43.6757
533.899	48.0811
533.951	48.6374
534.003	48.565
534.055	40.4083
534.108	42.9452
534.16	45.3439
534.212	50.5418
534.264	44.2586
534.316	44.9248
534.369	47.3995
534.421	42.5489
534.473	41.9979
534.525	43.0748
534.578	50.1357
534.63	48.0378
534.682	42.8815
534.734	48.7517
534.786	51.616
534.839	46.832
534.891	42.8865
534.943	50.7569
534.995	45.1897
535.047	48.4618
535.1	44.6475
535.152	49.812
535.204	47.5343
535.256	47.9551
535.309	46.3981
535.361	50.1562
535.413	49.0505
535.465	45.4035
535.517	47.7314
535.57	45.0001
535.622	46.6618
535.674	49.6556
535.726	45.9639
535.778	52.5127
535.831	48.8437
535.883	56.4332
535.935	49.5801
535.987	54.4129
536.039	46.5641
536.092	43.0428
536.144	43.325
536.196	47.689
536.248	50.3695
536.301	45.0468
536.353	48.5967
536.405	43.9351
536.457	44.5407
536.509	45.5795
536.562	42.5565
536.614	44.61
536.666	47.149
536.718	43.6425
536.77	44.6267
536.823	48.8323
536.875	48.7723
536.927	46.9019
536.979	46.8884
537.031	50.0333
537.083	47.4442
537.136	47.3684
537.188	45.5613
537.24	46.1195
537.292	49.2818
537.344	46.7359
537.397	43.7633
537.449	44.464
537.501	50.8356
537.553	48.7103
537.605	48.703
537.658	47.6851
537.71	50.72
537.762	46.3315
537.814	46.7033
537.866	48.8382
537.919	53.4729
537.971	45.3112
538.023	45.5673
538.075	50.9925
538.127	47.0555
538.18	46.2552
538.232	47.2958
538.284	47.2642
538.336	46.3368
538.388	49.572
538.44	46.2334
538.493	46.4485
538.545	42.5143
538.597	48.8329
538.649	46.6558
538.701	44.3509
538.754	49.2561
538.806	45.6826
538.858	44
538.91	49.7323
538.962	51.4769
539.014	49.9909
539.067	50.6341
539.119	48.5316
539.171	48.3779
539.223	46.547
539.275	51.8169
539.327	47.3697
539.38	48.1269
539.432	50.3099
539.484	46.6811
539.536	49.229
539.588	49.1262
539.641	49.5507
539.693	45.7782
539.745	46.8317
539.797	49.5437
539.849	50.3015
539.901	48.3005
539.954	46.2073
540.006	49.1116
540.058	49.9026
540.11	50.0806
540.162	55.5915
540.214	44.6394
540.267	50.5894
540.319	48.4714
540.371	52.5443
540.423	54.9782
540.475	41.2859
540.527	46.0273
540.58	47.0418
540.632	46.3408
540.684	54.6082
540.736	50.8963
540.788	49.8263
540.84	46.1157
540.892	46.0412
540.945	49.1528
540.997	48.284
541.049	48.2757
541.101	50.3337
541.153	48.0608
541.205	51.6462
541.258	41.8813
541.31	45.1731
541.362	49.3135
541.414	52.6214
541.466	42.5437
541.518	51.3998
541.57	50.6183
541.623	53.1268
541.675	46.0768
541.727	42.876
541.779	49.7375
541.831	45.7477
541.883	43.8495
541.936	49.5521
541.988	47.1256
542.04	52.8485
542.092	48.1776
542.144	58.0476
542.196	52.7333
542.248	52.7432
542.301	45.0023
542.353	56.1079
542.405	46.9687
542.457	45.575
542.509	42.3628
542.561	50.571
542.613	46.9691
542.666	49.661
542.718	47.5666
542.77	54.4867
542.822	52.3626
542.874	58.8433
542.926	54.8633
542.978	47.4584
543.031	49.1037
543.083	43.9525
543.135	41.3607
543.187	56.4601
543.239	46.5414
543.291	49.9022
543.343	53.2255
543.396	52.963
543.448	50.8282
543.5	49.2528
543.552	51.8889
543.604	55.1816
543.656	50.6503
543.708	46.3619
543.76	47.9902
543.813	51.5454
543.865	46.8904
543.917	54.2768
543.969	51.0062
544.021	54.9038
544.073	47.8889
544.125	52.4584
544.177	44.6478
544.23	51.0454
544.282	54.0609
544.334	51.7694
544.386	44.0439
544.438	51.6573
544.49	51.1394
544.542	50.3249
544.594	50.7926
544.647	53.6896
544.699	49.3837
544.751	51.5242
544.803	46.3707
544.855	56.5265
544.907	55.0368
544.959	53.8689
545.011	52.4469
545.064	54.8656
545.116	56.4775
545.168	58.2549
545.22	59.8998
545.272	52.759
545.324	45.6121
545.376	58.1708
545.428	48.498
545.48	57.8706
545.533	53.0619
545.585	55.419
545.637	56.0802
545.689	57.663
545.741	51.4973
545.793	51.4553
545.845	57.3016
545.897	59.7168
545.949	54.8082
546.002	55.8122
546.054	49.3411
546.106	56.5148
546.158	51.4915
546.21	53.4415
546.262	60.6801
546.314	60.3292
546.366	58.4871
546.418	49.8064
546.471	54.6005
546.523	51.0786
546.575	56.615
546.627	51.484
546.679	58.0847
546.689	59.916
546.741	55.975
546.793	57.8941
546.845	55.9094
546.898	57.8987
546.95	61.8016
547.002	57.8176
547.054	42.0817
547.106	55.9624
547.159	56.0826
547.211	57.8709
547.263	63.6099
547.315	63.5725
547.368	63.6729
547.42	63.6969
547.472	55.9604
547.524	52.1179
547.577	53.8936
547.629	59.6464
547.681	55.9613
547.733	57.8171
547.785	61.7437
547.838	57.9697
547.89	54.0893
547.942	59.9391
547.994	61.8891
548.047	54.1485
548.099	63.1367
548.151	63.1565
548.203	52.0401
548.255	62.7934
548.308	45.9558
548.36	63.3196
548.412	60
548.464	65.5623
548.517	59.6323
548.569	55.6973
548.621	48.5965
548.673	57.3852
548.725	57.7036
548.778	64
548.83	60.0028
548.882	61.7815
548.934	60.369
548.987	61.5581
549.039	65.3497
549.091	65.8074
549.143	60.3174
549.195	67.3988
549.248	52.866
549.3	59.7918
549.352	63.5235
549.404	62.4853
549.456	59.2678
549.509	68.939
549.561	65.4252
549.613	70.8813
549.665	52.2132
549.718	63.104
549.77	58.8652
549.822	62.107
549.874	66.251
549.926	59.0031
549.979	60.3499
550.031	74.1477
550.083	64.5631
550.135	69.5857
550.187	57.0118
550.24	73.0774
550.292	59.3094
550.344	75.7121
550.396	68.743
550.448	79.1606
550.501	64.7926
550.553	66.4068
550.605	63.7947
550.657	74.2447
550.709	65.6955
550.762	87.1296
550.814	76.0597
550.866	73.2475
550.918	70.0856
550.97	74.5408
551.023	76.4642
551.075	73.3102
551.127	79.406
551.179	81.6814
551.231	75.2068
551.284	91.3569
551.336	71.7996
551.388	84.6929
551.44	87.8586
551.492	82.6981
551.545	88.5937
551.597	88.8101
551.649	90.1646
551.701	105.406
551.753	101.03
551.806	93.0102
551.858	110.489
551.91	119.416
551.962	129.114
552.014	124.716
552.067	124.775
552.119	159.622
552.171	164.474
552.223	182.299
552.275	226.798
552.327	300.629
552.38	427.221
552.432	844.45
552.484	1765.03
552.536	3301.09
552.588	6044.3
552.641	10573.6
552.693	13538.5
552.745	9686.21
552.797	4940.84
552.849	1954.94
552.901	795.018
552.954	426.669
553.006	294.251
553.058	227.076
553.11	196.87
553.162	161.056
553.215	142.167
553.267	128.15
553.319	127.557
553.371	118.069
553.423	108.478
553.475	95.0361
553.528	102.07
553.58	90.6159
553.632	98.5951
553.684	97.8286
553.736	94.0619
553.788	97.2904
553.841	76.0795
553.893	81.8786
553.945	89.3386
553.997	81.2503
554.049	86.6265
554.102	86.3928
554.154	82.79
554.206	73.7218
554.258	81.8512
554.31	74.5644
554.362	81.2471
554.414	69.4105
554.467	78.656
554.519	82.3952
554.571	84.2962
554.623	75.5243
554.675	76.915
554.727	71.7061
554.78	78.9357
554.832	70.1914
554.884	77.8706
554.936	70.2296
554.988	70.7735
555.04	69.7215
555.093	76.7996
555.145	69.8167
555.197	75.8283
555.249	71.1225
555.301	71.3444
555.353	71.429
555.406	76.0965
555.458	75.1596
555.51	71.7556
555.562	79.6625
555.614	79.9261
555.666	75.9514
555.719	81.2736
555.771	65.8216
555.823	72.7634
555.875	73.3798
555.927	75.1451
555.979	75.5546
556.031	78.7101
556.084	82.0582
556.136	76.2568
556.188	67.5646
556.24	76.7572
556.292	69.5638
556.344	72.1352
556.396	72.1466
556.449	80.6185
556.501	77.2809
556.553	76.5031
556.605	79.1864
556.657	76.1777
556.709	78.2243
556.762	81.0641
556.814	75.2863
556.866	84.5392
556.918	77.6186
556.97	78.3031
557.022	78.7355
557.074	77.9043
557.127	72.8843
557.179	79.2489
557.231	83.645
557.283	83.0726
557.335	75.9604
557.387	83.5855
557.439	79.1105
557.492	72.7837
557.544	75.5647
557.596	79.7421
557.648	76.6136
557.7	84.9604
557.752	76.2455
557.804	76.6163
557.856	78.3301
557.909	76.8919
557.961	78.5025
558.013	77.125
558.065	74.0755
558.117	81.6658
558.169	80.7598
558.221	79.0392
558.273	82.7785
558.326	90.2116
558.378	79.1106
558.43	75.9979
558.482	80.642
558.534	87.4457
558.586	85.7679
558.638	85.502
558.691	78.9086
558.743	85.968
558.795	76.4272
558.847	79.6809
558.899	83.4312
558.951	86.1765
559.003	85.635
559.055	85.3129
559.108	76.8454
559.16	80.4245
559.212	76.8855
559.264	82.1945
559.316	75.2381
559.368	84.0155
559.42	87.0321
559.472	83.5066
559.525	86.8664
559.577	82.144
559.629	81.9497
559.681	83.7716
559.733	91.0409
559.785	87.2189
559.837	83.799
559.889	87.1294
559.941	83.1229
559.994	87.6768
560.046	81.3441
560.098	86.9948
560.15	80.8327
560.202	89.6122
560.254	85.1265
560.306	83.3333
560.358	87.6961
560.41	90.7122
560.463	84.1824
560.515	87.8153
560.567	89.8066
560.619	95.7844
560.671	89.9896
560.723	89.8935
560.775	92.747
560.827	93.3442
560.879	85.012
560.932	93.2284
560.984	89.1195
561.036	93.7882
561.088	92.934
561.14	91.4237
561.192	93.6775
561.244	92.8373
561.296	86.2074
561.348	87.572
561.4	91.1128
561.453	87.6233
561.505	94.0177
561.557	88
561.609	91.0059
561.661	89.5095
561.713	94.1658
561.765	91.7237
561.817	95.2625
561.869	97.3601
561.921	88.7047
561.974	89.6926
562.026	90.3948
562.078	97.4436
562.13	90.0964
562.182	92.6825
562.234	95.0692
562.286	99.3503
562.338	94.018
562.39	93.7771
562.442	101.804
562.494	102.422
562.547	98.0408
562.599	92.8016
562.651	102.486
562.703	98.9146
562.755	96.0409
562.807	92.4319
562.859	100.841
562.911	100.776
562.963	101.128
563.015	96.2124
563.067	99.746
563.12	105.766
563.172	99.4002
563.224	99.1323
563.276	110.974
563.328	103.803
563.38	112.817
563.432	104.072
563.484	109.553
563.536	113.459
563.588	110.036
563.64	110.74
563.692	110.68
563.744	113.493
563.797	107.404
563.849	114.356
563.901	120.848
563.953	110.4
564.005	119.799
564.057	121.27
564.109	125.96
564.161	124.081
564.213	124.074
564.265	119.395
564.317	116.365
564.369	114
564.421	124.823
564.474	123.116
564.526	125.198
564.578	120.048
564.63	113.457
564.682	114.625
564.734	115.454
564.786	115.892
564.838	114.155
564.89	110.859
564.942	116.042
564.994	112.545
565.046	107.027
565.098	109.525
565.15	109.091
565.202	106.241
565.255	113.418
565.307	116.968
565.359	109.448
565.411	108.669
565.463	113.689
565.515	110.918
565.567	109.979
565.619	104.394
565.671	113.964
565.723	120.015
565.775	116.308
565.827	106.249
565.879	108.488
565.931	105.593
565.983	113.432
566.035	110.376
566.087	106.473
566.139	112.251
566.192	113.772
566.244	106.098
566.296	106.423
566.348	112.925
566.4	110.807
566.452	108.527
566.504	116.092
566.556	117.155
566.608	117.884
566.66	117.023
566.712	115.848
566.764	110.853
566.816	117.689
566.868	119.572
566.92	115.523
566.972	118.797
567.024	115.482
567.076	113.571
567.128	118
567.18	111.103
567.232	116.569
567.285	115.976
567.337	117.18
567.389	115.61
567.441	110.757
567.493	116.753
567.545	118.601
567.597	119.165
567.649	125.221
567.701	128.672
567.753	118.499
567.805	111.779
567.857	111.22
567.909	114.43
567.961	116.498
568.013	125.963
568.065	127.724
568.117	128.092
568.169	120.555
568.221	121.686
568.273	127.692
568.325	125.632
568.377	127.036
568.429	126.835
568.481	119.517
568.533	122.227
568.585	123.721
568.637	128.039
568.69	124.856
568.742	119.633
568.794	123.01
568.846	129.656
568.898	127.151
568.95	124.211
569.002	127.718
569.054	130.951
569.106	128.916
569.158	130.956
569.21	126.449
569.262	129.615
569.314	123.786
569.366	122.865
569.418	129.103
569.47	132.326
569.522	124.356
569.574	125.392
569.626	129.734
569.678	140.948
569.73	143.255
569.782	133.154
569.834	125.381
569.886	129.222
569.938	129.634
569.99	129.044
570.042	130.153
570.094	140.33
570.146	137.141
570.198	136.271
570.25	138.576
570.302	135.492
570.354	140.925
570.406	142.063
570.458	136.489
570.51	134.556
570.562	139.189
570.614	138.643
570.666	145.311
570.718	149.507
570.77	144.6
570.822	152.85
570.874	152.485
570.926	152.228
570.978	153.072
571.03	151.078
571.082	149.581
571.134	152.115
571.186	158.857
571.238	161.693
571.29	159.341
571.342	153.214
571.394	149.458
571.446	147.92
571.498	146.591
571.55	156.062
571.602	158.594
571.654	160.684
571.706	157.549
571.758	162.344
571.81	165.517
571.862	170.385
571.914	170.395
571.966	173.901
572.018	168.028
572.07	159.28
572.122	161.667
572.174	168.159
572.226	166.479
572.278	167.2
572.33	164.58
572.382	165.842
572.434	181.743
572.486	177.285
572.538	175.386
572.59	187.357
572.642	179.52
572.694	178.756
572.746	184.269
572.798	182.506
572.85	193.882
572.902	187.761
572.954	185.895
573.006	196.572
573.058	205.064
573.11	207.13
573.162	197.791
573.214	201.352
573.266	201.192
573.302	203.985
573.355	215.934
573.407	211.972
573.459	227.719
573.511	213.863
573.563	213.852
573.615	221.549
573.667	221.671
573.719	231.692
573.772	235.619
573.824	218.122
573.876	233.949
573.928	239.943
573.98	241.939
574.032	249.391
574.084	253.209
574.136	245.678
574.188	259.568
574.241	254.247
574.293	244.622
574.345	258.011
574.397	271.389
574.449	277.245
574.501	284.934
574.553	272.054
574.605	266.73
574.657	291.725
574.71	280.508
574.762	272.968
574.814	308.974
574.866	329.635
574.918	295.215
574.97	299.417
575.022	305.647
575.074	307.313
575.126	299.826
575.178	331.932
575.231	313.569
575.283	348.982
575.335	318.288
575.387	328.691
575.439	306.51
575.491	341.829
575.543	337.888
575.595	338.435
575.647	320.843
575.7	323.866
575.752	346.287
575.804	329.041
575.856	331.718
575.908	337.24
575.96	338.998
576.012	344.957
576.064	331.464
576.116	337.673
576.168	338.468
576.22	331.834
576.273	335.048
576.325	342.129
576.377	329.042
576.429	339.899
576.481	324.465
576.533	316.236
576.585	325.131
576.637	313.424
576.689	307.603
576.741	299.819
576.793	301.6
576.846	316.756
576.898	310.654
576.95	307.49
577.002	296.649
577.054	303.052
577.106	291.221
577.158	289.535
577.21	285.419
577.262	289.884
577.314	277.604
577.366	283.909
577.418	276.993
577.471	264.713
577.523	273.485
577.575	256.913
577.627	264.434
577.679	270.531
577.731	263.065
577.783	257.559
577.835	262
577.887	253.047
577.939	259.976
577.991	264.139
578.043	234
578.095	247.164
578.148	257.751
578.2	249.773
578.252	253.677
578.304	256.016
578.356	254.268
578.408	244.126
578.46	253.016
578.512	246.374
578.564	246.584
578.616	253.086
578.668	236.568
578.72	246.232
578.772	230.369
578.824	240.484
578.877	245.651
578.929	235.088
578.981	250.465
579.033	246.553
579.085	243.499
579.137	230.739
579.189	246.004
579.241	252.376
579.293	240.918
579.345	254.242
579.397	242.262
579.449	260.293
579.501	247.081
579.553	250.909
579.605	245.518
579.658	253.858
579.71	255.223
579.762	240.212
579.814	249.635
579.866	242.523
579.918	245.261
579.97	255.198
580.022	262.734
580.074	251.603
580.126	244.615
580.178	263.802
580.23	248.796
580.282	250.7
580.334	247.415
580.386	257.074
580.438	242.651
580.49	252.75
580.542	249.83
580.595	242
580.647	254.706
580.699	252.855
580.751	255.46
580.803	261.988
580.855	239.933
580.907	257.53
580.959	256.251
581.011	244
581.063	256.187
581.115	235.44
581.167	245.919
581.219	246.414
581.271	246.191
581.323	256.213
581.375	243.23
581.427	248.292
581.479	262.108
581.531	245.978
581.583	230.528
581.635	251.874
581.688	250.641
581.74	262.557
581.792	258.147
581.844	246.224
581.896	250.552
581.948	258.768
582	255.201
582.052	261.26
582.104	244.813
582.156	258.925
582.208	251.566
582.26	248.458
582.312	256.357
582.364	257.174
582.416	255.2
582.468	267.702
582.52	261.584
582.572	258.21
582.624	258.94
582.676	256.206
582.728	270.497
582.78	280.653
582.832	276.802
582.884	263.273
582.936	264.985
582.988	268.318
583.04	266.774
583.092	270.737
583.144	267.802
583.196	263.242
583.249	247.921
583.301	281.547
583.353	271.286
583.405	260.224
583.457	266.151
583.509	277.674
583.561	268.743
583.613	272.371
583.665	272.626
583.717	275.139
583.769	270.864
583.821	283.543
583.873	268.935
583.925	293.26
583.977	277.769
584.029	283.917
584.081	281.426
584.133	277.88
584.185	279.851
584.237	271.81
584.289	289.975
584.341	280.576
584.393	302.103
584.445	280.972
584.497	296.112
584.549	276.985
584.601	279.522
584.653	295.718
584.705	281.134
584.757	289.142
584.809	288.758
584.861	293.393
584.913	300.883
584.965	290.039
585.017	301.469
585.069	304.878
585.121	309.169
585.173	303.26
585.225	292.77
585.277	299.816
585.329	297.678
585.381	301.754
585.433	314.427
585.485	306.355
585.537	309.538
585.589	312.017
585.641	317.862
585.693	316.242
585.745	315.996
585.797	314.114
585.849	316.827
585.901	311.09
585.953	317.007
586.005	318.162
586.057	319.001
586.109	318.307
586.161	311.908
586.213	324.973
586.265	313.211
586.317	315.349
586.369	331.753
586.421	312.396
586.473	309.695
586.525	321.029
586.577	326.729
586.629	320.388
586.681	334.395
586.733	314.365
586.785	329.545
586.837	309.515
586.889	318.686
586.941	319.86
586.993	338.194
587.045	327.256
587.097	321.045
587.149	337.439
587.201	338.98
587.253	328.387
587.305	332.622
587.357	328.96
587.409	314.093
587.461	319.885
587.513	325.06
587.565	325.413
587.617	345.774
587.669	313.147
587.721	332.826
587.773	336.116
587.825	332.8
587.877	324.195
587.929	324.711
587.981	329.837
588.033	329.661
588.085	327.875
588.137	336.319
588.189	338.06
588.241	341.67
588.293	348.387
588.345	331.195
588.397	338.854
588.449	345.389
588.501	343.347
588.552	347.383
588.604	344.626
588.656	332.153
588.708	343.521
588.76	339.149
588.812	343.501
588.864	357.326
588.916	342.558
588.968	339.345
589.02	349.945
589.072	352.231
589.124	350.181
589.176	340.423
589.228	351.812
589.28	354.721
589.332	348.361
589.384	362.672
589.436	351.74
589.488	357.334
589.54	366.5
589.592	361.345
589.644	363.179
589.696	376.713
589.748	362.659
589.8	352.207
589.852	357.581
589.904	360.746
589.956	364.507
590.008	357.124
590.06	365.337
590.112	354.743
590.163	342.078
590.215	353.806
590.267	352.979
590.319	362.773
590.371	358.682
590.423	345.641
590.475	350.396
590.527	352.415
590.579	353.687
590.631	338.806
590.683	361.736
590.735	357.533
590.787	354.292
590.839	363.759
590.891	351.259
590.943	354.342
590.995	348.003
591.047	358.28
591.099	352.496
591.151	345.585
591.203	339.692
591.254	339.575
591.306	350.111
591.358	344.806
591.41	321.279
591.462	332.255
591.514	341.237
591.566	338.91
591.618	328.95
591.67	329.36
591.722	323.075
591.774	333.392
591.826	326.805
591.878	330.426
591.93	327.791
591.982	325.764
592.034	327.099
592.086	327.999
592.137	339.916
592.189	330.566
592.241	317.161
592.293	326.991
592.345	339.806
592.397	335.895
592.449	334.605
592.501	339.146
592.553	327.861
592.605	316.242
592.657	327.193
592.709	325.613
592.761	329.1
592.813	327.737
592.865	325.383
592.916	330.581
592.968	329.828
593.02	340.338
593.072	329.294
593.124	320.714
593.176	324.731
593.228	332.82
593.28	325.229
593.332	332.783
593.384	341.039
593.436	335.693
593.488	335.254
593.54	335.707
593.591	332.571
593.643	337.807
593.695	322.96
593.747	325.227
593.799	328.902
593.851	330.288
593.903	318.004
593.955	331.332
594.007	332.118
594.059	333.327
594.111	331.873
594.163	329.684
594.215	329.72
594.266	332.966
594.318	333.439
594.37	337.212
594.422	332.568
594.474	330.53
594.526	324.427
594.578	328.703
594.63	333.218
594.682	325.298
594.734	334.886
594.786	349.856
594.837	339.098
594.889	326.215
594.941	328.37
594.993	333.599
595.045	341.353
595.097	338.04
595.149	340.344
595.201	331.53
595.253	339.224
595.305	342.63
595.357	342.553
595.408	345.217
595.46	341.116
595.512	346.027
595.564	338.266
595.616	334.877
595.668	344.49
595.72	351.848
595.772	349.569
595.824	350.198
595.876	352.792
595.927	352.005
595.979	352.848
596.031	346.57
596.083	354.875
596.135	351.335
596.187	348.786
596.239	357.801
596.291	358.305
596.343	347.852
596.394	347.164
596.446	358.52
596.498	350.985
596.55	353.423
596.602	366.959
596.654	366.13
596.706	369.95
596.758	373.269
596.81	370.974
596.862	370.653
596.913	352.64
596.965	355.973
597.017	358.682
597.069	355.376
597.121	347.791
597.173	347.478
597.225	337.955
597.277	343.34
597.328	340.269
597.38	342.47
597.432	342.265
597.484	341.391
597.536	342.392
597.588	343.73
597.64	349.902
597.692	359.364
597.744	356.512
597.795	347.172
597.847	351.515
597.899	361.833
597.951	353.472
598.003	349.93
598.055	351.582
598.107	344.334
598.159	347.877
598.21	348.98
598.262	354.398
598.314	353.964
598.366	346.462
598.418	344.311
598.47	341.362
598.522	345.362
598.574	354.381
598.625	343.391
598.677	349.223
598.729	347.902
598.781	345.143
598.833	348.95
598.885	351.49
598.937	348.58
598.988	346.295
599.04	354.555
599.092	374.053
599.144	365.686
599.196	356.928
599.248	350.116
599.3	356.877
599.352	357.674
599.403	348.234
599.455	353.359
599.507	358.25
599.559	349.509
599.611	362.385
599.663	371.344
599.715	365.053
599.766	355.221
599.803	357.991
599.855	346.039
599.907	353.987
599.959	355.911
600.011	349.851
600.063	361.81
600.115	353.949
600.167	360.149
600.219	344.105
600.271	353.997
600.323	352.018
600.375	332.676
600.427	347.783
600.479	365.676
600.531	351.932
600.583	355.645
600.635	365.448
600.686	363.87
600.738	355.17
600.79	349.992
600.842	346.004
600.894	357.58
600.946	359.507
600.998	367.756
601.05	351.277
601.102	373.112
601.154	348.634
601.206	360.326
601.258	341.538
601.31	374.935
601.362	359.078
601.414	371.24
601.466	359.26
601.518	365.621
601.57	366.119
601.622	369.177
601.674	352.853
601.726	373.121
601.778	367.553
601.83	358.627
601.882	379.67
601.934	352.492
601.986	351.324
602.038	376.298
602.09	355.478
602.142	362.4
602.194	346
602.246	371.772
602.298	365.166
602.35	365.126
602.402	358.995
602.454	374.997
602.506	377.555
602.558	365.57
602.61	338.976
602.662	351.306
602.714	362.431
602.766	342.456
602.818	366.694
602.87	370.982
602.922	350.904
602.974	351.956
603.026	368.854
603.078	364.387
603.13	380.536
603.182	367.231
603.234	366.389
603.285	371.968
603.337	375.876
603.389	381.186
603.441	383.842
603.493	353.724
603.545	377.202
603.597	377.301
603.649	358.347
603.701	365.509
603.753	372.175
603.805	366.094
603.857	370.409
603.909	381.003
603.961	346.94
604.013	359.387
604.065	375.466
604.117	371.046
604.169	380.11
604.221	370.126
604.273	371.26
604.325	372.202
604.377	388.873
604.429	373.341
604.481	363.823
604.533	370.817
604.584	369.466
604.636	382.348
604.688	362.754
604.74	367.626
604.792	372.304
604.844	375.037
604.896	376.734
604.948	368.047
605	371.331
605.052	366.081
605.104	359.105
605.156	378.122
605.208	383.15
605.26	375.314
605.312	386.053
605.364	383.653
605.416	362.485
605.468	366.167
605.52	377.403
605.572	379.307
605.623	386.309
605.675	364.429
605.727	387.839
605.779	356.803
605.831	383.842
605.883	371.91
605.935	368.377
605.987	374.184
606.039	375.532
606.091	369.393
606.143	367.785
606.195	365.916
606.247	384.913
606.299	376.251
606.351	373.729
606.403	377.363
606.455	387.492
606.506	368.459
606.558	366.852
606.61	377.357
606.662	376.123
606.714	359.137
606.766	375.472
606.818	360.134
606.87	367.648
606.922	370.708
606.974	385.723
607.026	365.784
607.078	381.722
607.13	381.794
607.182	377.285
607.234	374.195
607.285	378.804
607.337	395.103
607.389	369.721
607.441	393.656
607.493	388.882
607.545	375.243
607.597	381.172
607.649	375.923
607.701	369.951
607.753	390.91
607.805	377.63
607.857	382.933
607.909	382.166
607.96	380.336
608.012	388.373
608.064	388.102
608.116	388.451
608.168	386.375
608.22	384.101
608.272	385.188
608.324	374.643
608.376	385.062
608.428	387.22
608.48	375.345
608.532	389.98
608.583	383.505
608.635	378.583
608.687	380.572
608.739	379.452
608.791	374.11
608.843	389.392
608.895	402.189
608.947	388.758
608.999	384.444
609.051	381.66
609.103	386.251
609.155	388.018
609.206	404.772
609.258	398.117
609.31	378.179
609.362	392.203
609.414	381.176
609.466	390.138
609.518	383.191
609.57	382.434
609.622	396.852
609.674	382.437
609.725	390.004
609.777	387.001
609.829	398.742
609.881	379.075
609.933	376.807
609.985	383.677
610.037	397.385
610.089	386.419
610.141	397.599
610.193	395.373
610.245	392.81
610.296	391.116
610.348	401.634
610.4	394.597
610.452	392.48
610.504	388.277
610.556	397.581
610.608	394
610.66	400.63
610.712	403.39
610.763	396.898
610.815	398.692
610.867	392.438
610.919	413.158
610.971	391.345
611.023	398.36
611.075	395.134
611.127	400.467
611.179	400.576
611.23	407.574
611.282	411.4
611.334	403.51
611.386	399.454
611.438	396.79
611.49	400.944
611.542	398.569
611.594	384.258
611.646	405.618
611.697	400.313
611.749	407.316
611.801	400.588
611.853	408.613
611.905	407.334
611.957	395.252
612.009	414.347
612.061	410.666
612.113	395.07
612.164	398.598
612.216	401.484
612.268	399.241
612.32	401.562
612.372	414.156
612.424	410.206
612.476	417.946
612.528	410.431
612.579	408.825
612.631	409.004
612.683	404.414
612.735	407.019
612.787	418.408
612.839	414.721
612.891	399.495
612.943	402.295
612.994	398.659
613.046	402.004
613.098	409.41
613.15	415.562
613.202	423.374
613.254	403.011
613.306	411.857
613.357	411.292
613.409	405.433
613.461	415.477
613.513	427.559
613.565	408.472
613.617	414.997
613.669	421.679
613.721	438.162
613.772	429.61
613.824	424.04
613.876	416.773
613.928	420.212
613.98	410.566
614.032	414.982
614.084	429.455
614.135	430.972
614.187	432.05
614.239	427.992
614.291	416.935
614.343	423.234
614.395	417.471
614.447	415.963
614.498	430.042
614.55	439.474
614.602	429.193
614.654	429.137
614.706	424.824
614.758	432.113
614.81	421.477
614.861	431.074
614.913	414.532
614.965	430.681
615.017	422.58
615.069	432.517
615.121	431.57
615.172	436.725
615.224	434.892
615.276	419.492
615.328	431.349
615.38	429.425
615.432	431.4
615.484	438.931
615.535	444.959
615.587	442.28
615.639	447.036
615.691	442.868
615.743	437.999
615.795	427.403
615.846	438.872
615.898	445.484
615.95	440.664
616.002	441.388
616.054	448.089
616.106	444.943
616.158	445.917
616.209	458.817
616.261	461.589
616.313	449.023
616.365	452.793
616.417	440.88
616.469	444.587
616.52	450.905
616.572	452.429
616.624	459.735
616.676	439.857
616.728	443.935
616.78	455.208
616.831	456.808
616.883	460.504
616.935	460.101
616.987	456.431
617.039	470.441
617.091	459.969
617.142	449.462
617.194	447.607
617.246	464.008
617.298	465.445
617.35	447.742
617.401	458.695
617.453	462.029
617.505	454.707
617.557	458.977
617.609	464.07
617.661	459.577
617.712	473.919
617.764	464.753
617.816	472.74
617.868	481.96
617.92	474.663
617.972	471.364
618.023	463.902
618.075	468.549
618.127	466.191
618.179	465.279
618.231	467.355
618.282	475.878
618.334	480.45
618.386	470.272
618.438	477.787
618.49	470.501
618.542	473
618.593	482.269
618.645	476.326
618.697	467.696
618.749	478.453
618.801	476.484
618.852	479.286
618.904	476.32
618.956	476.495
619.008	479.048
619.06	472.123
619.111	484.997
619.163	483.954
619.215	473.801
619.267	480.465
619.319	481.603
619.37	489.218
619.422	488.487
619.474	485.586
619.526	491.43
619.578	484.668
619.63	487.543
619.681	498.854
619.733	489.631
619.785	494.84
619.837	487.647
619.888	504.188
619.94	486.345
619.992	473.122
620.044	477.704
620.096	490.84
620.147	486.8
620.199	506.746
620.251	499.181
620.303	488.455
620.355	490.52
620.406	502.403
620.458	486.44
620.51	500.112
620.562	507.155
620.614	491.274
620.665	488.346
620.717	514.772
620.769	498.439
620.821	491.285
620.873	498.995
620.924	511.225
620.976	508.734
621.028	495.568
621.08	501.644
621.132	508.924
621.183	508.825
621.235	509.452
621.287	512.962
621.339	517.163
621.39	498.688
621.442	513.336
621.494	510.121
621.546	492.26
621.598	486.106
621.649	506.422
621.701	500.546
621.753	485.327
621.805	490.64
621.856	507.545
621.908	498.125
621.96	501.372
622.012	497.096
622.064	493.873
622.115	487.065
622.167	515.075
622.219	504.499
622.271	507.54
622.322	507.368
622.374	487.645
622.426	522.152
622.478	496.181
622.53	503.864
622.581	493.452
622.633	525.985
622.685	503.028
622.737	501.185
622.788	518.578
622.84	489.582
622.892	490.393
622.944	514.365
622.995	530.894
623.047	528.613
623.099	509.034
623.151	512.265
623.203	521.873
623.254	523.768
623.306	502.867
623.358	511.014
623.41	521.013
623.461	521.109
623.513	518.455
623.565	514.406
623.617	509.539
623.668	528.047
623.72	510.46
623.772	490.658
623.824	517.531
623.875	516.689
623.927	515.16
623.979	510.041
624.031	516.113
624.082	515.276
624.134	513.917
624.186	531.839
624.238	523.775
624.289	515.085
624.341	542.531
624.393	511.7
624.445	512.183
624.496	533.574
624.548	512.415
624.6	527.782
624.652	499.85
624.703	525.597
624.755	526.809
624.807	522.248
624.859	509.465
624.91	522.437
624.962	512.388
625.014	499.698
625.066	533.617
625.117	532.219
625.169	515.538
625.221	515.457
625.273	537.505
625.324	541.095
625.376	503.879
625.428	522.718
625.48	509.335
625.531	520.428
625.583	512.048
625.635	521.476
625.687	520.943
625.738	517.472
625.79	486.003
625.842	543.227
625.893	542.175
625.945	545.101
625.997	539.434
626.049	532.929
626.1	537.076
626.152	544.888
626.204	549.339
626.256	534.936
626.307	528.645
626.316	527.999
626.368	520.068
626.42	528.035
626.472	543.558
626.523	549.393
626.575	553.554
626.627	569.336
626.679	545.668
626.731	537.914
626.783	520.184
626.835	522.052
626.887	525.544
626.938	535.859
626.99	517.673
627.042	527.233
627.094	522.229
627.146	554.928
627.198	545.601
627.25	517.174
627.302	555.109
627.353	535.419
627.405	523.458
627.457	533.8
627.509	554.611
627.561	551.53
627.613	539.618
627.665	560.439
627.716	545.524
627.768	541.653
627.82	554.363
627.872	546.547
627.924	556.188
627.976	558.737
628.028	536.834
628.079	555.831
628.131	533.43
628.183	529.7
628.235	535.048
628.287	558.645
628.339	535.759
628.391	557.479
628.443	556.62
628.494	560.153
628.546	556.616
628.598	560.842
628.65	543.523
628.702	551.014
628.754	562.586
628.805	549.863
628.857	553.523
628.909	565.64
628.961	568.108
629.013	546.24
629.065	558.788
629.117	539.779
629.168	568.606
629.22	562.442
629.272	564.958
629.324	556.329
629.376	564.632
629.428	553.982
629.479	577.021
629.531	582.652
629.583	573.062
629.635	559.548
629.687	574.416
629.739	555.467
629.791	563.204
629.842	565.036
629.894	547.783
629.946	558.964
629.998	581.276
630.05	577.732
630.102	592.023
630.153	561.732
630.205	556.96
630.257	575.197
630.309	555.537
630.361	566.806
630.413	552.038
630.464	575.382
630.516	577.443
630.568	567.343
630.62	569.211
630.672	584.238
630.724	561.472
630.776	571.095
630.827	581.493
630.879	577.774
630.931	574.5
630.983	592.871
631.035	574.683
631.086	583.137
631.138	594.79
631.19	577.35
631.242	581.913
631.294	578.767
631.346	587.267
631.397	558.325
631.449	581.844
631.501	590.591
631.553	601.839
631.605	592.659
631.657	581.898
631.708	584.826
631.76	595.724
631.812	602.18
631.864	591.977
631.916	597.887
631.967	611.907
632.019	612.397
632.071	587.033
632.123	592.12
632.175	603.75
632.227	610.641
632.278	607.768
632.33	603.828
632.382	600.173
632.434	614.416
632.486	594.958
632.537	603.743
632.589	590.177
632.641	608.407
632.693	599.017
632.745	620.953
632.797	607.804
632.848	610.268
632.9	604.951
632.952	633.589
633.004	620.766
633.056	613.746
633.107	611.816
633.159	608.289
633.211	614.364
633.263	606.795
633.315	611.682
633.366	620.746
633.418	626.015
633.47	618.34
633.522	607.799
633.574	631.732
633.625	624.675
633.677	609.259
633.729	638.024
633.781	606.406
633.833	622.111
633.885	609.177
633.936	638.56
633.988	595.537
634.04	637.767
634.092	652.813
634.143	641.691
634.195	639.459
634.247	664.03
634.299	637.152
634.351	628.535
634.403	634.749
634.454	645.786
634.506	643.758
634.558	633.372
634.61	665.983
634.661	641.466
634.713	638.462
634.765	657.524
634.817	663.003
634.869	663.155
634.92	654.876
634.972	651.048
635.024	638.93
635.076	650.343
635.128	675.88
635.179	652.59
635.231	671
635.283	665.716
635.335	666.23
635.387	665.491
635.438	649.4
635.49	672.559
635.542	679.302
635.594	685.923
635.645	693.221
635.697	711.956
635.749	687.415
635.801	698.081
635.853	695.882
635.904	698.539
635.956	723.249
636.008	719.534
636.06	707.4
636.112	720.714
636.163	721.486
636.215	737.068
636.267	742.064
636.319	748.156
636.37	745.349
636.422	761.656
636.474	775.275
636.526	759.795
636.577	765.055
636.629	771.438
636.681	773.503
636.733	800.38
636.785	781.591
636.836	778.741
636.888	797.988
636.94	810.434
636.992	812.014
637.043	821.651
637.095	825.702
637.147	840.512
637.199	850.208
637.25	860.018
637.302	874.877
637.354	885.456
637.406	866.991
637.458	874.678
637.509	888.586
637.561	901.178
637.613	913.176
637.665	919.333
637.716	936.661
637.768	929.907
637.82	913.574
637.872	948.932
637.923	936.154
637.975	949.533
638.027	928.906
638.079	947.158
638.13	936.711
638.182	952.802
638.234	948.573
638.286	935.537
638.337	920.659
638.389	919.317
638.441	915.596
638.493	929.325
638.544	943.231
638.596	926.837
638.648	934.983
638.7	888.072
638.752	900.29
638.803	903.289
638.855	930.818
638.907	913.386
638.958	894.345
639.01	896.191
639.062	873.213
639.114	875.627
639.165	871.848
639.217	871.98
639.269	872.279
639.321	860.833
639.372	837.382
639.424	852.627
639.476	855.775
639.528	848.718
639.579	842.896
639.631	838.507
639.683	843.755
639.735	835.814
639.786	831.53
639.838	818.55
639.89	814.071
639.942	821
639.993	820.585
640.045	813.244
640.097	804.251
640.149	804.681
640.2	795.758
640.252	797.416
640.304	805.37
640.356	800.062
640.407	802.775
640.459	789.868
640.511	794.476
640.562	792.072
640.614	794.354
640.666	790.847
640.718	793.069
640.769	763.433
640.821	776.143
640.873	779.309
640.925	775.051
640.976	772.816
641.028	782.793
641.08	779.823
641.131	773.499
641.183	772.891
641.235	787.625
641.287	780.012
641.338	773.897
641.39	777.806
641.442	782.104
641.494	776.247
641.545	768.588
641.597	788.839
641.649	773.168
641.7	782.146
641.752	770.05
641.804	753.401
641.856	768.069
641.907	783.43
641.959	787.092
642.011	768.161
642.063	778.361
642.114	772.961
642.166	771.003
642.218	758.243
642.269	772.386
642.321	758.926
642.373	779.052
642.424	753.65
642.476	765.267
642.528	793.01
642.58	795.19
642.631	777.07
642.683	789.162
642.735	765.529
642.786	783.459
642.838	773.416
642.89	769.774
642.942	765.513
642.993	791.157
643.045	782.757
643.097	779.634
643.148	767.889
643.2	770.214
643.252	786.915
643.304	780.077
643.355	781.124
643.407	783.528
643.459	767.917
643.51	773.441
643.562	778.474
643.614	794.283
643.665	788.365
643.717	771.69
643.769	787.963
643.82	788.577
643.872	797.913
643.924	778.343
643.976	787.363
644.027	777.786
644.079	763.564
644.131	792.325
644.182	788.985
644.234	783.342
644.286	799.231
644.337	794.94
644.389	788.99
644.441	773.489
644.493	787.237
644.544	788.616
644.596	781.593
644.648	800.612
644.699	805.843
644.751	789.975
644.803	780.21
644.854	788.151
644.906	785.44
644.958	806.815
645.009	795.907
645.061	792.284
645.113	795.605
645.164	781.201
645.216	803.866
645.268	822.497
645.32	800.63
645.371	821.617
645.423	827.332
645.475	793.433
645.526	793.788
645.578	796.987
645.63	819.482
645.681	814.819
645.733	798.767
645.785	810.118
645.836	796.359
645.888	795.838
645.94	818.073
645.991	815.551
646.043	814.711
646.095	795.94
646.146	800.412
646.198	797.261
646.25	812.864
646.301	822.81
646.353	792.271
646.405	791.317
646.456	841.495
646.508	822.876
646.56	786.869
646.611	814.387
646.663	811.855
646.715	838.678
646.766	817.934
646.818	809.962
646.87	809.324
646.921	798.482
646.973	816.06
647.025	818.698
647.076	810.747
647.128	854.293
647.18	808.546
647.231	811.933
647.283	829.132
647.335	831.663
647.386	828.885
647.438	819.953
647.49	843.777
647.541	823.453
647.593	847.231
647.645	805.843
647.696	819.288
647.748	827.666
647.8	805.198
647.851	849.6
647.903	833.661
647.955	828.159
648.006	816.865
648.058	820.101
648.109	819.547
648.161	822.324
648.213	852.657
648.264	853.092
648.316	840.105
648.368	825.785
648.419	864.768
648.471	857.294
648.523	838.187
648.574	840.2
648.626	862.779
648.678	860.919
648.729	834.703
648.781	838.456
648.833	873.224
648.884	848.385
648.936	819.527
648.987	847.914
649.039	851.601
649.091	838.49
649.142	846.669
649.194	836.946
649.246	864.415
649.297	862.399
649.349	849.306
649.401	850.752
649.452	872.421
649.504	853.433
649.555	849.569
649.607	885.711
649.659	864.31
649.71	858.379
649.762	867.475
649.814	869.356
649.865	861.087
649.917	888.655
649.969	890.11
650.02	872.982
650.072	873.646
650.123	859.137
650.175	868.436
650.227	869.164
650.278	893.832
650.33	899.492
650.382	882.234
650.433	890.306
650.485	898.777
650.536	884.218
650.588	870.333
650.64	869.251
650.691	912.138
650.743	908.123
650.795	882.828
650.846	875.848
650.898	891.192
650.949	912.626
651.001	896.643
651.053	892.63
651.104	906.118
651.156	917.78
651.208	909.105
651.259	903.52
651.311	904.887
651.362	897.055
651.414	863.898
651.466	901.029
651.517	926.797
651.569	901.392
651.62	896.963
651.672	907.381
651.724	922.015
651.775	912.154
651.827	898.285
651.878	908.897
651.93	903.273
651.982	913.379
652.033	907.842
652.085	934.536
652.137	909.773
652.188	915.63
652.24	915.954
652.291	911.815
652.343	927.408
652.395	923.221
652.446	900.114
652.498	915.974
652.549	919.208
652.601	928.566
652.653	931.191
652.704	936.846
652.756	918.21
652.772	908.144
652.824	941.997
652.876	938.063
652.927	961.946
652.979	934.25
653.031	906.718
653.083	943.967
653.134	944.405
653.186	950.365
653.238	961.779
653.29	899.106
653.341	944.028
653.393	950.447
653.445	946.372
653.497	938.759
653.548	950.22
653.6	928.938
653.652	953.486
653.704	990.541
653.755	979.808
653.807	952.902
653.859	946.691
653.91	954.191
653.962	961.948
654.014	978.69
654.066	967.928
654.117	964.201
654.169	958.376
654.221	969.73
654.273	975.286
654.324	1001.52
654.376	1000.19
654.428	1001.86
654.48	984.672
654.531	939.703
654.583	992.562
654.635	1008.32
654.686	1018.21
654.738	997.445
654.79	1005.22
654.842	995.191
654.893	1006.27
654.945	1018.84
654.997	987.896
655.049	1011.07
655.1	999.508
655.152	1009.04
655.204	1003.7
655.255	995.55
655.307	1021.96
655.359	1021.05
655.411	1019.63
655.462	1042.77
655.514	1026.96
655.566	1020.5
655.618	1017.57
655.669	1006.62
655.721	1017.56
655.773	1051.35
655.824	1042
655.876	1018.57
655.928	1028.62
655.98	1039.63
656.031	1056.83
656.083	1050.85
656.135	1026
656.186	1067.11
656.238	1041.07
656.29	1046.57
656.342	1067.33
656.393	1035.57
656.445	1059.53
656.497	1029.37
656.548	1039.51
656.6	1055.54
656.652	1063.46
656.704	1076
656.755	1032.22
656.807	1059.82
656.859	1046.18
656.91	1088.95
656.962	1103.13
657.014	1073.71
657.065	1091.59
657.117	1076.31
657.169	1087.74
657.221	1088.41
657.272	1085.8
657.324	1079.47
657.376	1084.14
657.427	1107.32
657.479	1075.49
657.531	1099.53
657.583	1104.2
657.634	1115.17
657.686	1098.51
657.738	1087.49
657.789	1114.1
657.841	1096.48
657.893	1121.41
657.944	1109.42
657.996	1126.27
658.048	1107.97
658.099	1088.81
658.151	1092.87
658.203	1113.4
658.255	1133.42
658.306	1152.13
658.358	1132.49
658.41	1088.64
658.461	1116.35
658.513	1138.73
658.565	1113.42
658.616	1123.34
658.668	1124.85
658.72	1159.64
658.771	1107.12
658.823	1145.64
658.875	1117.67
658.927	1156.51
658.978	1156.71
659.03	1115.18
659.082	1131.16
659.133	1145.97
659.185	1124.2
659.237	1148.26
659.288	1113.32
659.34	1138.83
659.392	1141.9
659.443	1126.22
659.495	1128
659.547	1128.91
659.598	1151.77
659.65	1126.09
659.702	1152.89
659.753	1132.35
659.805	1119.1
659.857	1131.58
659.909	1139.41
659.96	1137.83
660.012	1136.75
660.064	1151.47
660.115	1156.47
660.167	1130.74
660.219	1147.61
660.27	1135.8
660.322	1147.09
660.374	1166.56
660.425	1122.93
660.477	1145.57
660.529	1134.86
660.58	1134.34
660.632	1152.14
660.684	1111.43
660.735	1153.1
660.787	1141.05
660.839	1128.25
660.89	1143.47
660.942	1134.96
660.994	1139.56
661.045	1119.1
661.097	1136.78
661.149	1133.59
661.2	1134.58
661.252	1162.85
661.304	1164.04
661.355	1142.28
661.407	1123.22
661.459	1147.78
661.51	1159.12
661.562	1153.47
661.614	1145.13
661.665	1153.19
661.717	1144.61
661.768	1138.86
661.82	1128.27
661.872	1144.34
661.923	1134.03
661.975	1133.73
662.027	1160.14
662.078	1160.29
662.13	1156.43
662.182	1132.5
662.233	1125.04
662.285	1129.09
662.337	1137.72
662.388	1135.48
662.44	1161.86
662.492	1124.13
662.543	1151.46
662.595	1151.5
662.647	1142.5
662.698	1142.22
662.75	1152.87
662.802	1148.76
662.853	1139.4
662.905	1160.02
662.956	1127.95
663.008	1146.15
663.06	1135.46
663.111	1144.85
663.163	1146.71
663.215	1154.49
663.266	1146.14
663.318	1117.27
663.37	1134.72
663.421	1129.77
663.473	1137.84
663.525	1141.46
663.576	1131.97
663.628	1117.78
663.679	1135.38
663.731	1150.84
663.783	1121.55
663.834	1133.04
663.886	1116.75
663.938	1148.04
663.989	1153.62
664.041	1157.62
664.093	1152.77
664.144	1154.08
664.196	1141.71
664.247	1154.73
664.299	1148.62
664.351	1124.75
664.402	1156.56
664.454	1156.07
664.506	1138.98
664.557	1149.02
664.609	1139.17
664.66	1140.98
664.712	1124.76
664.764	1144.41
664.815	1116.06
664.867	1157.28
664.919	1132.95
664.97	1144.17
665.022	1142.28
665.073	1138.69
665.125	1122.98
665.177	1132.08
665.228	1127.12
665.28	1131.25
665.332	1124.78
665.383	1126.11
665.435	1108.74
665.486	1139.87
665.538	1117.13
665.59	1103.38
665.641	1146.89
665.693	1146.03
665.745	1146.15
665.796	1142.96
665.848	1143.36
665.899	1136.18
665.951	1145.17
666.003	1120.54
666.054	1135.44
666.106	1151.79
666.157	1150.06
666.209	1132.05
666.261	1122.37
666.312	1132.36
666.364	1123.66
666.415	1153.94
666.467	1149.24
666.519	1132.1
666.57	1136.43
666.622	1127.39
666.673	1128.31
666.725	1103.51
666.777	1124.66
666.828	1113.3
666.88	1118.84
666.931	1129.92
666.983	1109.05
667.035	1142.11
667.086	1143
667.138	1126.44
667.189	1118.51
667.241	1129.99
667.293	1133.97
667.344	1119.01
667.396	1135.26
667.447	1124.83
667.499	1116.11
667.551	1118.99
667.602	1140.09
667.654	1130.73
667.705	1151.98
667.757	1132.31
667.809	1135.43
667.86	1135.98
667.912	1146.8
667.963	1128.64
668.015	1137.42
668.067	1134.95
668.118	1158.7
668.17	1135.66
668.221	1146.11
668.273	1133.43
668.325	1137.87
668.376	1117.27
668.428	1122.68
668.479	1112.02
668.531	1153.44
668.582	1117.65
668.634	1127.55
668.686	1125.98
668.737	1157.85
668.789	1118.9
668.84	1148.48
668.892	1139.28
668.944	1143.69
668.995	1140.73
669.047	1132.96
669.098	1131.82
669.15	1121
669.201	1142.74
669.253	1118.53
669.305	1136.26
669.356	1151.79
669.408	1143.42
669.459	1136.71
669.511	1126.45
669.562	1127.43
669.614	1148.55
669.666	1134.7
669.717	1137.2
669.769	1133.29
669.82	1122.86
669.872	1118.84
669.923	1113.14
669.975	1136.06
670.027	1148.82
670.078	1156.01
670.13	1144.78
670.181	1140.62
670.233	1130.13
670.284	1156.23
670.336	1112.75
670.388	1156.09
670.439	1115.86
670.491	1148.12
670.542	1133.61
670.594	1162.23
670.645	1131.97
670.697	1104.74
670.748	1135.53
670.8	1163.39
670.852	1124.33
670.903	1140.51
670.955	1152.74
671.006	1127.6
671.058	1117.08
671.109	1150.4
671.161	1131.05
671.212	1128.89
671.264	1137.35
671.316	1149.31
671.367	1122.33
671.419	1133.73
671.47	1147.84
671.522	1143.98
671.573	1135.49
671.625	1154.76
671.676	1128.42
671.728	1135.58
671.78	1160.74
671.831	1132.79
671.883	1142.12
671.934	1120.82
671.986	1149.15
672.037	1155.07
672.089	1137.18
672.14	1141.89
672.192	1149.61
672.243	1142.73
672.295	1149.01
672.347	1124.99
672.398	1138.86
672.45	1133.34
672.501	1132.69
672.553	1110.12
672.604	1127.28
672.656	1144.03
672.707	1172.54
672.759	1159.61
672.81	1168.9
672.862	1155.3
672.913	1162.28
672.965	1142.81
673.017	1161.57
673.068	1159.28
673.12	1140.9
673.171	1169.39
673.223	1173.87
673.274	1147.49
673.326	1153.04
673.377	1171.46
673.429	1155.78
673.48	1163.46
673.532	1169.06
673.583	1172.13
673.635	1183.94
673.686	1174.08
673.738	1174.34
673.789	1177.12
673.841	1163.25
673.893	1158.74
673.944	1179.75
673.996	1188.48
674.047	1187.28
674.099	1172.49
674.15	1173.5
674.202	1181.3
674.253	1180.82
674.305	1174.99
674.356	1180
674.408	1182.32
674.459	1198.47
674.511	1178.19
674.562	1177.38
674.614	1203.07
674.665	1214.47
674.717	1194.67
674.768	1186.86
674.82	1185.67
674.871	1186.91
674.923	1181.68
674.974	1192.5
675.026	1198.14
675.077	1208.13
675.129	1218.72
675.18	1193.31
675.232	1196.94
675.284	1222.91
675.335	1204.33
675.387	1197.1
675.438	1188.53
675.49	1186.4
675.541	1198.9
675.593	1196.06
675.644	1192.68
675.696	1209.48
675.747	1215.73
675.799	1201.33
675.85	1194.46
675.902	1210.42
675.953	1204.05
676.005	1205.35
676.056	1208.67
676.108	1216.67
676.159	1215.81
676.211	1201.49
676.262	1211.25
676.314	1206.68
676.365	1220.94
676.417	1206.33
676.468	1207.14
676.52	1216.06
676.571	1219.89
676.623	1206.31
676.674	1204.46
676.726	1212.27
676.777	1220.97
676.828	1223.31
676.88	1226.26
676.932	1228.4
676.983	1225.51
677.034	1215.86
677.086	1229.46
677.137	1227.74
677.189	1212.47
677.24	1214.79
677.292	1224.13
677.343	1238.39
677.395	1219.66
677.446	1201.92
677.498	1220.04
677.549	1240.81
677.601	1229.32
677.652	1224.08
677.704	1236.43
677.755	1221.45
677.807	1230.39
677.858	1233.52
677.91	1190.62
677.961	1194.45
678.013	1215.36
678.064	1210.47
678.116	1209.85
678.167	1235.77
678.219	1265.29
678.27	1227.91
678.322	1204.62
678.373	1226.54
678.424	1218.37
678.476	1222.16
678.527	1227.69
678.579	1209.71
678.63	1207.54
678.682	1201.44
678.733	1206.32
678.785	1222.09
678.836	1204.58
678.888	1205.44
678.939	1209.79
678.991	1234.07
679.042	1236.27
679.094	1207.15
679.122	1206.09
679.173	1210.16
679.225	1232.21
679.277	1202.45
679.328	1212.42
679.38	1226.35
679.432	1233.97
679.483	1259.88
679.535	1179.57
679.586	1207.09
679.638	1265.63
679.69	1224.64
679.741	1246.2
679.793	1232.82
679.844	1211.81
679.896	1241.12
679.948	1204.53
679.999	1243.73
680.051	1224.91
680.103	1208.5
680.154	1225.96
680.206	1202.53
680.257	1260.39
680.309	1216.57
680.361	1226.27
680.412	1260.97
680.464	1227.99
680.515	1245.69
680.567	1214.43
680.619	1249.92
680.67	1239.2
680.722	1227.89
680.773	1260.13
680.825	1211.49
680.877	1261.34
680.928	1229.19
680.98	1223.9
681.031	1257.7
681.083	1259.03
681.135	1217.22
681.186	1229.51
681.238	1215.3
681.289	1233.72
681.341	1274.29
681.393	1255.28
681.444	1278.73
681.496	1222.31
681.547	1230.85
681.599	1256.08
681.651	1231.13
681.702	1264.29
681.754	1271.95
681.805	1249.52
681.857	1246.46
681.909	1269.95
681.96	1258.17
682.012	1243.03
682.063	1246.06
682.115	1235.17
682.166	1258.69
682.218	1274.01
682.27	1249.47
682.321	1277.04
682.373	1252.31
682.424	1214.9
682.476	1231.46
682.528	1296.84
682.579	1249.63
682.631	1255.58
682.682	1211.55
682.734	1247.49
682.785	1238.07
682.837	1214.82
682.889	1270.22
682.94	1308.74
682.992	1257.4
683.043	1263.67
683.095	1259.25
683.146	1243.66
683.198	1283.44
683.25	1223.83
683.301	1289.19
683.353	1274.88
683.404	1275.43
683.456	1256.39
683.508	1258.49
683.559	1264.91
683.611	1260.74
683.662	1268.2
683.714	1282.13
683.765	1239.51
683.817	1284.42
683.869	1266.98
683.92	1268.97
683.972	1288.86
684.023	1226.67
684.075	1270.81
684.126	1265.73
684.178	1282.21
684.229	1242.79
684.281	1250.54
684.333	1282.99
684.384	1243.69
684.436	1243.22
684.487	1273.32
684.539	1253.83
684.59	1263.61
684.642	1285.5
684.694	1269.39
684.745	1272.74
684.797	1258.63
684.848	1259.64
684.9	1257.7
684.951	1239.87
685.003	1235.54
685.055	1233.31
685.106	1275.05
685.158	1241.52
685.209	1249.57
685.261	1260.78
685.312	1243.03
685.364	1237.79
685.415	1238.42
685.467	1243.61
685.518	1236.88
685.57	1231.46
685.622	1227.6
685.673	1250.54
685.725	1283.62
685.776	1231.62
685.828	1254.71
685.879	1255.74
685.931	1225.11
685.982	1254.42
686.034	1251.6
686.086	1238.94
686.137	1219.15
686.189	1270.75
686.24	1229.25
686.292	1230.37
686.343	1261.26
686.395	1229.79
686.446	1237.07
686.498	1242.8
686.549	1245.41
686.601	1230.56
686.652	1241.88
686.704	1250.09
686.756	1261.81
686.807	1230.81
686.859	1220.06
686.91	1217.03
686.962	1222.66
687.013	1224.11
687.065	1238.91
687.116	1217.25
687.168	1231.02
687.219	1232.99
687.271	1209.65
687.322	1238.37
687.374	1229.82
687.426	1227.26
687.477	1255.5
687.529	1243.35
687.58	1227.15
687.632	1225.18
687.683	1221.05
687.735	1231.78
687.786	1220.17
687.838	1240.27
687.889	1229.73
687.941	1208.38
687.992	1226.43
688.044	1196.56
688.095	1224.31
688.147	1245.61
688.198	1254.04
688.25	1200.93
688.302	1208.65
688.353	1239.55
688.405	1199.2
688.456	1224.32
688.508	1220.72
688.559	1248.58
688.611	1240.76
688.662	1211
688.714	1225.36
688.765	1235.01
688.817	1215.25
688.868	1190.12
688.92	1239.73
688.971	1213.11
689.023	1213.26
689.074	1221.24
689.126	1213.12
689.177	1229
689.229	1208.69
689.28	1241.9
689.332	1235.87
689.383	1226.84
689.435	1197.04
689.486	1235.1
689.538	1241.82
689.589	1216.73
689.641	1236.36
689.692	1230.26
689.744	1222.69
689.795	1222.87
689.847	1229.27
689.898	1236.15
689.95	1193.77
690.001	1215.2
690.053	1233.29
690.104	1214.26
690.156	1212.41
690.207	1236.44
690.259	1210.04
690.31	1219.34
690.362	1236.79
690.413	1232.49
690.465	1222.6
690.516	1214.67
690.568	1223.61
690.619	1220.52
690.671	1207.11
690.722	1213.74
690.774	1232.93
690.825	1201.48
690.877	1246.11
690.928	1195.81
690.98	1198.25
691.031	1204.11
691.083	1222.79
691.134	1199.68
691.186	1185.82
691.237	1194.76
691.289	1183.68
691.34	1209.29
691.392	1192.44
691.443	1196.41
691.495	1197.94
691.546	1204.78
691.598	1196.16
691.649	1200.71
691.701	1206.94
691.752	1212.51
691.804	1203.05
691.855	1194.6
691.907	1187.33
691.958	1191.11
692.01	1194.33
692.061	1201.51
692.113	1195.4
692.164	1197.47
692.216	1201.08
692.267	1199.45
692.319	1184.27
692.37	1194.54
692.421	1177.67
692.473	1191.5
692.524	1192.73
692.576	1205.65
692.627	1178.51
692.679	1187.99
692.73	1178.68
692.782	1191.65
692.833	1205.1
692.885	1190.49
692.936	1193.99
692.988	1185.85
693.039	1183.03
693.091	1183.28
693.142	1177.47
693.194	1178.56
693.245	1160.49
693.297	1193.07
693.348	1164.99
693.399	1165.15
693.451	1215.12
693.502	1185.72
693.554	1181.87
693.605	1174.26
693.657	1174.05
693.708	1172.46
693.76	1198.07
693.811	1144.08
693.863	1176.06
693.914	1167.55
693.966	1156.73
694.017	1185.87
694.068	1173.59
694.12	1155.73
694.171	1151.17
694.223	1196.56
694.274	1180.04
694.326	1160.83
694.377	1153.72
694.429	1158.72
694.48	1159.35
694.532	1180.21
694.583	1157.91
694.634	1186.17
694.686	1155.09
694.737	1148.02
694.789	1161.83
694.84	1160.43
694.892	1168.41
694.943	1162.98
694.995	1157.44
695.046	1161.51
695.097	1169.17
695.149	1141.39
695.2	1151.59
695.252	1176.84
695.303	1155.41
695.355	1163.64
695.406	1155.31
695.458	1163.02
695.509	1157.97
695.56	1168.18
695.612	1167.25
695.663	1152.93
695.715	1176.78
695.766	1169.46
695.818	1144.42
695.869	1162.69
695.921	1154.43
695.972	1171.31
696.023	1151.94
696.075	1121.43
696.126	1163.97
696.178	1151.23
696.229	1175.51
696.281	1150.76
696.332	1132.16
696.383	1167.35
696.435	1161.35
696.486	1137.21
696.538	1143.02
696.589	1158.73
696.641	1147.94
696.692	1175.86
696.744	1142.79
696.795	1138.2
696.846	1147.44
696.898	1159.81
696.949	1130.74
697.001	1149.66
697.052	1150.75
697.104	1146.17
697.155	1160.88
697.206	1132.31
697.258	1130.52
697.309	1144.41
697.361	1149.44
697.412	1140.97
697.463	1142.81
697.515	1128.79
697.566	1140.92
697.618	1109.99
697.669	1129.67
697.721	1150.29
697.772	1137.53
697.823	1136.92
697.875	1109.51
697.926	1147.95
697.978	1118.58
698.029	1090.7
698.08	1102.73
698.132	1108.39
698.183	1133.63
698.235	1096.31
698.286	1128.82
698.338	1124.77
698.389	1121.62
698.44	1130.76
698.492	1136.46
698.543	1127.68
698.595	1123.15
698.646	1113.93
698.697	1129.8
698.749	1128.26
698.8	1099.39
698.852	1127.57
698.903	1115.75
698.954	1122.19
699.006	1124.77
699.057	1125.1
699.109	1128.57
699.16	1103.97
699.211	1115.73
699.263	1113.47
699.314	1105.03
699.366	1102.79
699.417	1124.21
699.468	1127.59
699.52	1093.23
699.571	1105.77
699.623	1104.75
699.674	1116
699.725	1100.38
699.777	1096.45
699.828	1097.61
699.88	1102.12
699.931	1127.82
699.982	1116.03
700.034	1124.43
700.085	1099.16
700.137	1103.61
700.188	1079.27
700.239	1096.64
700.291	1121.32
700.342	1113.65
700.393	1102.65
700.445	1118.82
700.496	1117.73
700.548	1101.87
700.599	1099.14
700.65	1093
700.702	1093.09
700.753	1104.18
700.805	1098.9
700.856	1094.21
700.907	1100
700.959	1114.13
701.01	1095.23
701.061	1098.1
701.113	1102.92
701.164	1117.86
701.216	1104.34
701.267	1088.35
701.318	1113.66
701.37	1130.37
701.421	1097.86
701.472	1083.05
701.524	1092.53
701.575	1090.49
701.627	1077.7
701.678	1096.3
701.729	1114.52
701.781	1116.42
701.832	1086.72
701.883	1081.42
701.935	1092.15
701.986	1094.65
702.038	1100.62
702.089	1096.72
702.14	1097.23
702.192	1085.47
702.243	1076.98
702.294	1070.43
702.346	1072.94
702.397	1099.65
702.448	1091.26
702.5	1082.44
702.551	1087.2
702.603	1087.71
702.654	1079.75
702.705	1076.98
702.757	1102.33
702.808	1104.61
702.859	1094.2
702.911	1102
702.962	1086.76
703.013	1082.06
703.065	1088.75
703.116	1090.39
703.167	1093.95
703.219	1086.58
703.27	1086.52
703.322	1098.13
703.373	1094.95
703.424	1097.65
703.476	1116.11
703.527	1108.94
703.578	1091.9
703.63	1100.49
703.681	1112.34
703.732	1096.96
703.784	1097.18
703.835	1101.42
703.886	1100.52
703.938	1100.95
703.989	1094.83
704.04	1093.79
704.092	1095.37
704.143	1076.03
704.194	1086.59
704.246	1088.19
704.297	1095.69
704.348	1100.57
704.4	1086.8
704.451	1070.67
704.503	1073.73
704.554	1098.86
704.605	1095.97
704.656	1080.6
704.708	1072.44
704.759	1073.75
704.81	1072.54
704.862	1056.32
704.913	1060.43
704.964	1082.71
705.016	1068.83
705.067	1056.31
705.119	1073.76
705.17	1077.15
705.221	1072.73
705.273	1065.98
705.324	1050.63
705.375	1054.56
705.408	1066
705.459	1088
705.511	1074.03
705.562	1082.03
705.614	1076.13
705.665	1056.37
705.717	1080.34
705.768	1042.94
705.82	1080.34
705.871	1062.05
705.923	1075.93
705.974	1064.42
706.026	1033.14
706.077	1054.4
706.129	1046.36
706.18	1058.53
706.232	1074.16
706.283	1052.82
706.335	1038.92
706.386	1069.91
706.438	1060.55
706.489	1071.64
706.541	1018.73
706.592	1051.19
706.643	1067.84
706.695	1065.6
706.746	1022.04
706.798	1038.15
706.849	1017.44
706.901	1032.09
706.952	1030.22
707.004	1022.28
707.055	1038.12
707.107	1053.52
707.158	1009.74
707.21	1029.84
707.261	1029.71
707.313	1045.44
707.364	1061.99
707.416	1028.65
707.467	991.026
707.518	1048.2
707.57	1064.49
707.621	1025.64
707.673	1032.93
707.724	1001.9
707.776	1044.85
707.827	1047.81
707.879	1022.85
707.93	1007.29
707.982	1016.98
708.033	1030.84
708.084	997.038
708.136	1028.04
708.187	1038.71
708.239	1045.09
708.29	1026.63
708.342	1023.9
708.393	1031.18
708.445	998.073
708.496	1039.29
708.548	1021.42
708.599	1002.68
708.651	1018.12
708.702	1026.95
708.753	1032.3
708.805	1054.22
708.856	1024.96
708.908	1033.35
708.959	1022.73
709.011	1038.99
709.062	994.269
709.114	1032.14
709.165	990.988
709.216	1024.8
709.268	984.173
709.319	1039.6
709.371	1022.28
709.422	1041.83
709.474	1018.17
709.525	1001.03
709.577	1009.4
709.628	1024.68
709.679	1011.06
709.731	1034.57
709.782	994.031
709.834	1024.52
709.885	1024.8
709.937	1013.9
709.988	1016.19
710.039	1005.17
710.091	994.338
710.142	1007.57
710.194	1023.76
710.245	994.638
710.297	1004.57
710.348	1024.21
710.4	1009.3
710.451	1007.05
710.502	1008.64
710.554	1006.01
710.605	1016.68
710.657	1048.32
710.708	986.814
710.76	1016.55
710.811	1021.35
710.862	992.467
710.914	975.173
710.965	1023.36
711.017	1010.47
711.068	1014.79
711.12	1014.21
711.171	993.924
711.222	962.548
711.274	988.314
711.325	976.676
711.377	1002.28
711.428	994.504
711.479	1017.09
711.531	984.406
711.582	1003.26
711.634	991.824
711.685	997.25
711.737	994.258
711.788	993.18
711.839	971.933
711.891	996.695
711.942	987.737
711.994	976.034
712.045	984.082
712.096	986.143
712.148	962.372
712.199	990.87
712.251	970.496
712.302	993.305
712.354	986.723
712.405	980.931
712.456	979.762
712.508	979.834
712.559	992.689
712.611	974.648
712.662	980.376
712.713	978.755
712.765	936.581
712.816	981.32
712.868	977.105
712.919	973.635
712.97	957.525
713.022	985.288
713.073	970.349
713.125	950.381
713.176	953.151
713.227	936.652
713.279	967.804
713.33	949.346
713.382	949.661
713.433	951.302
713.484	955.327
713.536	958.67
713.587	958.679
713.639	984.379
713.69	953.615
713.741	956.47
713.793	958.295
713.844	948.095
713.896	944.568
713.947	968.126
713.998	943.026
714.05	934.672
714.101	950.22
714.153	928.745
714.204	933.776
714.255	938.74
714.307	931.43
714.358	944.616
714.41	927.518
714.461	934.729
714.512	928.042
714.564	910.39
714.615	937.875
714.666	938.518
714.718	942.32
714.769	943.682
714.821	945.899
714.872	934.291
714.923	922.254
714.975	927.394
715.026	924.198
715.078	922.854
715.129	932.689
715.18	944.832
715.232	915.049
715.283	895.759
715.334	930.366
715.386	923.324
715.437	924.156
715.489	916.834
715.54	913.777
715.591	930.019
715.643	919.064
715.694	920.907
715.745	904.004
715.797	890.967
715.848	869.806
715.9	909.83
715.951	912.375
716.002	895.201
716.054	904.525
716.105	894.119
716.156	932.925
716.208	908.074
716.259	912.717
716.31	924.574
716.362	914.778
716.413	900.086
716.465	914.186
716.516	912.734
716.567	892.174
716.619	904.985
716.67	895.522
716.721	924.593
716.773	920.493
716.824	913.173
716.875	896.79
716.927	898.914
716.978	892.97
717.03	913.862
717.081	902.259
717.132	897.611
717.184	917.14
717.235	895.089
717.286	881.32
717.338	902.248
717.389	892.566
717.44	877.953
717.492	897.616
717.543	904.653
717.594	894.128
717.646	879.275
717.697	904.313
717.749	889.744
717.8	891.759
717.851	885.284
717.903	896.2
717.954	911.336
718.005	876.68
718.057	898.145
718.108	880.345
718.159	885.567
718.211	901.938
718.262	874.735
718.313	896.404
718.365	902.307
718.416	871.354
718.467	867.204
718.519	876.751
718.57	878.25
718.621	877.274
718.673	893.544
718.724	892.299
718.775	870.847
718.827	857.398
718.878	850.073
718.93	868.584
718.981	852.923
719.032	868.168
719.083	867.893
719.135	874.695
719.186	868.492
719.237	876.369
719.289	859.873
719.34	870.522
719.391	878.464
719.443	877.864
719.494	856.595
719.545	872.124
719.597	870.877
719.648	872.079
719.699	849.116
719.751	865.484
719.802	866.021
719.853	853.553
719.905	853.619
719.956	845.894
720.007	854.589
720.059	858.88
720.11	862.868
720.161	858.823
720.213	853.512
720.264	851.76
720.315	870.969
720.367	846.594
720.418	840.15
720.469	859.699
720.521	845.936
720.572	854.824
720.623	850.798
720.675	840.012
720.726	832.575
720.777	866.361
720.829	847.568
720.88	821.799
720.931	818.753
720.982	821.116
721.034	844.832
721.085	854.962
721.136	850.158
721.188	827.781
721.239	829.078
721.29	844.526
721.342	840.244
721.393	842.696
721.444	831.511
721.496	839.558
721.547	834.35
721.598	851.388
721.65	842.297
721.701	832.889
721.752	808.747
721.803	814.675
721.855	816.23
721.906	822.569
721.957	830.511
722.009	820.095
722.06	817.384
722.111	831.976
722.163	828.531
722.214	824.626
722.265	812.608
722.316	816.322
722.368	819.558
722.419	829.814
722.47	824.425
722.522	816.788
722.573	811.731
722.624	812.391
722.676	807.924
722.727	809.232
722.778	816.485
722.829	804.138
722.881	794.189
722.932	811.468
722.983	808.654
723.035	806.618
723.086	806.74
723.137	805.924
723.188	785.971
723.24	811.155
723.291	820.925
723.342	816.902
723.394	806.482
723.445	807.553
723.496	810.419
723.547	808.973
723.599	786.127
723.65	805.42
723.701	804.714
723.753	799.62
723.804	787.273
723.855	791.885
723.906	788.037
723.958	788.108
724.009	796.82
724.06	794.248
724.112	789.631
724.163	777.933
724.214	782.987
724.265	801.682
724.317	792.79
724.368	779.501
724.419	783.583
724.47	783.526
724.522	793.177
724.573	781.371
724.624	779.281
724.676	806.062
724.727	790.286
724.778	780.06
724.829	776.42
724.881	788.157
724.932	793.794
724.983	798
725.034	794.746
725.086	783.032
725.137	781.754
725.188	780.28
725.24	768.018
725.291	779.067
725.342	779.663
725.393	789.353
725.445	782.009
725.496	784.103
725.547	790.674
725.598	770.893
725.65	785.642
725.701	770.802
725.752	774.666
725.803	770.879
725.855	791.017
725.906	776.415
725.957	768.854
726.008	784.541
726.06	780.593
726.111	756.459
726.162	775.002
726.213	775.99
726.265	774.113
726.316	759.449
726.367	756.619
726.418	758.495
726.47	767.695
726.521	773.734
726.572	767.154
726.623	751.075
726.675	759.712
726.726	772.789
726.777	766.127
726.828	779.922
726.88	771.637
726.931	774.053
726.982	753.809
727.033	759.841
727.085	749.89
727.136	747.166
727.187	736.852
727.238	725.298
727.29	762.291
727.341	768.721
727.392	760.865
727.443	746.418
727.495	749.676
727.546	734.814
727.597	734.69
727.648	750.615
727.7	753.598
727.751	729.517
727.802	751.331
727.853	749.757
727.904	732.575
727.956	737.104
728.007	730.477
728.058	750.621
728.109	736.727
728.161	731.229
728.212	719.41
728.263	743.049
728.314	748.046
728.366	732.02
728.417	741.166
728.468	730.795
728.519	736.401
728.57	720.917
728.622	718.951
728.673	727.085
728.724	725.435
728.775	726.302
728.827	726.338
728.878	733.355
728.929	739.169
728.98	713.794
729.031	715.464
729.083	725.232
729.134	728.33
729.185	719.594
729.236	707.441
729.288	709.459
729.339	707.146
729.39	708.598
729.441	713.987
729.492	687.491
729.544	723.178
729.595	708.248
729.646	712.608
729.697	690.663
729.748	717.71
729.8	710.852
729.851	694.057
729.902	706.57
729.953	703.024
730.004	696.891
730.056	706.439
730.107	698.498
730.158	718.953
730.209	700.963
730.26	707.653
730.312	718.377
730.363	705.959
730.414	687.057
730.465	686.572
730.517	692.742
730.568	694.164
730.619	673.553
730.67	667.176
730.721	670.942
730.773	677.622
730.824	675.957
730.875	696.698
730.926	724.764
730.977	703.16
731.029	691.596
731.08	673.853
731.131	701.984
731.182	704.834
731.233	657.137
731.284	678.463
731.336	695.413
731.387	676.152
731.438	672.115
731.489	686.074
731.54	680.042
731.592	682.074
731.643	668.087
731.643	668
731.694	660
731.746	670
731.797	666.034
731.848	664.072
731.9	674.113
731.951	668.151
732.002	672.188
732.054	668.354
732.105	676.237
732.156	648.615
732.208	672.366
732.259	668.226
732.311	662.604
732.362	674.648
732.413	666.582
732.465	654.606
732.516	646.985
732.567	659.103
732.619	676.13
732.67	662.822
732.721	672.236
732.773	656.019
732.824	663.818
732.875	654.623
732.927	670.826
732.978	679.217
733.029	665.791
733.081	640.418
733.132	669.344
733.183	651.188
733.235	682.161
733.286	667.067
733.337	647.448
733.389	650.837
733.44	649.323
733.491	615.397
733.543	653.903
733.594	671.284
733.645	670.4
733.697	627.406
733.748	662.082
733.799	647.349
733.851	666.189
733.902	637.263
733.953	653.306
734.005	661.64
734.056	650.216
734.107	662.482
734.158	666.258
734.21	665.059
734.261	643.986
734.312	630.997
734.364	669.112
734.415	629.916
734.466	637.785
734.518	670.732
734.569	655.747
734.62	643.151
734.672	645.327
734.723	619.56
734.774	669.626
734.826	640.695
734.877	616.767
734.928	643.111
734.98	636.809
735.031	654.497
735.082	636.931
735.133	622.292
735.185	639.498
735.236	639.428
735.287	674.429
735.339	647.441
735.39	664.291
735.441	638.446
735.493	655.2
735.544	641.868
735.595	633.033
735.647	650.731
735.698	625.867
735.749	648.18
735.8	646.252
735.852	648.575
735.903	622.983
735.954	637.679
736.006	634.459
736.057	649.61
736.108	642.967
736.16	618.013
736.211	632.971
736.262	644.936
736.313	633.445
736.365	655.792
736.416	653.319
736.467	636.026
736.519	614.375
736.57	633.739
736.621	654.778
736.673	653.905
736.724	636.565
736.775	631.875
736.826	647.654
736.878	639.66
736.929	632.991
736.98	650.767
737.032	639.314
737.083	642.352
737.134	635.357
737.185	640.203
737.237	632.779
737.288	667.202
737.339	632.331
737.391	647.199
737.442	653.411
737.493	627.928
737.544	643.604
737.596	640.434
737.647	650.486
737.698	632.535
737.75	636.101
737.801	618.634
737.852	618.502
737.903	646.225
737.955	621.525
738.006	636.171
738.057	643.449
738.109	635.764
738.16	642.372
738.211	633.134
738.262	631.141
738.314	628.533
738.365	637.453
738.416	618.315
738.468	620.327
738.519	646.487
738.57	623.114
738.621	644.365
738.673	650.717
738.724	629.364
738.775	643.498
738.826	613.568
738.878	660.785
738.929	644.515
738.98	650.417
739.031	647.124
739.083	654.344
739.134	639.412
739.185	630.293
739.237	634.34
739.288	616.62
739.339	624.208
739.39	632.234
739.442	628.555
739.493	628.531
739.544	615.737
739.595	618.387
739.647	635.182
739.698	628.754
739.749	620.455
739.8	620.444
739.852	610.267
739.903	616.114
739.954	617.683
740.005	626.923
740.057	621.721
740.108	626.542
740.159	616.255
740.211	607.863
740.262	630.165
740.313	607.119
740.364	608.162
740.416	628.434
740.467	615.409
740.518	631.234
740.569	618.83
740.621	613.67
740.672	612.202
740.723	608.406
740.774	616.48
740.826	614.171
740.877	594.966
740.928	596.89
740.979	617.846
741.031	616.144
741.082	613.366
741.133	593.71
741.184	598.076
741.235	597.497
741.287	622.637
741.338	610.874
741.389	591.377
741.44	603.599
741.492	592.477
741.543	601.199
741.594	605.786
741.645	590.523
741.697	595.907
741.748	596.919
741.799	575.762
741.85	592.803
741.902	588.966
741.953	598.29
742.004	568.191
742.055	586.435
742.107	590.817
742.158	583.065
742.209	589.58
742.26	588.39
742.311	604.617
742.363	593.398
742.414	600.553
742.465	591.452
742.516	586.449
742.568	589.431
742.619	579.192
742.67	574.713
742.721	570.915
742.773	598.413
742.824	582.664
742.875	578.508
742.926	592.368
742.977	576.983
743.029	590.958
743.08	593.396
743.131	583.586
743.182	572.733
743.234	580.909
743.285	576.579
743.336	586.525
743.387	583.03
743.438	586.627
743.49	571.717
743.541	577.976
743.592	586.406
743.643	580.776
743.694	580.593
743.746	579.327
743.797	572.603
743.848	561.706
743.899	571.324
743.951	576.213
744.002	574.161
744.053	570.397
744.104	586.654
744.155	586.155
744.207	562.046
744.258	568.24
744.309	566.126
744.36	551.386
744.411	571.718
744.463	560.299
744.514	557.859
744.565	574.792
744.616	557.702
744.667	555.598
744.719	576.693
744.77	574.626
744.821	576.44
744.872	566.12
744.923	569.376
744.975	562.055
745.026	562.155
745.077	556.068
745.128	561.654
745.179	568.039
745.231	563.928
745.282	558.244
745.333	570.293
745.384	555.152
745.435	555.531
745.487	555.578
745.538	554.167
745.589	566.959
745.64	551.187
745.691	550.915
745.743	539.843
745.794	557.975
745.845	549.757
745.896	534.548
745.947	544.816
745.998	559.305
746.05	545.743
746.101	551.973
746.152	558.668
746.203	546.174
746.254	539.972
746.306	550.033
746.357	545.079
746.408	539.826
746.459	548.361
746.51	543.432
746.562	544.385
746.613	533.335
746.664	543.119
746.715	547.114
746.766	550.014
746.817	548.616
746.869	528.54
746.92	536.121
746.971	532.294
747.022	541.231
747.073	542.2
747.125	537.819
747.176	537.041
747.227	539.655
747.278	541.745
747.329	553.978
747.38	550.29
747.432	543.5
747.483	547.81
747.534	547.92
747.585	543.28
747.636	540.729
747.687	522.081
747.739	533.563
747.79	527.557
747.841	529.74
747.892	542.079
747.943	540.368
747.994	528.783
748.046	521.201
748.097	525.172
748.148	523.953
748.199	546.854
748.25	529.848
748.301	525.136
748.352	532.561
748.404	545.5
748.455	542.499
748.506	552.405
748.557	540.06
748.608	519.616
748.659	522.461
748.711	531.311
748.762	539.953
748.813	536.304
748.864	517.825
748.915	518.024
748.966	545.317
749.018	522.824
749.069	521.001
749.12	512.814
749.171	513.455
749.222	525.943
749.273	513.799
749.324	520.709
749.376	533.272
749.427	521.786
749.478	526.717
749.529	537.957
749.58	515.097
749.631	512.25
749.682	520.104
749.734	525.482
749.785	527.824
749.836	521.009
749.887	509.909
749.938	524.316
749.989	530.828
750.04	525.917
750.092	530.988
750.143	523.937
750.194	519.734
750.245	524.564
750.296	525.124
750.347	525.47
750.398	530.027
750.45	506.56
750.501	511.869
750.552	508.392
750.603	504.175
750.654	526.909
750.705	510.248
750.756	496.738
750.807	520.188
750.859	504.244
750.91	510.027
750.961	532.599
751.012	518.021
751.063	517.052
751.114	499.883
751.165	514.221
751.216	517.012
751.268	522.933
751.319	508.762
751.37	497.193
751.421	507.917
751.472	508.501
751.523	498.597
751.574	503.543
751.625	508.218
751.677	510.269
751.728	511.546
751.779	508.867
751.83	506.266
751.881	494.337
751.932	496.473
751.983	496.628
752.034	498.256
752.086	487.376
752.137	488.434
752.188	497.013
752.239	508.528
752.29	484.421
752.341	494.437
752.392	490.331
752.443	494.638
752.494	495.916
752.546	506.398
752.597	493.973
752.648	485.542
752.699	500.826
752.75	491.832
752.801	487.434
752.852	493.896
752.903	493.071
752.954	477.423
753.005	501.998
753.057	516.049
753.108	496.741
753.159	503.892
753.21	500.38
753.261	486.95
753.312	492.961
753.363	479.919
753.414	492.758
753.465	485.3
753.516	494.023
753.568	478.676
753.619	479.522
753.67	479.292
753.721	495.587
753.772	481.519
753.823	464.429
753.874	493.442
753.925	481.83
753.976	484.426
754.027	470.523
754.079	462.432
754.13	463.059
754.181	493.611
754.232	475.058
754.283	477.779
754.334	476.417
754.385	463.904
754.436	462.239
754.487	474.208
754.538	484.735
754.589	475.368
754.641	468.718
754.692	472.132
754.743	467.371
754.794	472.048
754.845	472.969
754.896	472.556
754.947	481.321
754.998	466.696
755.049	472.904
755.1	473.643
755.151	450.319
755.202	457.784
755.253	452.623
755.305	475.696
755.356	455.953
755.407	464.891
755.458	458.913
755.509	462.045
755.56	466.215
755.611	481.337
755.662	476.408
755.713	452.053
755.764	455.154
755.815	467.2
755.866	474.601
755.917	467.014
755.968	462.172
756.02	458.623
756.071	459.857
756.122	458.799
756.173	449.625
756.224	450.671
756.275	449.14
756.326	457.979
756.377	472.465
756.428	479.587
756.479	452.564
756.53	454.124
756.581	456.75
756.632	450.96
756.683	454.811
756.734	443.794
756.785	448.557
756.837	461.019
756.888	453.397
756.939	462.547
756.99	440.19
757.041	454.866
757.092	450.637
757.143	468.793
757.194	461.488
757.245	461.12
757.296	439.656
757.347	444.707
757.398	437.319
757.449	442.803
757.5	451.217
757.551	458.511
757.602	448.221
757.653	422.31
757.704	414.803
757.755	422.551
757.807	442.448
757.858	445.977
757.909	452.651
757.917	454
757.968	455.986
758.02	451.951
758.071	455.955
758.122	438.037
758.173	443.854
758.224	431.949
758.276	442.098
758.327	420.528
758.378	416.241
758.429	433.848
758.48	408.743
758.532	443.745
758.583	434.365
758.634	438.281
758.685	435.897
758.736	452.829
758.788	433.773
758.839	457.445
758.89	457.585
758.941	417.171
758.992	436.202
759.044	420.496
759.095	445.371
759.146	432.148
759.197	434.037
759.248	453.064
759.3	455.278
759.351	423.886
759.402	424.134
759.453	398.398
759.504	428.406
759.556	414.866
759.607	424.299
759.658	424.447
759.709	439.563
759.76	429.932
759.811	418.18
759.863	418.845
759.914	438.815
759.965	421.911
760.016	418.003
760.067	425.69
760.119	431.273
760.17	417.217
760.221	429.027
760.272	433.571
760.323	420.258
760.375	445.615
760.426	432.917
760.477	430.771
760.528	430.134
760.579	422.777
760.63	406.41
760.682	418.057
760.733	427.335
760.784	424.497
760.835	397.967
760.886	396.727
760.937	410.586
760.989	418
761.04	415.75
761.091	413.52
761.142	414.757
761.193	417.979
761.245	410.515
761.296	417.228
761.347	402.259
761.398	419.596
761.449	413.892
761.5	420.871
761.552	401.981
761.603	400.803
761.654	415.717
761.705	424.415
761.756	389.67
761.807	421.206
761.859	403.429
761.91	409.665
761.961	421.523
762.012	401.008
762.063	408.217
762.114	413.139
762.165	407.436
762.217	394.536
762.268	395.43
762.319	413.996
762.37	397.804
762.421	399.597
762.472	395.272
762.524	400.537
762.575	393.755
762.626	407.73
762.677	394.941
762.728	391.519
762.779	392.29
762.831	412.138
762.882	399.685
762.933	393.553
762.984	385.002
763.035	387.639
763.086	397.354
763.137	388.989
763.189	381.602
763.24	383.698
763.291	393.189
763.342	397.515
763.393	374.829
763.444	410.307
763.495	386.333
763.547	384.089
763.598	396.35
763.649	388.276
763.7	395.582
763.751	404.857
763.802	381.998
763.853	381.669
763.905	394.899
763.956	390.293
764.007	386.052
764.058	388.839
764.109	380.498
764.16	405.332
764.211	385.729
764.263	378.325
764.314	392.375
764.365	388.495
764.416	391.766
764.467	388.68
764.518	387.992
764.569	379.955
764.621	373.579
764.672	395.034
764.723	390.774
764.774	397.12
764.825	384.027
764.876	377.435
764.927	385.538
764.978	388.032
765.03	375.473
765.081	385.962
765.132	370.457
765.183	372.293
765.234	375.317
765.285	372.216
765.336	358.711
765.387	370.05
765.439	371.518
765.49	381.165
765.541	367.801
765.592	372.744
765.643	376.645
765.694	373.842
765.745	378.537
765.796	364.811
765.848	361.661
765.899	380.296
765.95	370.651
766.001	377.078
766.052	373.518
766.103	367.876
766.154	382.788
766.205	371.055
766.256	360.814
766.308	379.701
766.359	373.184
766.41	359.533
766.461	374.213
766.512	375.202
766.563	375.598
766.614	357.57
766.665	369.472
766.716	353.07
766.768	360.021
766.819	361.633
766.87	355.23
766.921	366.742
766.972	371.278
767.023	358.679
767.074	368.839
767.125	361.816
767.176	364.07
767.227	374.903
767.279	350.185
767.33	363.792
767.381	371.807
767.432	355.449
767.483	356.975
767.534	370.509
767.585	349.379
767.636	355.387
767.687	370.606
767.739	360.983
767.79	357.703
767.841	351.446
767.892	373.96
767.943	353.309
767.994	360.41
768.045	354.838
768.096	364.897
768.147	346.928
768.198	357.23
768.249	348.179
768.301	367.499
768.352	345.278
768.403	353.271
768.454	350.358
768.505	344.63
768.556	337.186
768.607	357.555
768.658	349.05
768.709	348.326
768.76	353.812
768.811	353.871
768.862	338.891
768.914	366.465
768.965	345.322
769.016	346.983
769.067	360.014
769.118	353.798
769.169	340.796
769.22	349.139
769.271	340.956
769.322	345.711
769.373	343.568
769.424	348.65
769.475	341.663
769.526	348.044
769.578	343.51
769.629	345.733
769.68	342.024
769.731	357.226
769.782	343.238
769.833	347.751
769.884	344.821
769.935	343.143
769.986	342.826
770.037	328.573
770.088	345.18
770.139	342.645
770.19	338.703
770.242	330.722
770.293	345.319
770.344	341.616
770.395	334.307
770.446	337.135
770.497	338.164
770.548	334.957
770.599	334.157
770.65	314.497
770.701	341.656
770.752	343.275
770.803	328.335
770.854	324.947
770.905	350.82
770.956	344.845
771.007	329.303
771.058	330.971
771.11	318.221
771.161	324.947
771.212	321.16
771.263	334.663
771.314	335.921
771.365	324.155
771.416	324.114
771.467	320.177
771.518	336.548
771.569	327.83
771.62	326.07
771.671	318.29
771.722	328.449
771.773	330.508
771.824	320.183
771.875	320.675
771.926	319.949
771.977	318.35
772.028	322.174
772.079	316.058
772.131	327.35
772.182	320.42
772.233	318.878
772.284	306.092
772.335	320.29
772.386	319.404
772.437	327.146
772.488	304.725
772.539	311.731
772.59	317.386
772.641	307.861
772.692	321.746
772.743	318.553
772.794	311.178
772.845	311.752
772.896	310.617
772.947	318.777
772.998	303.158
773.049	321.663
773.1	313.07
773.151	316.552
773.202	306.213
773.253	314.365
773.304	319.031
773.355	309.911
773.406	315.857
773.457	309.335
773.508	306.264
773.56	311.268
773.611	317.605
773.662	313.162
773.713	315.049
773.764	305.44
773.815	321.926
773.866	315.131
773.917	304.216
773.968	304.703
774.019	299.011
774.07	310.303
774.121	293.346
774.172	303.031
774.223	309.46
774.274	319.644
774.325	299.993
774.376	303.943
774.427	305.081
774.478	309.33
774.529	291.876
774.58	305.547
774.631	304.791
774.682	303.908
774.733	290.324
774.784	303.987
774.835	302.481
774.886	302.635
774.937	298.425
774.988	307.752
775.039	297.834
775.09	298.63
775.141	304.289
775.192	303.18
775.243	299.189
775.294	305.427
775.345	302.66
775.396	295.926
775.447	289.173
775.498	299.426
775.549	305.524
775.6	304.901
775.651	299.531
775.702	299.012
775.753	293.559
775.804	287.476
775.855	295.696
775.906	295.931
775.957	298.309
776.008	291.937
776.059	293.862
776.11	295.856
776.161	284.9
776.212	288.343
776.263	290.805
776.314	286.794
776.365	281.514
776.416	284.181
776.467	283.194
776.518	281.453
776.569	286.636
776.62	287.265
776.671	279.376
776.722	288.465
776.773	293.415
776.824	288.251
776.875	282.626
776.926	286.67
776.977	285.92
777.028	280.629
777.079	285.35
777.13	287.646
777.181	280.513
777.232	280.951
777.283	279.664
777.334	270.434
777.385	272.74
777.436	279.527
777.487	287.947
777.538	285.304
777.589	274.633
777.64	275.982
777.691	281.883
777.742	282.055
777.793	272.54
777.844	277.431
777.895	275.645
777.946	276.007
777.997	279.471
778.047	264.364
778.098	284.709
778.149	274.336
778.2	273.616
778.251	276.864
778.302	274.994
778.353	268.542
778.404	273.576
778.455	273.566
778.506	274.495
778.557	271.822
778.608	271.185
778.659	274.033
778.71	268.149
778.761	266.446
778.812	272.405
778.863	273.6
778.914	259.278
778.965	253.42
779.016	271.358
779.067	276.257
779.118	278.762
779.169	272.247
779.22	265.406
779.271	264.721
779.322	266.479
779.373	264.679
779.424	266.975
779.474	265.741
779.525	270.35
779.576	268.332
779.627	264.772
779.678	263.111
779.729	264.221
779.78	271.127
779.831	267.429
779.882	262.946
779.933	263.094
779.984	266.267
780.035	271.651
780.086	263.643
780.137	264.428
780.188	265.133
780.239	268.41
780.29	268.291
780.341	273.208
780.392	271.418
780.442	269.247
780.493	262.314
780.544	263.541
780.595	270.4
780.646	257.97
780.697	256.045
780.748	257.147
780.799	251.3
780.85	261.609
780.901	266.369
780.952	262.737
781.003	260.476
781.054	258.967
781.105	261.264
781.156	260.174
781.207	264.251
781.257	258.971
781.308	263.484
781.359	257.833
781.41	254.102
781.461	243.389
781.512	242.967
781.563	252.615
781.614	253.354
781.665	259.345
781.716	255.671
781.767	252.707
781.818	256.366
781.869	252.464
781.919	246.275
781.97	250.244
782.021	258.02
782.072	250.243
782.123	244.14
782.174	249.828
782.225	252.224
782.276	244.515
782.327	259.057
782.378	252.061
782.429	237.648
782.48	246.084
782.531	240.94
782.581	239.425
782.632	234.723
782.683	248.665
782.734	252.897
782.785	245.808
782.836	246.902
782.887	238.656
782.938	254.954
782.989	244.711
783.04	243.775
783.091	257.033
783.141	255.769
783.192	239.506
783.243	248.366
783.294	245.76
783.345	228.803
783.396	225.966
783.447	232.75
783.498	235.25
783.549	242.455
783.6	248.418
783.651	233.395
783.701	234.375
783.752	248.464
783.803	234.261
783.854	235.451
783.905	231.369
783.956	228.782
784.007	234.781
784.058	244.239
784.1	226
784.151	253.989
784.202	237.988
784.253	243.915
784.304	226.082
784.355	230.077
784.406	251.87
784.458	233.988
784.509	246.015
784.56	243.934
784.611	228.049
784.662	230.043
784.713	229.841
784.764	239.706
784.815	239.683
784.866	239.736
784.917	247.904
784.968	224.415
785.019	241.57
785.07	229.855
785.121	235.618
785.172	218.214
785.223	221.382
785.274	244.758
785.326	222.391
785.377	233.918
785.428	233.337
785.479	220.348
785.53	226.397
785.581	223.127
785.632	243.101
785.683	241.378
785.734	231.702
785.785	222.013
785.836	221.364
785.887	218.797
785.938	228.038
785.989	245.026
786.04	216.089
786.091	228.138
786.142	222.451
786.193	242.523
786.244	230.937
786.295	215.318
786.346	231.624
786.397	240.235
786.448	230.753
786.5	236.249
786.551	249.866
786.602	226.66
786.653	221.073
786.704	221.751
786.755	215.435
786.806	219.775
786.857	210.474
786.908	213.502
786.959	210.147
787.01	218.427
787.061	223.361
787.112	215.528
787.163	220.125
787.214	212.639
787.265	214.979
787.316	231.506
787.367	234.745
787.418	225.225
787.469	208.262
787.52	220.959
787.571	215.73
787.622	216.397
787.673	220.272
787.724	201.181
787.775	225.423
787.826	216.851
787.877	219.733
787.928	203.404
787.979	217.084
788.03	212.94
788.081	217.53
788.132	204.579
788.183	206.865
788.234	206.64
788.285	204.957
788.336	210.622
788.387	216.301
788.438	214.978
788.49	214.11
788.541	205.984
788.591	223.908
788.643	199.695
788.694	202.386
788.745	223.044
788.796	211.192
788.847	202.724
788.898	211.659
788.949	200.945
789	216.53
789.051	204.103
789.102	212.858
789.153	213.624
789.204	210.076
789.255	210.529
789.306	212.518
789.357	210.796
789.408	208.95
789.459	205.316
789.51	209.399
789.561	209.369
789.612	208.677
789.663	207.52
789.714	208.764
789.765	201.468
789.816	207.818
789.867	207.411
789.918	199.948
789.969	209.566
790.02	220.983
790.071	203.148
790.122	221.217
790.173	203.599
790.224	206.088
790.275	211.239
790.326	191.971
790.377	192.326
790.428	213.61
790.479	199.725
790.53	195.965
790.581	199.247
790.632	209.26
790.682	191.101
790.734	195.749
790.784	193.154
790.836	195.941
790.886	195.072
790.937	210.112
790.988	210.959
791.039	197.82
791.09	196.23
791.141	188.821
791.192	192.557
791.243	200.939
791.294	202.328
791.345	195.359
791.396	203.306
791.447	193.962
791.498	204.097
791.549	198.983
791.6	204.848
791.651	204.524
791.702	199.481
791.753	194.396
791.804	195.411
791.855	186.509
791.906	199.93
791.957	191.877
792.008	198.419
792.059	192.619
792.11	191.701
792.161	200.77
792.212	195.073
792.263	199.651
792.314	185.054
792.365	189.619
792.416	200.912
792.467	189.11
792.518	201.605
792.569	182.586
792.62	186.99
792.671	185.129
792.722	179.874
792.773	188.002
792.823	191.906
792.874	193.135
792.925	194.911
792.976	188.95
793.027	193.528
793.078	192.231
793.129	184.409
793.18	175.27
793.231	196.048
793.282	198.997
793.333	177.912
793.384	175.814
793.435	187.745
793.486	193.691
793.537	177.361
793.588	191.404
793.639	190.54
793.69	176.946
793.741	178.977
793.792	191.501
793.843	189.302
793.894	188.036
793.945	186.418
793.995	183.6
794.046	184.314
794.097	190.96
794.148	179.67
794.199	184.133
794.25	182.358
794.301	176.35
794.352	177.215
794.403	181.107
794.454	188.262
794.505	175.006
794.556	172.203
794.607	180.883
794.658	181.118
794.709	180.283
794.76	172.483
794.811	180.424
794.862	178.319
794.912	180.745
794.963	183.1
795.014	171.938
795.065	177.434
795.116	180.722
795.167	167.96
795.218	183.804
795.269	185.316
795.32	184.698
795.371	181.196
795.422	184.376
795.473	177.678
795.524	181.978
795.575	175.222
795.625	175.926
795.676	179.718
795.727	174.885
795.778	182.799
795.829	163.79
795.88	178.432
795.931	180.967
795.982	180.246
796.033	165.588
796.084	180.986
796.135	174.336
796.186	167.509
796.237	165.351
796.287	164.588
796.338	171.351
796.389	175.504
796.44	169.757
796.491	181.366
796.542	169.92
796.593	178.217
796.644	170.742
796.695	173.366
796.746	170.106
796.797	165.375
796.848	171.358
796.898	179.657
796.949	176.781
797	168.618
797.051	172.631
797.102	169.638
797.153	173.847
797.204	176.709
797.255	174.517
797.306	173.567
797.357	161.503
797.408	158.541
797.458	173.292
797.509	168.656
797.56	168.839
797.611	169.618
797.662	170.66
797.713	175.462
797.764	171.234
797.815	165.796
797.866	166.16
797.917	166.056
797.968	170.745
798.018	167.979
798.069	164.776
798.12	158.827
798.171	156.337
798.222	160.153
798.273	166.973
798.324	170.276
798.375	161.575
798.426	160.31
798.477	168.681
798.527	160.007
798.578	163.636
798.629	162.795
798.68	164.413
798.731	166.632
798.782	157.084
798.833	161.795
798.884	162.938
798.935	168.116
798.985	159.485
799.036	164.745
799.087	166.952
799.138	166
799.189	150.205
799.24	149.885
799.291	163.849
799.342	162.159
799.393	154.245
799.443	166.591
799.494	158.17
799.545	163.965
799.596	158.265
799.647	149.762
799.698	158.414
799.749	158.468
799.8	155.272
799.85	158.2
799.901	152.972
799.952	158.354
800.003	157.49
800.054	163.032
800.105	157.971
800.156	154.702
800.207	150.99
800.257	160.962
800.308	160.065
800.359	152.955
800.41	154.998
800.461	155.134
800.512	160.19
800.563	156.586
800.613	150.296
800.664	145.777
800.715	153.594
800.766	162.312
800.817	162.151
800.868	149.962
800.919	150.342
800.97	146.358
801.02	145.213
801.071	141.839
801.122	158.899
801.173	154.763
801.224	147.657
801.275	149.673
801.326	157.798
801.376	140.637
801.427	153.73
801.478	151.869
801.529	146.385
801.58	148.895
801.631	146.156
801.682	144.459
801.732	149.986
801.783	147.801
801.834	146.243
801.885	145.004
801.936	154.997
801.987	151.074
802.038	150.144
802.088	159.128
802.139	156.441
802.19	146.972
802.241	156.634
802.292	156.714
802.343	144.606
802.393	147.415
802.444	146.885
802.495	150.864
802.546	149.074
802.597	150.471
802.648	146.528
802.698	141.44
802.749	142.445
802.8	145.537
802.851	143.979
802.902	134.219
802.953	145.629
803.004	143.595
803.054	141.608
803.105	140.168
803.156	144.35
803.207	148.918
803.258	142.094
803.309	151.448
803.359	159.36
803.41	136.215
803.461	139.941
803.512	143.75
803.563	145.389
803.614	142.699
803.664	138
803.715	141.646
803.766	145.39
803.817	160.439
803.868	148.993
803.919	136.835
803.969	145.592
804.02	148.702
804.071	137.605
804.122	137.392
804.173	149.31
804.223	138.134
804.274	143.089
804.325	143.779
804.376	133.666
804.427	138.073
804.478	143.933
804.528	136.931
804.579	142.083
804.63	131.293
804.681	147.877
804.732	145.507
804.782	140.795
804.833	132.504
804.884	141.934
804.935	133.284
804.986	141.869
805.036	147.471
805.087	130.877
805.138	136.235
805.189	135.543
805.24	137.819
805.291	143.247
805.341	140.144
805.392	142.196
805.443	139.531
805.494	132.503
805.545	135.368
805.595	151.71
805.646	135.376
805.697	132.616
805.748	128.793
805.799	140.275
805.849	138.24
805.9	132.595
805.951	133.387
806.002	148.115
806.053	127.694
806.103	134.145
806.154	141.96
806.205	131.787
806.256	129.401
806.307	133.977
806.357	141.862
806.408	140.947
806.459	133.281
806.51	135.871
806.561	130.632
806.611	125.734
806.662	129.602
806.713	133.993
806.764	139.529
806.815	134.214
806.865	128.242
806.916	132.482
806.967	132.218
807.018	134.241
807.068	128.309
807.119	129.299
807.17	130.744
807.221	130.45
807.272	135.325
807.322	139.607
807.373	117.867
807.424	122.711
807.475	126.497
807.526	129.135
807.576	134.588
807.627	129.772
807.678	132.755
807.729	126.876
807.779	138.524
807.83	136.604
807.881	120.153
807.932	128.897
807.982	128.953
808.033	132.149
808.084	124.924
808.135	118.478
808.186	120.661
808.236	134.097
808.287	133.601
808.338	134.14
808.389	130.538
808.439	129.869
808.49	128.846
808.541	134.777
808.592	127.585
808.643	126.799
808.693	132.742
808.744	134.961
808.795	132.247
808.846	131.084
808.896	126.187
808.947	128.594
808.998	136.778
809.049	132.815
809.099	121.957
809.15	127.683
809.201	124.988
809.252	125.793
809.302	129.415
809.353	127.121
809.404	131.485
809.455	123.015
809.505	123.637
809.556	131.239
809.607	130.971
809.658	125.988
809.708	124.033
809.759	121.221
809.81	129.402
809.861	127.331
809.911	126.605
809.962	130.532
810.013	131.961
810.064	124.23
810.114	122.583
810.133	124
810.183	124
810.234	120.002
810.285	127.964
810.336	110.05
810.387	120.067
810.438	127.981
810.489	123.95
810.54	123.806
810.591	131.731
810.642	119.984
810.693	120.057
810.743	114.112
810.794	125.99
810.845	125.681
810.896	117.974
810.947	119.661
810.998	125.649
811.049	118.144
811.1	110.53
811.151	104.423
811.202	116.295
811.253	133.525
811.303	119.939
811.354	123.672
811.405	127.647
811.456	119.958
811.507	123.987
811.558	118.563
811.609	112.509
811.66	123.665
811.711	116.441
811.762	123.951
811.813	137.1
811.863	124.266
811.914	122.252
811.965	121.295
812.016	115.975
812.067	115.6
812.118	117.721
812.169	126.836
812.22	121.806
812.271	114.364
812.321	116.109
812.372	110.443
812.423	114.113
812.474	121.593
812.525	113.767
812.576	111.875
812.627	116.238
812.678	111.263
812.729	127.36
812.779	119.744
812.83	118.447
812.881	121.884
812.932	104.665
812.983	117.398
813.034	128.617
813.085	120.058
813.136	111.068
813.187	109.145
813.237	108.442
813.288	115.053
813.339	122.223
813.39	111.006
813.441	121.927
813.492	111.386
813.543	105.394
813.594	108.569
813.644	127.936
813.695	117.629
813.746	111.678
813.797	116.783
813.848	115.489
813.899	108.353
813.95	102.321
814.001	108.353
814.051	109.328
814.102	115.489
814.153	115.136
814.204	113.643
814.255	127.471
814.306	119.716
814.357	98.3451
814.408	108.932
814.458	114.035
814.509	113.239
814.56	109.179
814.611	120.766
814.662	120.144
814.713	120.376
814.764	111.35
814.814	110.921
814.865	105.747
814.916	120.893
814.967	109.286
815.018	103.688
815.069	115.045
815.12	103.523
815.17	112.392
815.221	110.763
815.272	115.024
815.323	100.976
815.374	99.1946
815.425	112.198
815.476	120.375
815.526	108.341
815.577	109.596
815.628	106.77
815.679	115.016
815.73	115.544
815.781	116.975
815.832	107.795
815.882	110.98
815.933	106.751
815.984	108.518
816.035	108.143
816.086	109.721
816.137	108.494
816.188	105.623
816.238	101.956
816.289	113.824
816.34	99.3014
816.391	111.103
816.442	110.096
816.493	116.038
816.543	114.072
816.594	102.445
816.645	107.807
816.696	105.366
816.747	117.094
816.798	105.971
816.848	110.595
816.899	108.934
816.95	106.353
817.001	94.9213
817.052	106.421
817.103	110.201
817.153	103.31
817.204	99.6435
817.255	108.547
817.306	106.427
817.357	103.603
817.408	100.176
817.458	108.063
817.509	105.123
817.56	103.642
817.611	100.573
817.662	105.065
817.713	103.577
817.763	100.423
817.814	106.618
817.865	102.924
817.916	99.7557
817.967	103.016
818.018	111.374
818.068	109.232
818.119	108.59
818.17	102.674
818.221	105.419
818.272	105.52
818.323	111.5
818.373	100.738
818.424	105.133
818.475	110.34
818.526	101.36
818.577	96.9532
818.627	111.892
818.678	97.5492
818.729	104.117
818.78	95.8894
818.831	101.462
818.881	109.591
818.932	108.137
818.983	101.696
819.034	103.569
819.085	104.295
819.135	103.744
819.186	106.581
819.237	101.33
819.288	89.5643
819.339	103.831
819.39	100.468
819.44	99.3474
819.491	104.651
819.542	98.4711
819.593	96.9083
819.644	103.679
819.694	102.364
819.745	104.883
819.796	96.0189
819.847	107.418
819.898	90.108
819.948	103.823
819.999	99.5069
820.05	97.7496
820.101	102.713
820.152	97.4034
820.202	92.674
820.253	100.471
820.304	99.3398
820.355	114.618
820.406	92.8176
820.456	101.191
820.507	103.509
820.558	103.77
820.609	101.214
820.66	100.215
820.71	96.9968
820.761	97.5029
820.812	93.3483
820.863	93.9868
820.914	100.674
820.964	99.6069
821.015	101.233
821.066	94.0488
821.117	99.9192
821.167	97.508
821.218	93.4213
821.269	102.431
821.32	96.502
821.371	101.95
821.421	90.7359
821.472	99.813
821.523	102.76
821.574	93.2274
821.624	103.401
821.675	101.42
821.726	99.8207
821.777	91.7808
821.828	92.0093
821.878	102.407
821.929	99.3096
821.98	98.2022
822.031	94.18
822.081	95.4556
822.132	98.9594
822.183	91.4536
822.234	92.8102
822.285	105.837
822.335	90.1255
822.386	96.9374
822.437	95.3956
822.488	94.0874
822.538	101.441
822.589	90.4337
822.64	81.6983
822.691	97.4573
822.741	101.534
822.792	94.2508
822.843	94.6204
822.894	92.5524
822.945	98.7399
822.995	91.7503
823.046	91.7574
823.097	82.3617
823.148	97.656
823.198	86.1978
823.249	89.0491
823.3	92.0507
823.351	97.0186
823.401	91.9259
823.452	86.0978
823.503	94.0221
823.554	94.988
823.604	86.1879
823.655	91.9628
823.706	87.0132
823.757	95.0854
823.807	85.9161
823.858	92
823.909	93.7846
823.96	92.1022
824.01	94.9374
824.061	98.9053
824.112	92.8605
824.163	87.2231
824.213	93.0292
824.264	91.753
824.315	92.1466
824.366	88.0389
824.416	86.8323
824.467	90.0272
824.518	84.1797
824.569	93.7547
824.619	82.3193
824.67	86.7743
824.721	89.7049
824.772	94.6851
824.822	80.1062
824.873	88.8134
824.924	82.0837
824.974	93.2828
825.025	87.5581
825.076	84.1302
825.127	92.4382
825.177	93.0765
825.228	90.2954
825.279	78.3998
825.33	91.3612
825.38	88.1117
825.431	89.1747
825.482	86.9455
825.533	92.5646
825.583	96.6883
825.634	82.4407
825.685	88.9369
825.735	92.7742
825.786	87.3757
825.837	85.9788
825.888	85.9267
825.938	94.5839
825.989	89.1629
826.04	90.7192
826.091	88.5658
826.141	85.6098
826.192	94.1272
826.243	88.46
826.293	86.8599
826.344	95.4385
826.395	85.5803
826.446	83.7014
826.496	90.3597
826.547	90.8354
826.598	88.8626
826.648	90.178
826.699	90.5523
826.75	86.0915
826.801	91.4686
826.851	82.6363
826.902	83.9597
826.953	87.7866
827.003	90.6182
827.054	89.6354
827.105	86.8917
827.156	94.3703
827.206	86.5482
827.257	83.8451
827.308	88.1113
827.358	84.2287
827.409	87.437
827.46	78.8481
827.511	88.5283
827.561	88.3109
827.612	83.6775
827.663	85.7109
827.713	85.1301
827.764	78.8654
827.815	84.3561
827.865	86.8348
827.916	85.0138
827.967	87.5729
828.018	88.3846
828.068	85.4806
828.119	84.9914
828.17	85.0082
828.22	82.5434
828.271	92.6396
828.322	85.7337
828.372	82.8035
828.423	84.79
828.474	86.8072
828.525	91.5931
828.575	89.24
828.626	80.6477
828.677	84.7225
828.727	81.2917
828.778	82.9875
828.829	79.9174
828.879	80.3859
828.93	77.9846
828.981	79.0174
829.031	86.0296
829.082	85.934
829.133	77.673
829.183	81.0904
829.234	78.9597
829.285	75.8787
829.336	80.6321
829.386	79.839
829.437	84.5972
829.488	83.103
829.538	80.2005
829.589	77.4242
829.64	80.4577
829.69	85.737
829.741	89.0552
829.792	87.4278
829.842	82.4686
829.893	80.9086
829.944	81.6514
829.994	80.4755
830.045	80.9136
830.096	79.3479
830.146	77.0761
830.197	81.0616
830.248	79.7146
830.298	74.5245
830.349	74.5256
830.4	76.0422
830.45	83.6249
830.501	84.0423
830.552	86.9362
830.602	87.3878
830.653	81.5397
830.704	81.0052
830.754	83.3583
830.805	82.9932
830.856	82
830.906	79.0271
830.957	82.8502
831.008	85.3989
831.058	83.1321
831.109	79.0147
831.16	79.5611
831.21	79.5264
831.261	81.698
831.312	77.1824
831.362	76.0548
831.413	74.5612
831.464	73.2991
831.514	78
831.565	77.1643
831.616	80.8645
831.666	77.7668
831.717	76.5321
831.767	81.9601
831.818	79.0861
831.869	78.2466
831.919	79.085
831.97	79.4899
832.021	78.9451
832.071	75.1089
832.122	78.506
832.173	78.5771
832.223	78.2388
832.274	75.8651
832.325	81.2253
832.375	77.4004
832.426	76.3512
832.477	79.614
832.527	75.7078
832.578	78.8377
832.628	78.2246
832.679	72.3209
832.73	75.3196
832.78	77.7322
832.831	78.2779
832.882	77.2657
832.932	72.0991
832.983	72.3122
833.034	76.1519
833.084	75.9185
833.135	76.916
833.185	75.0204
833.236	77.1541
833.287	79.9172
833.337	80.0115
833.388	74.5755
833.439	78.6289
833.489	76.0447
833.54	80
833.59	80.6729
833.641	83.333
833.692	83.9135
833.742	76.2752
833.793	74.1305
833.844	82.4614
833.894	80.6067
833.945	79.7396
833.995	79.7777
834.046	82.576
834.097	74.0521
834.147	80.9063
834.198	76.6027
834.249	72.9484
834.299	72.7969
834.35	83.2529
834.4	74.8641
834.451	76.5245
834.502	78.4592
834.552	79.588
834.603	71.5291
834.653	71.5469
834.704	72.5863
834.755	77.3542
834.805	76.6565
834.856	72.5481
834.906	73.8082
834.957	76.3305
835.008	78.108
835.058	72.4526
835.109	83.8395
835.16	78.9017
835.21	70.4396
835.261	78.2924
835.311	73.9825
835.362	83.6687
835.413	76.0568
835.463	71.545
835.514	75.4774
835.564	74.3776
835.615	76.1233
835.666	74.5969
835.716	71.8652
835.767	76.0427
835.817	72.3734
835.868	79.9139
835.919	79.4502
835.969	77.9726
836.02	78.8287
836.07	79.5233
836.121	71.6079
836.161	78
836.212	76
836.263	66.0039
836.314	70.0048
836.365	68.0437
836.415	85.9004
836.466	68.0033
836.517	68.0699
836.568	73.9431
836.618	81.7471
836.669	72.0006
836.72	79.948
836.771	71.992
836.821	83.8281
836.872	81.9022
836.923	79.8219
836.974	66.081
837.024	77.6967
837.075	77.4251
837.126	73.9318
837.177	73.9039
837.227	79.7952
837.278	71.9134
837.329	71.8962
837.38	77.6478
837.43	77.9118
837.481	83.8578
837.532	76.1486
837.583	81.7145
837.633	67.8659
837.684	71.9422
837.735	68.3464
837.786	75.5268
837.836	69.8443
837.887	65.94
837.938	77.4664
837.989	64.8359
838.039	69.8491
838.09	76.8967
838.141	70.0483
838.192	70.7343
838.242	77.7559
838.293	68.4299
838.344	74.1152
838.395	71.6266
838.445	74.619
838.496	76.9901
838.547	74.1415
838.598	61.2583
838.648	69.2856
838.699	64.477
838.75	77.6125
838.801	71.7924
838.851	74.9197
838.902	70.0792
838.953	73.5759
839.003	67.283
839.054	68.0766
839.105	66.4431
839.156	76.576
839.206	65.9223
839.257	76.2963
839.308	63.7632
839.359	73.4961
839.409	71.7689
839.46	68
839.511	76.7378
839.562	76.7182
839.612	69.5738
839.663	63.929
839.714	75.139
839.764	68.6451
839.815	66.8278
839.866	68.2114
839.917	71.4325
839.967	73.3143
840.018	74.5886
840.069	73.4242
840.119	66.1064
840.17	72.9133
840.221	71.1384
840.272	78.2563
840.322	67.3207
840.373	67.9518
840.424	69.4704
840.474	74.2522
840.525	62
840.576	75.7121
840.627	75.2867
840.677	72.0929
840.728	65.9003
840.779	64.6463
840.829	62.7675
840.88	75.3368
840.931	74.4367
840.982	73.2681
841.032	65.3145
841.083	74.4286
841.134	70.6964
841.184	71.2721
841.235	65.724
841.286	64.8317
841.337	70.0621
841.387	71.8015
841.438	77.4562
841.489	69.5502
841.539	65.8056
841.59	67.5871
841.641	63.4822
841.691	66.6107
841.742	72.7378
841.793	65.7652
841.844	73.1974
841.894	68.9072
841.945	72.4597
841.996	66.4458
842.046	60.4557
842.097	71.4961
842.148	76.1475
842.198	69.8988
842.249	62.7527
842.3	66.991
842.351	65.5284
842.401	72.2997
842.452	70.3924
842.503	68.0358
842.553	70.2773
842.604	70.9805
842.655	63.5263
842.705	61.0412
842.756	68.6729
842.807	65.3629
842.857	65.9036
842.908	64.1712
842.959	73.8188
843.009	71.9257
843.06	68.2029
843.111	63.6989
843.161	67.1605
843.212	71.1593
843.263	67.0606
843.314	65.9591
843.364	70.3316
843.415	66.5121
843.466	70.6261
843.516	69.0886
843.567	68.7609
843.618	75.3813
843.668	59.7845
843.719	66.1199
843.77	68.0282
843.82	60.5358
843.871	66.9883
843.922	67.1726
843.972	72.9399
844.023	62.7082
844.074	71.9592
844.124	69.8815
844.175	72.4212
844.226	63.9847
844.276	70.053
844.327	66.3992
844.378	68.0309
844.428	70.102
844.479	70.6623
844.53	63.387
844.58	71.8683
844.631	66.1641
844.682	72.0278
844.732	61.1248
844.783	66.234
844.834	71.7818
844.884	66.002
844.935	65.3651
844.986	69.7306
845.036	66.8937
845.087	67.613
845.138	60.852
845.188	66.7262
845.239	59.6668
845.29	70.1146
845.34	60.0468
845.391	63.4303
845.442	65.5087
845.492	66.9847
845.543	60.3092
845.594	64.1663
845.644	60.9635
845.695	63.0334
845.745	59.0686
845.796	61.2622
845.847	66.8872
845.897	68.3117
845.948	65.2505
845.999	69.5677
846.049	63.9797
846.1	65.3178
846.151	61.5068
846.201	64.1187
846.252	61.7566
846.303	62.632
846.353	59.9314
846.404	66.1828
846.455	62.2494
846.505	65.7847
846.556	62.2623
846.606	65.9048
846.657	66.4958
846.708	59.0189
846.758	62.6265
846.809	61.6321
846.86	64.0073
846.91	64.601
846.961	64.8187
847.012	64
847.062	58.2119
847.113	62.8721
847.163	57.0618
847.214	69.8452
847.265	62.9447
847.315	64.894
847.366	61.864
847.417	67.2635
847.467	61.3992
847.518	61.8145
847.568	62.8748
847.619	58.5317
847.67	65.1563
847.72	61.2657
847.771	59.7269
847.822	59.5285
847.872	59.3565
847.923	62.8463
847.973	61.774
848.024	63.5772
848.075	59.7092
848.125	64.6763
848.176	63.5011
848.227	58.9256
848.277	62.7779
848.328	61.0652
848.378	64.1252
848.429	59.8826
848.48	60.8464
848.53	64.2995
848.581	58.5773
848.631	58.2678
848.682	57.9217
848.733	61.6414
848.783	59.6125
848.834	65.3508
848.885	62.2289
848.935	63.7731
848.986	59.8652
849.036	60.9883
849.087	65.9657
849.138	58.3034
849.188	65.8821
849.239	64.946
849.289	62.6263
849.34	56.8157
849.391	53.3194
849.441	58.0267
849.492	63.9061
849.542	55.252
849.593	65.0673
849.644	65.138
849.694	70.8172
849.745	61.8888
849.795	59.0663
849.846	64.1088
849.897	56.1248
849.947	61.8699
849.998	62.7137
850.048	59.3455
850.099	67.9897
850.15	59.0795
850.2	57.5402
850.251	61.5597
850.301	64.1827
850.352	56.982
850.403	65.1635
850.453	65.64
850.504	65.7254
850.554	55.1935
850.605	58.8571
850.656	59.2682
850.706	59.8484
850.757	56.2427
850.807	63.181
850.858	61.4391
850.908	54.9358
850.959	59.3237
851.01	60.9854
851.06	67.9525
851.111	60.1255
851.161	56.0762
851.212	64.2923
851.263	61.635
851.313	61.9361
851.364	54.8606
851.414	53.9861
851.465	59.3285
851.515	57.8511
851.566	62.9677
851.617	59.963
851.667	58.2734
851.718	58.2922
851.768	54.3992
851.819	53.6106
851.869	58.6589
851.92	59.5773
851.971	57.2153
852.021	60.9258
852.072	53.8295
852.122	61.5523
852.173	52.4844
852.223	60.8706
852.274	57.1011
852.325	59.2037
852.375	63.0666
852.426	58.5508
852.476	59.2805
852.527	59.5109
852.577	58
852.628	61.9244
852.678	62.9375
852.729	60.5479
852.78	58.7726
852.83	69.9139
852.881	55.8138
852.931	54.9583
852.982	56.4644
853.032	62.1109
853.083	61.1904
853.133	60.3355
853.184	56.2568
853.235	56.7278
853.285	58.6341
853.336	57.9018
853.386	53.8357
853.437	61.8136
853.487	64.6634
853.538	60.1271
853.588	53.1722
853.639	59.5195
853.69	53.5495
853.74	53.9432
853.791	54.7164
853.841	61.4174
853.892	60.2667
853.942	56.9683
853.993	58.4621
854.043	53.9216
854.094	59.5074
854.144	53.8976
854.195	55.7221
854.246	52.37
854.296	57.7068
854.347	62.8358
854.397	60.1435
854.448	57.6566
854.498	63.343
854.549	52.6027
854.599	55.9332
854.65	61.4628
854.7	64.8422
854.751	52.1202
854.801	55.836
854.852	53.7655
854.902	52
854.953	51.5601
855.004	55.0644
855.054	54.9285
855.105	61.5527
855.155	59.8157
855.206	59.1012
855.256	58.9393
855.307	58.2362
855.357	53.4508
855.408	61.513
855.458	61.8847
855.509	58.6075
855.559	53.0542
855.61	57.9091
855.66	58.9238
855.711	60.1128
855.761	53.1075
855.812	60.6001
855.862	60.3296
855.913	59.0176
855.964	57.8433
856.014	57.8852
856.065	58.2583
856.115	58.7266
856.166	52.2901
856.216	54.3177
856.267	58.3836
856.317	60.9505
856.368	56.2231
856.418	57.5195
856.469	54.2544
856.519	56.4325
856.57	52.9476
856.62	58.903
856.671	59.8963
856.721	55.7596
856.772	47.6516
856.822	45.7582
856.873	50.9636
856.923	56.4012
856.974	55.6926
857.024	57.6067
857.075	60.6339
857.125	58.5711
857.176	56.49
857.226	56.1115
857.277	57.9305
857.327	57.1699
857.378	54.2833
857.428	56.0117
857.479	56.6589
857.529	54.3542
857.58	47.8927
857.63	47.5793
857.681	52.1518
857.731	57.1753
857.782	53.0202
857.832	52.7894
857.883	54.2314
857.933	55.0948
857.984	55.7377
858.034	54.9898
858.085	58.4946
858.135	56.0593
858.186	51.0016
858.236	51.7705
858.287	56
858.337	52.3602
858.388	50.2783
858.438	54.2838
858.489	52.6673
858.539	55.8428
858.589	57.5837
858.64	52.9724
858.69	55.0283
858.741	58.9589
858.791	56.4958
858.842	52.7432
858.892	55.9672
858.943	59.5108
858.993	57.3985
859.044	52.3127
859.094	51.6764
859.145	51.3912
859.195	52.6858
859.246	56.1432
859.296	54.9196
859.347	52.0819
859.397	49.131
859.448	52.0733
859.498	56.0476
859.549	56.697
859.599	51.041
859.649	52.6868
859.7	58.8637
859.75	53.3186
859.801	53.9778
859.851	52.3483
859.902	49.3878
859.952	47.9154
860.003	52.0158
860.053	53.1544
860.104	59.0905
860.154	56.9211
860.205	50.1356
860.255	56.3324
860.305	57.0873
860.356	44.3332
860.406	51.0272
860.457	55.4111
860.507	55.9899
860.558	58.012
860.608	53.9371
860.659	49.212
860.709	48.3229
860.76	52.1861
860.81	54.6081
860.861	41.2971
860.911	49.6138
860.961	52.4898
861.012	50.7156
861.062	57.5988
861.113	56.7963
861.163	54.7643
861.214	51.127
861.264	50.4864
861.315	56.7713
861.365	51.9456
861.415	49.0475
861.466	55.9539
861.516	50.9836
861.567	54.4631
861.617	56.9128
861.668	60.2844
861.718	61.2918
861.769	58.5071
861.819	51.8186
861.869	46.1433
861.92	53.1614
861.97	50.7965
862.021	52.7556
862.071	48.4079
862.112	50.0059
862.162	61.9788
862.213	46.0021
862.263	51.9489
862.314	61.8596
862.365	50.0238
862.415	50.029
862.466	51.9167
862.516	53.8546
862.567	49.9485
862.618	53.8026
862.668	55.903
862.719	53.9215
862.77	44.1786
862.82	53.8991
862.871	51.8434
862.921	55.5645
862.972	47.9675
863.023	40.4749
863.073	42.412
863.124	57.714
863.174	53.7359
863.225	49.8747
863.276	55.4249
863.326	55.4524
863.377	46.0994
863.427	44.4384
863.478	55.8206
863.529	53.5929
863.579	47.9603
863.63	55.7085
863.68	55.8886
863.731	51.9781
863.782	47.7883
863.832	51.7611
863.883	53.7042
863.933	51.6488
863.984	57.1144
864.034	47.7786
864.085	53.7861
864.136	57.5142
864.186	57.4416
864.237	53.6594
864.287	57.2427
864.338	57.2155
864.389	49.6452
864.439	48.1826
864.49	46.6483
864.54	55.7157
864.591	59.4211
864.642	49.8152
864.692	54.986
864.743	51.8946
864.793	51.7994
864.844	51.6766
864.894	53.6701
864.945	46.2441
864.996	49.8535
865.046	51.9086
865.097	58.931
865.147	60.9481
865.198	60.5819
865.248	45.04
865.299	50.4317
865.35	53.2456
865.4	51.8304
865.451	46.6926
865.501	61.7792
865.552	53.1651
865.603	61.8679
865.653	43.1418
865.704	51.8419
865.754	58.5769
865.805	43.4476
865.855	49.3712
865.906	48.1222
865.956	57.0528
866.007	54.9539
866.058	40.6795
866.108	47.624
866.159	54.4319
866.209	56.6671
866.26	49.8645
866.31	56.2031
866.361	48.2061
866.412	45.9234
866.462	48.129
866.513	51.9175
866.563	48.3866
866.614	45.3899
866.664	46.7195
866.715	53.7648
866.766	49.5417
866.816	56.1471
866.867	51.3173
866.917	45.4382
866.968	44.6632
867.018	50.3623
867.069	49.8812
867.119	58.3151
867.17	57.3738
867.22	54.0386
867.271	47.8687
867.322	52.5245
867.372	48.4983
867.423	48.1336
867.473	48.6823
867.524	51.8845
867.574	52.9748
867.625	48.7715
867.675	42.2675
867.726	50.9627
867.776	49.8668
867.827	48
867.878	52.5281
867.928	49.4965
867.979	49.5283
868.029	46.6318
868.08	50.9874
868.13	51.1487
868.181	49.6511
868.231	48.7579
868.282	49.9574
868.332	54.7594
868.383	49.0292
868.433	44.8761
868.484	40.5538
868.535	48.9045
868.585	45.7537
868.636	52.6124
868.686	47.1438
868.737	48.7736
868.787	47.8749
868.838	46.1246
868.888	46.8958
868.939	47.7431
868.989	47.6345
869.04	43.8282
869.09	49.46
869.141	53.4648
869.191	47.9283
869.242	48.4633
869.292	48.8889
869.343	48.7646
869.394	51.6448
869.444	50.5673
869.495	53.3148
869.545	52.7377
869.596	46.9138
869.646	46.8034
869.697	48.6292
869.747	50.7806
869.798	48.9757
869.848	45.818
869.899	45.8157
869.949	51.7926
870	44.8116
870.05	37.7342
870.101	45.355
870.151	48.3671
870.202	45.8311
870.252	46.1706
870.303	52.0049
870.353	38.9084
870.404	40.0912
870.454	43.7155
870.505	48.1189
870.555	48.8632
870.606	39.9145
870.656	42.6927
870.707	53.7528
870.757	51.833
870.808	46.8122
870.858	50.5698
870.909	52.2214
870.959	46.7489
871.01	51.2554
871.06	45.5915
871.111	50.4897
871.161	48.5338
871.212	45.1657
871.262	42.7741
871.313	47.0416
871.363	51.1434
871.414	53.0084
871.464	40.2811
871.515	48
871.565	50.538
871.616	42.9396
871.666	46.8805
871.717	51.2572
871.767	50.1807
871.818	45.1644
871.868	45.5479
871.919	48.6121
871.969	49.4269
872.02	44.5648
872.07	45.4805
872.121	42.8018
872.171	43.6568
872.222	47.7502
872.272	41.2769
872.323	47.2286
872.373	51.5874
872.424	48.8782
872.474	46.7645
872.525	48.3666
872.575	44.7788
872.626	47.1911
872.676	49.1862
872.727	56.3527
872.777	43.5542
872.828	39.1785
872.878	45.6146
872.929	47.5174
872.979	50.1341
873.03	47.9451
873.08	51.1316
873.13	49.3032
873.181	44.46
873.231	46.3388
873.282	47.9355
873.332	46.6368
873.383	49.3103
873.433	46.8341
873.484	47.1444
873.534	45.0745
873.585	44.8869
873.635	44.8696
873.686	46.8767
873.736	49.5664
873.787	46.1949
873.837	47.6161
873.888	49.1599
873.938	49.3301
873.988	46
874.039	43.001
874.089	48.6783
874.14	44.7125
874.19	42.5756
874.241	45.1021
874.291	45.9784
874.342	46.3096
874.392	44.8463
874.443	47.4455
874.493	46.8215
874.544	44.5779
874.594	47.4575
874.644	47.9408
874.695	46.179
874.745	47.9185
874.796	49.9065
874.846	42.4061
874.897	47.4193
874.947	48.6213
874.998	42.8495
875.048	43.1508
875.099	44.5472
875.149	46.0156
875.199	48.1389
875.25	44.1654
875.3	45.434
875.351	48.3481
875.401	45.0819
875.452	41.8145
875.502	39.9298
875.553	43.5415
875.603	46.5671
875.653	48.7537
875.704	43.3548
875.754	42.5129
875.805	48.0051
875.855	41.2576
875.906	45.8353
875.956	41.688
876.006	41.5413
876.057	42.0768
876.107	49.7305
876.158	43.04
876.208	46.9503
876.259	44.5614
876.309	44.6454
876.36	48.2253
876.41	44.5271
876.46	39.6805
876.511	50.6305
876.561	48.5987
876.612	45.9591
876.662	39.5144
876.713	45.1151
876.763	39.1586
876.813	45.0952
876.864	46.7815
876.914	49.3624
876.965	45.4309
877.015	42.1878
877.065	40.6526
877.116	45.8391
877.166	42.1783
877.217	46.631
877.267	44.2165
877.318	44.9451
877.368	45.1741
877.418	41.1832
877.469	38.7178
877.519	46.1943
877.57	37.8638
877.62	43.3552
877.671	44.3648
877.721	46.4409
877.771	42.7379
877.822	42.4121
877.872	44.4366
877.923	42.8587
877.973	50.3198
878.023	47.3098
878.074	41.7206
878.124	43.9298
878.175	44.4409
878.225	41.6019
878.276	42.5498
878.326	43.8292
878.376	48.5067
878.427	44.5224
878.477	46.1668
878.528	48.173
878.578	47.4542
878.628	42.9857
878.679	45.6598
878.729	44
878.78	47.1148
878.83	45.2908
878.88	42.1406
878.931	45.3002
878.981	45.1543
879.031	42.0757
879.082	43.3897
879.132	43.9474
879.183	44.6394
879.233	46.6764
879.284	41.8791
879.334	43.2452
879.384	41.1585
879.435	38.6608
879.485	38.6569
879.535	39.9591
879.586	43.5658
879.636	44.5176
879.687	42.837
879.737	45.3626
879.787	47.3679
879.838	47.0673
879.888	46.6888
879.939	46.6525
879.989	44.5529
880.039	40.7719
880.09	43.1516
880.14	47.648
880.19	44.249
880.241	42.0939
880.291	44.0068
880.342	43.2979
880.392	42.5731
880.442	41.7841
880.493	41.4828
880.543	41.1088
880.594	43.3789
880.644	46.236
880.694	50.9242
880.745	47.0804
880.795	40.0306
880.845	42.7749
880.896	36.6982
880.946	40.5981
880.996	38.797
881.047	39.0721
881.097	42.8849
881.148	44.7341
881.198	42.7086
881.248	43.7742
881.299	42.8338
881.349	42.9317
881.399	38.8467
881.45	40.8127
881.5	46.3753
881.551	47.2194
881.601	40.5164
881.651	39.3095
881.702	38.5982
881.752	41.3978
881.802	42.2055
881.853	42.4907
881.903	46.3534
881.953	48.3377
882.004	47.5031
882.054	44.2106
882.104	38.6019
882.155	38.2534
882.205	37.7973
882.256	43.5873
882.306	44.9613
882.356	40.56
882.407	41.4546
882.457	42.6353
882.507	47.1115
882.558	43.9771
882.608	39.467
882.658	39.6401
882.709	45.0876
882.759	45.1648
882.809	42.9213
882.86	42.6437
882.91	46.7202
882.96	46.3699
883.011	43.313
883.061	41.9439
883.111	43.8784
883.162	38.9129
883.212	36.8861
883.262	42.5652
883.313	38.6948
883.363	41.5674
883.413	43.3363
883.464	41.6015
883.514	37.0878
883.565	41.6527
883.615	35.8455
883.665	40.7087
883.716	37.6783
883.766	38.7386
883.816	37.723
883.867	45.5667
883.917	43.5793
883.967	38.4013
884.017	38.3721
884.068	45.9966
884.118	46.8899
884.168	44.1087
884.219	34.6585
884.269	39.9919
884.319	43.4683
884.37	46.6992
884.42	40.3567
884.47	39.0816
884.521	41.4194
884.571	41.2524
884.621	34.8388
884.672	44.257
884.722	43.0193
884.772	38.6921
884.823	38
884.873	38.5941
884.923	42.1449
884.974	37.5537
885.024	39.9675
885.074	41.3176
885.125	43.7156
885.175	42
885.225	39.5792
885.276	38.578
885.326	41.3541
885.376	46.929
885.426	42.0856
885.477	38.9901
885.527	44.0805
885.577	41.7655
885.628	41.579
885.678	42.9499
885.728	42.592
885.779	41.1167
885.829	36.6368
885.879	39.7977
885.93	38.2815
885.98	44.5711
886.03	42.6587
886.08	39.2266
886.131	42.9254
886.181	48.3572
886.231	43.0804
886.282	32.0958
886.332	40.55
886.382	36.4356
886.432	40.6966
886.483	33.1924
886.533	43.4894
886.583	42.4277
886.634	44.8854
886.684	36.4325
886.734	44.0341
886.785	47.3449
886.835	46.7853
886.885	41.0883
886.935	42.2853
886.986	38.6289
887.036	39.3321
887.086	39.5616
887.137	38.6044
887.187	38.5165
887.237	45.7478
887.287	43.8989
887.338	43.9078
887.388	36.2947
887.438	39.6503
887.489	34.2981
887.539	38.1229
887.589	38.0588
887.639	43.7893
887.69	42.0675
887.74	47.7195
887.79	42.0933
887.841	34.2323
887.891	47.5262
887.941	40.2358
887.943	39.971
887.993	43.9764
888.044	43.9456
888.094	40.0191
888.144	43.868
888.195	42
888.245	43.8926
888.296	34.0902
888.346	39.8761
888.397	42.0618
888.447	36.3091
888.498	35.9638
888.548	43.5174
888.599	39.8797
888.649	36.0849
888.699	41.4974
888.75	35.9513
888.8	32.5647
888.851	37.7822
888.901	43.3792
888.952	43.2224
889.002	36.1273
889.053	35.8156
889.103	42.7038
889.153	44.9927
889.204	41.9326
889.254	37.9507
889.305	39.125
889.355	41.2396
889.406	46.6151
889.456	38.9969
889.507	51.8423
889.557	48.7277
889.607	40.8216
889.658	43.3283
889.708	37.8327
889.759	42.7848
889.809	38.38
889.86	34.6773
889.91	42.1591
889.96	41.6556
890.011	39.7269
890.061	42.5625
890.112	42.9782
890.162	36.6777
890.213	35.2526
890.263	38.5972
890.313	44.2938
890.364	42.5521
890.414	43.1618
890.465	31.8415
890.515	41.9205
890.566	37.6556
890.616	39.348
890.666	40.5604
890.717	49.3519
890.767	43.8167
890.818	44.1378
890.868	33.6081
890.919	40.3992
890.969	41.7956
891.019	34.8334
891.07	38.0118
891.12	39.8967
891.171	40.2035
891.221	46.7944
891.271	38.7144
891.322	41.4621
891.372	31.2588
891.423	44.891
891.473	44.7052
891.523	40.087
891.574	37.5887
891.624	42.6649
891.675	35.3515
891.725	49.36
891.776	37.6481
891.826	38.8196
891.876	33.6271
891.927	40.6639
891.977	33.9351
892.028	40.0386
892.078	40.6141
892.128	38
892.179	37.8203
892.229	43.0635
892.28	41.3559
892.33	41.7422
892.38	39.9404
892.431	39.9166
892.481	40.3989
892.532	37.3121
892.582	44.1991
892.632	39.6121
892.683	36.112
892.733	40.6882
892.784	37.7629
892.834	40.2393
892.884	37.8644
892.935	41.3947
892.985	44.4517
893.036	37.5107
893.086	38.1618
893.136	37.8943
893.187	36.7386
893.237	39.372
893.288	35.5776
893.338	35.8405
893.388	42.8165
893.439	42.0331
893.489	35.1987
893.539	44.2656
893.59	42.0411
893.64	39.1149
893.691	38.1012
893.741	36.3113
893.791	41.1489
893.842	43.8646
893.892	37.0798
893.943	36.0507
893.993	39.9867
894.043	35.9783
894.094	35
894.144	36.9952
894.194	35
894.245	39
894.295	38.9952
894.346	36.9831
894.396	39.0121
894.446	34.029
894.497	37.9819
894.547	37
894.597	37.9517
894.648	37.0266
894.698	39
894.749	41.0326
894.799	37.9638
894.849	36.1196
894.9	39.9565
894.95	36.0459
895	40.7029
895.051	34.208
895.101	38
895.151	38
895.202	44.7536
895.252	40.1304
895.303	42.1377
895.353	40
895.403	38.7005
895.454	35.3925
895.504	42.7536
895.554	37.1693
895.605	40.5652
895.655	37.6341
895.706	39.9058
895.756	35.1935
895.806	40.2983
895.857	35.5193
895.907	39.6808
895.957	38.2198
896.008	40
896.058	34.2322
896.108	43.7609
896.159	37
896.209	41.1208
896.259	35.163
896.31	37.6046
896.36	32.4058
896.41	42.4486
896.461	31.8551
896.511	41.1232
896.561	35.5949
896.612	37.5435
896.662	38.3096
896.713	37
896.763	37.3567
896.813	35.9855
896.864	37.4958
896.914	40.1715
896.964	39.3035
897.015	41.8225
897.065	37.1802
897.115	32.1087
897.166	35.6252
897.216	39.2406
897.266	38.3865
897.317	39.5913
897.367	32.7995
897.417	42.3906
897.468	34.4135
897.518	35.4203
897.568	38.9359
897.619	41
897.669	34.8792
897.719	41.8875
897.77	37.9045
897.82	38.3116
897.87	37.7001
897.921	35.2358
897.971	38.2826
898.021	36.4861
898.072	39.0181
898.122	34.2418
898.172	37.4855
898.223	40.231
898.273	39.7763
898.323	42.9504
898.374	38.0592
898.424	32.808
898.474	33.8162
898.524	37.3458
898.575	36
898.625	34.5635
898.675	32.5683
898.726	29.5756
898.776	32.9541
898.826	36.8851
898.877	37.7013
898.927	36.2044
898.977	35.7811
899.028	41.075
899.078	38.243
899.128	36.3712
899.179	36.682
899.229	38.3204
899.279	35.2962
899.33	38.6892
899.38	35.3374
899.43	41
899.48	40.6747
899.531	34.364
899.581	35.6215
899.631	42.3059
899.682	39.4547
899.732	38.2285
899.782	34
899.833	38.3615
899.883	36.364
899.933	37
899.984	35
