#Acq. time (s)=	3
#Accumulations=	2
#Range (nm)=	520...900
#Windows=	16
#Auto scanning=	On
#Autofocus=	Off
#AutoExposure=	Off
#Spike filter=	Multiple accum.
#Delay time (s)=	0
#Binning=	1
#Readout mode=	Signal
#DeNoise=	Off
#ICS correction=	Off
#Dark correction=	Off
#Inst. Process=	Off
#Detector temperature (°C)=	-59.98
#Instrument=	LabRAM HR Evol
#Detector=	Syncerity OE
#Objective=	x50_VIS
#Grating=	600 (500nm)
#ND Filter=	10%
#Laser=	514nm_Edge
#Hole=	199.981
#Range=	Auto
#StageXY=	Marzhauser
#StageZ=	Marzhauser
#X (µm)=	14134.9
#Y (µm)=	-8959.1
#Z (µm)=	-148.3
#Full time(mm:ss)=	2:39
#Project=	
#Sample=	
#Site=	
#Title=	PL_SCD5_121223
#Remark=	
#Date=	21.12.2023 10:03
#Acquired=	21.12.2023 10:03:17
520.042	40
520.094	33.043
520.147	31.227
520.199	33.8137
520.251	28.3419
520.304	31.7951
520.356	27.0524
520.408	29.8393
520.461	36.886
520.513	32.2328
520.565	30.0594
520.618	31.9372
520.67	33
520.723	35.8696
520.775	32.2026
520.827	32.8605
520.88	37.8556
520.932	35.22
520.984	28.0757
521.037	34.6927
521.089	36.0791
521.141	32.2445
521.194	32.0827
521.246	32.915
521.298	34.6554
521.351	32.1791
521.403	29.1816
521.455	37.6275
521.508	33.2829
521.56	30.0966
521.612	31.2934
521.665	38.1907
521.717	34.3073
521.769	30.1048
521.822	30.2119
521.874	34.4587
521.926	33.1094
521.979	30.447
522.031	29.7742
522.083	33.8848
522.136	37.1186
522.188	35.7602
522.24	34.2445
522.293	40.2596
522.345	39.1257
522.397	31.5122
522.45	29.2584
522.502	34.4738
522.554	32.2678
522.607	35.7299
522.659	28.6868
522.711	34.0221
522.764	32.8452
522.816	32.5704
522.868	27.4366
522.921	33.56
522.973	38.702
523.025	31.6054
523.078	34.695
523.13	36.8452
523.182	36
523.234	33.4785
523.287	29.518
523.339	39.5111
523.391	38.6612
523.444	32.1676
523.496	35.8312
523.548	36.6597
523.601	34.6892
523.653	35.8254
523.705	28.3539
523.758	38.1094
523.81	37.1804
523.862	35.5483
523.915	29
523.967	32.6251
524.019	35.8112
524.072	30.5728
524.124	37.0396
524.176	36.5832
524.229	37.4098
524.281	35.3981
524.333	32.4009
524.385	31.2026
524.438	32
524.49	30
524.542	27.6286
524.595	35.3124
524.647	39.4237
524.699	34.6426
524.752	31
524.804	36.1246
524.856	38.4406
524.909	31.4447
524.961	31.2247
525.013	36.319
525.066	40
525.118	33
525.17	33.7672
525.222	38.2343
525.275	36
525.327	34
525.379	35
525.432	35.2433
525.484	40.2631
525.536	32.248
525.589	32.4965
525.641	33.9942
525.693	38
525.745	35
525.798	36.2282
525.85	34.2587
525.902	36
525.955	32.5285
526.007	31.5315
526.059	36.929
526.112	41.7299
526.164	32.0862
526.216	35.1793
526.268	34.2762
526.321	37.4435
526.373	33.1189
526.425	37.1548
526.478	35.8522
526.53	35.4266
526.582	31.2887
526.635	37.8392
526.687	36.1688
526.739	34.2937
526.791	33
526.844	35.7016
526.896	34.3993
526.948	38.303
527.001	30.61
527.053	32.7739
527.105	33.617
527.157	34.6888
527.21	31.3132
527.262	34.6853
527.314	37
527.367	37
527.419	30.2821
527.471	34.7055
527.523	39
527.576	36.9814
527.628	33
527.68	34
527.733	39.993
527.785	34.6783
527.837	30
527.889	38.3193
527.942	35
527.994	36
528.046	32.3462
528.099	37.3015
528.151	35.7016
528.203	35.7063
528.255	30
528.308	37.8601
528.36	35.4359
528.412	31.4435
528.464	34.5455
528.517	34
528.569	41.1643
528.621	39.2142
528.674	30.7436
528.726	37.8776
528.778	36.1281
528.83	36.3485
528.883	38.8998
528.935	38.8531
528.987	42.2317
529.039	36.5478
529.092	29.7786
529.144	38.6096
529.196	33
529.249	33.3946
529.301	30.6026
529.353	36
529.405	40.3963
529.458	35.2098
529.51	31.5937
529.562	37.1842
529.614	34.4615
529.667	31.4126
529.719	30.1725
529.771	34.7517
529.823	34
529.876	31.5245
529.928	32.3077
529.98	39.7238
530.033	36.4277
530.085	33.4289
530.137	36.8625
530.189	37.1329
530.242	31
530.294	37.5629
530.346	32.3201
530.398	33.1142
530.451	36.4452
530.503	31.5524
530.555	37.7949
530.607	32.1958
530.66	36.6399
530.712	35.8228
530.764	32.542
530.816	37.6189
530.869	33.6923
530.921	31.6807
530.973	37.4662
531.025	35.4685
531.078	33.1166
531.13	30.8928
531.182	31.049
531.234	39.0886
531.287	33.8811
531.339	30.5874
531.391	36
531.443	36.4854
531.496	36.4872
531.548	31.4685
531.6	32.0163
531.652	37
531.705	35.5035
531.757	35
531.809	38.4942
531.861	39.5105
531.914	37.5058
531.966	36
532.018	37.528
532.07	39
532.123	34.458
532.175	36.5524
532.227	34.4406
532.279	40
532.332	38.5233
532.384	35.4744
532.436	39.528
532.488	39.8788
532.541	37.7246
532.593	33.8648
532.645	37.6807
532.697	34.3811
532.75	36
532.802	33.9138
532.854	40.4545
532.906	40
532.958	35.1984
533.011	37.8951
533.063	39.8904
533.115	33.6713
533.167	37.4411
533.22	35
533.272	40.5641
533.324	39.7363
533.376	41.7028
533.429	35.1365
533.481	41.7904
533.533	36.8608
533.585	37.7266
533.638	35.8394
533.69	38
533.742	36.9098
533.794	40.2912
533.846	35.3907
533.899	38.7729
533.951	40.9569
534.003	38.9408
534.055	38.8314
534.108	42.7211
534.16	37.549
534.212	39.4236
534.264	38.635
534.316	40
534.369	41.433
534.421	37.4059
534.473	35.9104
534.525	42.7304
534.578	41.9183
534.63	42.9471
534.682	35.5674
534.734	40.0043
534.786	40.1237
534.839	37.021
534.891	36
534.943	40.7508
534.995	41.9316
535.047	42.2285
535.1	41.965
535.152	46.1989
535.204	40.6746
535.256	41.1397
535.309	40.8415
535.361	40.6982
535.413	42.9039
535.465	36.7085
535.517	38.3733
535.57	40.5204
535.622	45.7176
535.674	41.1791
535.726	35.1871
535.778	39.1916
535.831	45.1664
535.883	42.3675
535.935	42.4278
535.987	43.5556
536.039	44.0199
536.092	42.4489
536.144	38.4551
536.196	39.5292
536.248	40.7664
536.301	35.6287
536.353	35.9611
536.405	37.2972
536.457	43.9606
536.509	41.2217
536.562	37.0884
536.614	42.3606
536.666	43.2088
536.718	42.4995
536.77	35.8126
536.823	41.4834
536.875	41.8963
536.927	35.8179
536.979	40.6945
537.031	41.2407
537.083	47.0666
537.136	41.6721
537.188	35.8788
537.24	40.4033
537.292	45.2407
537.344	36.5207
537.397	40.8234
537.449	42.6106
537.501	44
537.553	40.0276
537.605	35.1196
537.658	39.6851
537.71	41.6897
537.762	37.3643
537.814	37.9679
537.866	42.2575
537.919	43.6887
537.971	36.7936
538.023	42.2152
538.075	40.6059
538.127	42.7548
538.18	38.0802
538.232	40.8881
538.284	44.4868
538.336	41.3019
538.388	33.8382
538.44	38.2007
538.493	44.483
538.545	43.6692
538.597	40.5726
538.649	43.5373
538.701	41.4237
538.754	43.7191
538.806	38.8622
538.858	40.9114
538.91	41.9769
538.962	44.1109
539.014	36.9765
539.067	48.5734
539.119	46.2916
539.171	47.4979
539.223	41.3215
539.275	39.207
539.327	45.4201
539.38	41.357
539.432	32.7083
539.484	40.9451
539.536	40
539.588	39.7725
539.641	36.2654
539.693	34.9101
539.745	42.2133
539.797	41.4814
539.849	39.0886
539.901	37.6051
539.954	44.599
540.006	40
540.058	38.8096
540.11	47.6031
540.162	43.419
540.214	39.7371
540.267	45.5166
540.319	46.2586
540.371	51.9603
540.423	42.8152
540.475	34.2673
540.527	38.7156
540.58	45.9531
540.632	39.2522
540.684	41.8731
540.736	47.6332
540.788	44.5795
540.84	40.8806
540.892	39.5636
540.945	41.299
540.997	45.995
541.049	48.6359
541.101	35.3969
541.153	38.8711
541.205	45.5521
541.258	42.2453
541.31	44.1799
541.362	38.3533
541.414	43.0227
541.466	45.8913
541.518	44.4948
541.57	46.3855
541.623	46.4683
541.675	39.2446
541.727	40.4464
541.779	48.3654
541.831	38.8961
541.883	41.3578
541.936	29.613
541.988	45.8647
542.04	50.0462
542.092	44.4871
542.144	42.9674
542.196	40.1687
542.248	47.1051
542.301	48.5797
542.353	45.5872
542.405	43.2133
542.457	39.4173
542.509	45.3069
542.561	43.3216
542.613	47.3618
542.666	45.9822
542.718	43.7006
542.77	44.0358
542.822	49.0953
542.874	40.5853
542.926	48.8449
542.978	50.2798
543.031	46.0201
543.083	46.6238
543.135	44.9478
543.187	43.1054
543.239	42.5205
543.291	50.8116
543.343	44.147
543.396	44.2485
543.448	48.1503
543.5	50.1914
543.552	47.3452
543.604	44.1197
543.656	48.3297
543.708	43.1055
543.76	49.2588
543.813	46.5927
543.865	56.8591
543.917	43.331
543.969	47.3126
544.021	46.4998
544.073	40.5009
544.125	53.7998
544.177	53.3527
544.23	49.8613
544.282	49.454
544.334	53.2146
544.386	53.1292
544.438	45.194
544.49	49.0768
544.542	59.1077
544.594	53.5007
544.647	52.3098
544.699	56.3149
544.751	54.0355
544.803	50.0567
544.855	43.3991
544.907	49.0066
544.959	56.7245
545.011	47.2824
545.064	44.4439
545.116	54.071
545.168	52.183
545.22	49.9887
545.272	50.3229
545.324	53.4532
545.376	47.1142
545.428	50.9157
545.48	46.9914
545.533	54.6946
545.585	54.2484
545.637	51.9325
545.689	47.3163
545.741	52.7199
545.793	55.5922
545.845	64.1687
545.897	55.8205
545.949	57.3099
546.002	51.2794
546.054	53.2561
546.106	45.7102
546.158	52.5672
546.21	50.5585
546.262	50.1663
546.314	45.1344
546.366	57.2479
546.418	56.6365
546.471	49.4347
546.523	44.7556
546.575	60.3989
546.627	57.4178
546.679	54.366
546.689	54.0065
546.741	50.0442
546.793	59.9155
546.845	49.9522
546.898	47.9948
546.95	53.9845
547.002	50.0542
547.054	61.8176
547.106	50.0861
547.159	55.9776
547.211	59.8183
547.263	57.7017
547.315	55.7152
547.368	59.7432
547.42	65.6462
547.472	69.5107
547.524	55.9837
547.577	54.1329
547.629	61.6654
547.681	61.4951
547.733	55.9039
547.785	61.9703
547.838	59.944
547.89	65.5567
547.942	61.572
547.994	54.1429
548.047	56.1806
548.099	54.3382
548.151	58.349
548.203	65.734
548.255	59.7939
548.308	61.7315
548.36	54.3336
548.412	65.5739
548.464	67.4163
548.517	61.8502
548.569	58.4033
548.621	62.0261
548.673	68.9038
548.725	61.9672
548.778	51.0497
548.83	65.2745
548.882	68.5137
548.934	65.301
548.987	60.5948
549.039	64.0733
549.091	58.3227
549.143	67.0024
549.195	61.9703
549.248	63.3872
549.3	63.2965
549.352	63.3114
549.404	54.9714
549.456	71.3148
549.509	65.7186
549.561	60.4311
549.613	55.0339
549.665	67.8282
549.718	63.6538
549.77	63.5533
549.822	64.6712
549.874	74.8728
549.926	63.7779
549.979	73.756
550.031	63.7464
550.083	66.6027
550.135	71.1051
550.187	71.3569
550.24	67.912
550.292	70.0958
550.344	70.286
550.396	68.3849
550.448	66.2938
550.501	71.0101
550.553	77.3828
550.605	64.5107
550.657	76.6475
550.709	72.6265
550.762	74.0118
550.814	78.9062
550.866	77.9139
550.918	68.7612
550.97	77.3346
551.023	88.9708
551.075	72.4454
551.127	80.6511
551.179	82.0932
551.231	78.8863
551.284	81.8873
551.336	83.3696
551.388	82.5795
551.44	88.3244
551.492	93.8912
551.545	93.8427
551.597	90.7008
551.649	85.7527
551.701	86.6459
551.753	102.452
551.806	103.761
551.858	110.221
551.91	109.208
551.962	125.154
552.014	129.645
552.067	134.494
552.119	153.904
552.171	169.405
552.223	182.248
552.275	230.351
552.327	271.273
552.38	394.611
552.432	709.686
552.484	1601.98
552.536	3120.62
552.588	5672.58
552.641	9587.51
552.693	12906.2
552.745	9328.96
552.797	4625.09
552.849	1821.79
552.901	736.2
552.954	422.418
553.006	291.905
553.058	229.091
553.11	193.062
553.162	167.278
553.215	149.668
553.267	138.77
553.319	129.016
553.371	117.61
553.423	109.657
553.475	105.417
553.528	95.5379
553.58	103.801
553.632	102.423
553.684	94.635
553.736	91.6787
553.788	94
553.841	88.5087
553.893	101.557
553.945	91.2401
553.997	93.7939
554.049	86.7016
554.102	89.0814
554.154	89.5605
554.206	94.7865
554.258	86.6819
554.31	88.6849
554.362	92.1026
554.414	90.3646
554.467	83.9301
554.519	87.3107
554.571	91.1026
554.623	95.7866
554.675	84.0989
554.727	90.4554
554.78	86.1751
554.832	84.7177
554.884	94.973
554.936	90.1907
554.988	78.2934
555.04	85.9229
555.093	92.9053
555.145	85.9555
555.197	92.8416
555.249	85.819
555.301	90.4215
555.353	84.8151
555.406	91.24
555.458	91.6539
555.51	88.3279
555.562	85.6286
555.614	84.1244
555.666	89.6562
555.719	96.3467
555.771	90.7713
555.823	91.3891
555.875	95.0668
555.927	97.0074
555.979	87.2179
556.031	86.6543
556.084	90.9972
556.136	88.699
556.188	95.3276
556.24	91.9685
556.292	91.5432
556.344	96.5982
556.396	93.8691
556.449	92.3227
556.501	93.1653
556.553	93.5601
556.605	89.0884
556.657	90.4606
556.709	102.002
556.762	95.6979
556.814	94.2507
556.866	83.832
556.918	95.3154
556.97	101.544
557.022	100.322
557.074	90.1408
557.127	95.7061
557.179	102.409
557.231	102.401
557.283	98.6796
557.335	97.5382
557.387	100.548
557.439	101.556
557.492	95.1347
557.544	101.517
557.596	96.765
557.648	89.4433
557.7	97.1971
557.752	92.1587
557.804	109.911
557.856	96.6263
557.909	99.9305
557.961	101.297
558.013	93.9318
558.065	90.7338
558.117	105.384
558.169	99.1303
558.221	100.28
558.273	102.87
558.326	100.892
558.378	99.3154
558.43	106.887
558.482	106
558.534	94.699
558.586	96.9008
558.638	106.479
558.691	108.534
558.743	106.759
558.795	109.277
558.847	106.731
558.899	97.4275
558.951	113.758
559.003	103.852
559.055	103.88
559.108	105.386
559.16	108.227
559.212	107.325
559.264	101.604
559.316	112.823
559.368	114.045
559.42	109.569
559.472	107.833
559.525	119.632
559.577	105.543
559.629	114.906
559.681	113.631
559.733	107.236
559.785	104.246
559.837	112.71
559.889	110.259
559.941	95.3804
559.994	102.438
560.046	113.125
560.098	114.535
560.15	112.145
560.202	117.957
560.254	114.08
560.306	110.168
560.358	118.604
560.41	111.42
560.463	120.412
560.515	118.107
560.567	113.05
560.619	121.922
560.671	117.65
560.723	122.528
560.775	121.152
560.827	115.165
560.879	117.286
560.932	119.801
560.984	118.438
561.036	123.196
561.088	114.154
561.14	118.393
561.192	127.4
561.244	117.909
561.296	116.693
561.348	121.984
561.4	118.799
561.453	117.015
561.505	117.974
561.557	121.675
561.609	125.94
561.661	127.799
561.713	128.751
561.765	127.598
561.817	129.754
561.869	131.764
561.921	128.123
561.974	128.054
562.026	130.032
562.078	131.967
562.13	128.504
562.182	130.587
562.234	119.073
562.286	129.064
562.338	129.956
562.39	131.342
562.442	137.007
562.494	126.434
562.547	135.262
562.599	137.198
562.651	135.775
562.703	138.939
562.755	133.354
562.807	128.511
562.859	127.18
562.911	133.718
562.963	137.336
563.015	131.057
563.067	136.296
563.12	137.583
563.172	128.831
563.224	141.578
563.276	136.881
563.328	142.591
563.38	147.459
563.432	141.439
563.484	137.743
563.536	145.643
563.588	145.815
563.64	133.91
563.692	139.512
563.744	140
563.797	147.035
563.849	148.313
563.901	141.547
563.953	146.889
564.005	138.368
564.057	132.481
564.109	154.334
564.161	151.301
564.213	138.901
564.265	142.504
564.317	143.054
564.369	145.337
564.421	148.285
564.474	151.205
564.526	149.392
564.578	148
564.63	148.968
564.682	149.627
564.734	159.158
564.786	156.653
564.838	154.819
564.89	156.628
564.942	150.436
564.994	154.479
565.046	159.833
565.098	156.244
565.15	158.773
565.202	166.062
565.255	162.43
565.307	162.968
565.359	159.163
565.411	160.814
565.463	150.963
565.515	165.846
565.567	163.85
565.619	160.313
565.671	161.293
565.723	155.829
565.775	162.005
565.827	163.127
565.879	168.959
565.931	164.638
565.983	168
566.035	161.745
566.087	169.021
566.139	162.027
566.192	166.905
566.244	170.77
566.296	176
566.348	174.012
566.4	175.031
566.452	181.718
566.504	172.861
566.556	163.902
566.608	167.537
566.66	169.076
566.712	171.569
566.764	174.032
566.816	175.28
566.868	173.415
566.92	181.071
566.972	181.054
567.024	170.819
567.076	170.219
567.128	180.808
567.18	175.512
567.232	173.813
567.285	185.81
567.337	182.521
567.389	183.08
567.441	180.863
567.493	177.192
567.545	186.668
567.597	188.548
567.649	185.89
567.701	191.116
567.753	194.533
567.805	189.368
567.857	190.531
567.909	183.072
567.961	181.492
568.013	175.769
568.065	182.362
568.117	193.549
568.169	195.064
568.221	193.559
568.273	193.763
568.325	192.405
568.377	188.897
568.429	189.636
568.481	189.478
568.533	192.939
568.585	195.475
568.637	184.739
568.69	189.025
568.742	198.314
568.794	202.469
568.846	203.074
568.898	203.192
568.95	193.642
569.002	200.275
569.054	202.901
569.106	202.721
569.158	202.254
569.21	199.478
569.262	204.49
569.314	206.607
569.366	204
569.418	213.513
569.47	210.835
569.522	209.206
569.574	216.054
569.626	210.693
569.678	212.196
569.73	211.202
569.782	205.839
569.834	208.961
569.886	218.052
569.938	222.499
569.99	228
570.042	226.541
570.094	227.874
570.146	224.996
570.198	220.938
570.25	226.586
570.302	220.422
570.354	218.991
570.406	227.982
570.458	235.432
570.51	226.345
570.562	228.624
570.614	233.77
570.666	233.879
570.718	244.787
570.77	236.273
570.822	241.626
570.874	249.79
570.926	247.243
570.978	249.54
571.03	254.169
571.082	260.582
571.134	263.609
571.186	261.353
571.238	262.826
571.29	258.485
571.342	262.189
571.394	254.363
571.446	257.367
571.498	271.044
571.55	266.537
571.602	259.185
571.654	273.245
571.706	277.248
571.758	269.863
571.81	278.925
571.862	282.101
571.914	286.386
571.966	282.664
572.018	277.606
572.07	288.338
572.122	293.941
572.174	281.365
572.226	288.847
572.278	311.172
572.33	309.114
572.382	314.538
572.434	305.853
572.486	301.732
572.538	319.123
572.59	318.963
572.642	324.754
572.694	333.359
572.746	335.854
572.798	345.822
572.85	348.842
572.902	345.521
572.954	347.402
573.006	349.07
573.058	342.99
573.11	358.195
573.162	367.971
573.214	369.257
573.266	378.596
573.302	393.968
573.355	381.987
573.407	375.943
573.459	378.064
573.511	392.124
573.563	417.708
573.615	400.119
573.667	423.852
573.719	410.248
573.772	437.913
573.824	392.875
573.876	437.526
573.928	449.576
573.98	451.969
574.032	460.032
574.084	466.067
574.136	472.107
574.188	478.224
574.241	488.315
574.293	488.547
574.345	494.562
574.397	495.007
574.449	514.421
574.501	522.442
574.553	555.453
574.605	522.398
574.657	564.445
574.71	557.084
574.762	566.325
574.814	593.359
574.866	592.477
574.918	602.01
574.97	613.381
575.022	603.942
575.074	628.299
575.126	605.41
575.178	648.429
575.231	649.612
575.283	662.065
575.335	686.54
575.387	674.313
575.439	668.42
575.491	695.807
575.543	694.934
575.595	699.099
575.647	693.84
575.7	707.213
575.752	703.917
575.804	695.414
575.856	701.834
575.908	698.889
575.96	714.344
576.012	698.522
576.064	701.652
576.116	694.44
576.168	727.763
576.22	711.747
576.273	690.572
576.325	667.142
576.377	693.572
576.429	699.021
576.481	701.787
576.533	664.445
576.585	663.357
576.637	678.328
576.689	675.665
576.741	645.381
576.793	634.901
576.846	631.886
576.898	624.741
576.95	640.757
577.002	597.867
577.054	631.561
577.106	591.1
577.158	580.969
577.21	586.047
577.262	590.138
577.314	577.073
577.366	579.513
577.418	568.967
577.471	557.746
577.523	558.485
577.575	545.708
577.627	538.305
577.679	532.846
577.731	509.774
577.783	547.112
577.835	531.132
577.887	527.527
577.939	508.593
577.991	513.597
578.043	520.956
578.095	507.743
578.148	502.27
578.2	492.746
578.252	486.991
578.304	500.882
578.356	480.894
578.408	475.466
578.46	470.438
578.512	463.156
578.564	462.351
578.616	465.057
578.668	476.706
578.72	445.594
578.772	466.32
578.824	457.277
578.877	434.225
578.929	467.617
578.981	471.515
579.033	456.73
579.085	451.1
579.137	454.928
579.189	429.414
579.241	444.263
579.293	444.564
579.345	455.17
579.397	445.329
579.449	441.705
579.501	446.707
579.553	444.249
579.605	452.88
579.658	440.39
579.71	458.022
579.762	435.717
579.814	442.716
579.866	452.627
579.918	438.771
579.97	428.467
580.022	441.668
580.074	442.629
580.126	429.334
580.178	432.062
580.23	458.033
580.282	441.088
580.334	444.234
580.386	452.054
580.438	435.947
580.49	448.285
580.542	452.082
580.595	454.714
580.647	440.374
580.699	448.372
580.751	433.079
580.803	462.89
580.855	447.641
580.907	444.696
580.959	456.406
581.011	442.146
581.063	451.635
581.115	431.156
581.167	462.64
581.219	436.952
581.271	446.058
581.323	458.884
581.375	457.328
581.427	456.688
581.479	448.907
581.531	455.345
581.583	454.519
581.635	455.986
581.688	453.578
581.74	468.986
581.792	444.482
581.844	457.364
581.896	483.803
581.948	484.186
582	467.237
582.052	479.148
582.104	465.616
582.156	449.265
582.208	457.187
582.26	497.964
582.312	476.397
582.364	485.972
582.416	473.611
582.468	478.204
582.52	481.584
582.572	480.189
582.624	462.455
582.676	509.561
582.728	474.637
582.78	477.779
582.832	485.701
582.884	478.825
582.936	492.321
582.988	489.88
583.04	502.122
583.092	487.117
583.144	485.779
583.196	497.916
583.249	497.577
583.301	485.71
583.353	525.572
583.405	503.47
583.457	497.861
583.509	492.257
583.561	514.526
583.613	521.357
583.665	490.955
583.717	505.402
583.769	512.772
583.821	528.797
583.873	520.737
583.925	506.552
583.977	527.215
584.029	523.075
584.081	517.63
584.133	533.596
584.185	519.106
584.237	534.135
584.289	525.58
584.341	522.514
584.393	538.789
584.445	541.023
584.497	543.333
584.549	536.022
584.601	546.008
584.653	557.658
584.705	542.843
584.757	543.131
584.809	537.77
584.861	542.343
584.913	554.45
584.965	534.347
585.017	555.729
585.069	554.07
585.121	558.108
585.173	551.441
585.225	564.354
585.277	575.391
585.329	551.241
585.381	573.574
585.433	565.134
585.485	578.313
585.537	577.085
585.589	580.031
585.641	571.625
585.693	586.727
585.745	603.141
585.797	565.37
585.849	567.892
585.901	589.566
585.953	579.511
586.005	590.774
586.057	582.522
586.109	599.822
586.161	618.963
586.213	601.808
586.265	595.379
586.317	609.992
586.369	611.71
586.421	592.678
586.473	603.605
586.525	608.882
586.577	593.088
586.629	602.228
586.681	610.54
586.733	610.304
586.785	627.108
586.837	603.135
586.889	605.877
586.941	618.258
586.993	602.077
587.045	620.86
587.097	629.88
587.149	615.875
587.201	627.414
587.253	614.936
587.305	607.534
587.357	608.864
587.409	629.626
587.461	605.678
587.513	630.519
587.565	599.552
587.617	631.129
587.669	634.382
587.721	614.87
587.773	618.531
587.825	629.621
587.877	635.332
587.929	630.744
587.981	628.905
588.033	644.387
588.085	644.551
588.137	646.595
588.189	639.533
588.241	635.193
588.293	647.448
588.345	645.603
588.397	634.285
588.449	634.148
588.501	634.7
588.552	634.228
588.604	651.318
588.656	642.648
588.708	638.985
588.76	641.816
588.812	635.81
588.864	654.163
588.916	638.159
588.968	637.621
589.02	655.962
589.072	651.745
589.124	667.839
589.176	667.403
589.228	662.25
589.28	662.45
589.332	678.59
589.384	670.893
589.436	657.877
589.488	653.021
589.54	668.762
589.592	678.739
589.644	651.705
589.696	661.846
589.748	657.003
589.8	666
589.852	646.893
589.904	652.84
589.956	673.736
590.008	657.839
590.06	653.237
590.112	645.958
590.163	662.611
590.215	637.998
590.267	653.272
590.319	652.546
590.371	670.493
590.423	654.526
590.475	661.915
590.527	647.235
590.579	657.637
590.631	654.763
590.683	668.247
590.735	647.496
590.787	647.136
590.839	655.133
590.891	651.919
590.943	653.022
590.995	655.044
591.047	646.056
591.099	651.67
591.151	650.388
591.203	655.306
591.254	661.209
591.306	649.891
591.358	644.997
591.41	637.049
591.462	650.152
591.514	644.627
591.566	652.11
591.618	649.833
591.67	660.26
591.722	641.167
591.774	650.279
591.826	653.454
591.878	636.74
591.93	639.953
591.982	639.316
592.034	637.458
592.086	644.705
592.137	642.524
592.189	638.924
592.241	647.063
592.293	648.68
592.345	630.568
592.397	629.352
592.449	635.324
592.501	636.121
592.553	642.87
592.605	641.857
592.657	639.38
592.709	659.579
592.761	646.831
592.813	637.816
592.865	634.727
592.916	623.404
592.968	627.581
593.02	643.852
593.072	646.72
593.124	636.075
593.176	642.521
593.228	635.651
593.28	639.152
593.332	643.482
593.384	628.385
593.436	651.72
593.488	636.711
593.54	642.188
593.591	645.402
593.643	638.021
593.695	636.196
593.747	647.098
593.799	649.849
593.851	652.581
593.903	650.342
593.955	647.952
594.007	641.592
594.059	639.466
594.111	641.18
594.163	644.673
594.215	640.704
594.266	642.056
594.318	634.966
594.37	624.664
594.422	631.229
594.474	638.968
594.526	662.816
594.578	655.985
594.63	651.981
594.682	657.562
594.734	655.126
594.786	654.793
594.837	645.736
594.889	638.813
594.941	654.502
594.993	657.939
595.045	653.787
595.097	662.601
595.149	669.956
595.201	680.667
595.253	685.428
595.305	666.671
595.357	667.222
595.408	672.538
595.46	665.949
595.512	664.204
595.564	668.968
595.616	672.268
595.668	659.209
595.72	667.187
595.772	670.39
595.824	663.934
595.876	671.132
595.927	678.992
595.979	678.554
596.031	689.146
596.083	700.911
596.135	698.645
596.187	682.499
596.239	684.411
596.291	696.098
596.343	697.288
596.394	713.442
596.446	723.072
596.498	713.419
596.55	707.908
596.602	717.602
596.654	717.997
596.706	705.494
596.758	720.084
596.81	729.342
596.862	697.717
596.913	697.75
596.965	708.215
597.017	706.053
597.069	705.868
597.121	703.975
597.173	734.922
597.225	736.483
597.277	726.278
597.328	718.361
597.38	710.271
597.432	713.151
597.484	720.834
597.536	735.882
597.588	736.803
597.64	736.466
597.692	736.459
597.744	718.433
597.795	711.731
597.847	714.998
597.899	711.461
597.951	725.964
598.003	745.102
598.055	741.219
598.107	730.729
598.159	728.48
598.21	728.795
598.262	721.309
598.314	720.179
598.366	718.182
598.418	728.03
598.47	734.504
598.522	722.741
598.574	727.402
598.625	735.661
598.677	742.299
598.729	732.653
598.781	735.863
598.833	755.111
598.885	732.172
598.937	719.813
598.988	729.346
599.04	735.221
599.092	732.945
599.144	734.049
599.196	731.409
599.248	731.13
599.3	733.336
599.352	725.217
599.403	722.951
599.455	720.967
599.507	737.811
599.559	734.468
599.611	737.122
599.663	737.533
599.715	738.079
599.766	748.307
599.803	740.018
599.855	731.989
599.907	724.028
599.959	718.066
600.011	727.996
600.063	789.699
600.115	728.144
600.167	726.107
600.219	751.931
600.271	714.562
600.323	729.942
600.375	709.277
600.427	757.829
600.479	748.357
600.531	747.475
600.583	711.195
600.635	734.266
600.686	720.872
600.738	732.283
600.79	756.458
600.842	753.225
600.894	757.453
600.946	773.829
600.998	732.297
601.05	757.534
601.102	772.982
601.154	759.185
601.206	761.355
601.258	746.219
601.31	742.271
601.362	751.41
601.414	748.585
601.466	745.026
601.518	762.265
601.57	766.125
601.622	737.809
601.674	741.846
601.726	754.461
601.778	753.936
601.83	741.549
601.882	758.621
601.934	759.189
601.986	751.852
602.038	736.578
602.09	744.871
602.142	757.6
602.194	756.004
602.246	736.258
602.298	747.903
602.35	765.042
602.402	788.449
602.454	761.212
602.506	774.905
602.558	766.58
602.61	754.129
602.662	763.683
602.714	758.063
602.766	744.091
602.818	765.81
602.87	752.077
602.922	753.826
602.974	754.454
603.026	764.43
603.078	747.543
603.13	767.49
603.182	760.413
603.234	763.078
603.285	772.624
603.337	760.273
603.389	772.458
603.441	777.816
603.493	769.785
603.545	784.544
603.597	789.763
603.649	753.924
603.701	770.904
603.753	751.349
603.805	781.599
603.857	791.445
603.909	792.23
603.961	783.216
604.013	787.006
604.065	761.942
604.117	780.385
604.169	792.36
604.221	786.44
604.273	783.045
604.325	794.956
604.377	761.635
604.429	799.249
604.481	775.98
604.533	789.927
604.584	776.932
604.636	802.359
604.688	771.248
604.74	781.979
604.792	773.316
604.844	781.816
604.896	773.928
604.948	759.522
605	767.83
605.052	775.768
605.104	792.499
605.156	814.301
605.208	776.383
605.26	765.615
605.312	765.186
605.364	799.923
605.416	793.162
605.468	799.756
605.52	795.019
605.572	762.158
605.623	795.32
605.675	793.647
605.727	787.676
605.779	780.502
605.831	798.47
605.883	758.975
605.935	792.762
605.987	814.479
606.039	791.807
606.091	792.384
606.143	783.224
606.195	770.496
606.247	771.319
606.299	775.707
606.351	803.732
606.403	774.538
606.455	767.102
606.506	788.774
606.558	787.787
606.61	798.988
606.662	788.729
606.714	794.499
606.766	774.743
606.818	782.734
606.87	801.648
606.922	776.554
606.974	795.22
607.026	773.48
607.078	789.218
607.13	784.934
607.182	780.973
607.234	795.511
607.285	801.914
607.337	765.773
607.389	801.234
607.441	803.167
607.493	786.145
607.545	808.913
607.597	792.15
607.649	786.001
607.701	788.478
607.753	795.636
607.805	795.71
607.857	805.826
607.909	787.981
607.96	810.449
608.012	784.821
608.064	788.32
608.116	803.8
608.168	796.906
608.22	795.238
608.272	795.061
608.324	799.083
608.376	799.59
608.428	825.603
608.48	815.742
608.532	818.209
608.583	801.869
608.635	828.776
608.687	816.94
608.739	802.418
608.791	813.641
608.843	803.886
608.895	791.412
608.947	823.439
608.999	812.835
609.051	834.64
609.103	804.576
609.155	825.733
609.206	821.183
609.258	814.806
609.31	825.89
609.362	824.493
609.414	816.95
609.466	799.916
609.518	823.268
609.57	827.551
609.622	840.874
609.674	833.558
609.725	845.24
609.777	840.021
609.829	831.484
609.881	823.166
609.933	833.84
609.985	825.287
610.037	850.493
610.089	835.78
610.141	840.436
610.193	863.799
610.245	835.704
610.296	833.822
610.348	839.335
610.4	826.94
610.452	851.264
610.504	838.276
610.556	845.371
610.608	850.921
610.66	829.483
610.712	834.239
610.763	862.703
610.815	848.26
610.867	828.319
610.919	846.092
610.971	851.853
611.023	845.789
611.075	851.15
611.127	848.676
611.179	854.459
611.23	843.776
611.282	867.002
611.334	845.953
611.386	850.449
611.438	857.736
611.49	858.583
611.542	843.128
611.594	871.008
611.646	859.461
611.697	863.065
611.749	853.987
611.801	839.433
611.853	857.339
611.905	845.611
611.957	852.075
612.009	851.952
612.061	872.099
612.113	856.663
612.164	875.241
612.216	870.774
612.268	875.598
612.32	865.806
612.372	868.33
612.424	881.356
612.476	879.882
612.528	880.542
612.579	880.769
612.631	878.985
612.683	888.226
612.735	891.688
612.787	871.124
612.839	880.942
612.891	876.623
612.943	893.045
612.994	876.571
613.046	886.058
613.098	888.925
613.15	860.954
613.202	858.077
613.254	888.74
613.306	870.475
613.357	891.628
613.409	905.948
613.461	897.44
613.513	890.087
613.565	896.891
613.617	899.52
613.669	897.404
613.721	908.96
613.772	928.041
613.824	904.446
613.876	884.023
613.928	920.954
613.98	915.862
614.032	909.752
614.084	918.26
614.135	921.158
614.187	921.29
614.239	911.207
614.291	925.35
614.343	921.375
614.395	912.383
614.447	908.6
614.498	920.767
614.55	930.931
614.602	923.22
614.654	909.252
614.706	910.521
614.758	943.67
614.81	918.126
614.861	932.537
614.913	944.607
614.965	944.099
615.017	943.497
615.069	930.185
615.121	933.976
615.172	957.687
615.224	944.517
615.276	940.981
615.328	960.122
615.38	936.829
615.432	953.331
615.484	956.597
615.535	946.155
615.587	945.446
615.639	952.793
615.691	952.181
615.743	967.181
615.795	949.166
615.846	957.568
615.898	962.377
615.95	978.983
616.002	972.252
616.054	977.758
616.106	981.814
616.158	978.368
616.209	971.488
616.261	979.423
616.313	957.727
616.365	969.188
616.417	988.634
616.469	982.977
616.52	991.722
616.572	982.076
616.624	996.038
616.676	1002.89
616.728	977.511
616.78	992.187
616.831	991.667
616.883	1013.9
616.935	1003.08
616.987	1005.96
617.039	1027.71
617.091	1002.49
617.142	994.4
617.194	985.784
617.246	1006.53
617.298	1005.51
617.35	991.963
617.401	1006.17
617.453	1009.2
617.505	1037.53
617.557	1014.21
617.609	997.842
617.661	1007.55
617.712	1020.66
617.764	1041.24
617.816	1025.06
617.868	1015.74
617.92	1034.93
617.972	1025.5
618.023	1026.48
618.075	1030.21
618.127	1029.41
618.179	1021.7
618.231	1046.48
618.282	1027.99
618.334	1019.99
618.386	1040.45
618.438	1036.73
618.49	1058.76
618.542	1065.54
618.593	1069.48
618.645	1065.37
618.697	1080.68
618.749	1072.93
618.801	1062.93
618.852	1064.56
618.904	1061.55
618.956	1071
619.008	1047.1
619.06	1063.79
619.111	1090.7
619.163	1056.08
619.215	1085.38
619.267	1069.86
619.319	1079.64
619.37	1066.43
619.422	1069.43
619.474	1089.97
619.526	1085.75
619.578	1077.58
619.63	1079.27
619.681	1091.31
619.733	1084.45
619.785	1084.45
619.837	1086.57
619.888	1111.04
619.94	1103.22
619.992	1099.63
620.044	1095.22
620.096	1093.63
620.147	1107.3
620.199	1095.39
620.251	1090.7
620.303	1100.81
620.355	1095.89
620.406	1104.51
620.458	1104.23
620.51	1111.89
620.562	1098.69
620.614	1106.89
620.665	1125.12
620.717	1129.37
620.769	1106.32
620.821	1125.28
620.873	1140.18
620.924	1128.5
620.976	1114.65
621.028	1126.09
621.08	1085.28
621.132	1106.14
621.183	1104.38
621.235	1126.96
621.287	1116.52
621.339	1129.6
621.39	1145.52
621.442	1133.54
621.494	1130.06
621.546	1140.96
621.598	1128.6
621.649	1112.98
621.701	1123.46
621.753	1135.98
621.805	1134.13
621.856	1111.99
621.908	1119.01
621.96	1125.12
622.012	1142.51
622.064	1136.07
622.115	1112.91
622.167	1114.41
622.219	1099.58
622.271	1127.92
622.322	1126.92
622.374	1138.7
622.426	1144.24
622.478	1157.8
622.53	1121.93
622.581	1178.45
622.633	1146.4
622.685	1125.44
622.737	1121.68
622.788	1174.28
622.84	1158.9
622.892	1146.44
622.944	1122.15
622.995	1167.73
623.047	1166.4
623.099	1154.64
623.151	1185.63
623.203	1164.82
623.254	1123.97
623.306	1165.19
623.358	1176.54
623.41	1105.7
623.461	1156.33
623.513	1146.33
623.565	1141.9
623.617	1147.18
623.668	1154.12
623.72	1163.53
623.772	1157.15
623.824	1148.31
623.875	1164.6
623.927	1136.83
623.979	1195.81
624.031	1193.29
624.082	1141.22
624.134	1143.39
624.186	1136.82
624.238	1173.86
624.289	1138.86
624.341	1174.12
624.393	1169.03
624.445	1163.04
624.496	1142.03
624.548	1169.07
624.6	1171.86
624.652	1143.85
624.703	1169.1
624.755	1172.26
624.807	1134.69
624.859	1181.72
624.91	1188.32
624.962	1187.29
625.014	1176
625.066	1176.29
625.117	1180.34
625.169	1199.45
625.221	1200.82
625.273	1170.58
625.324	1174.75
625.376	1168.57
625.428	1169.2
625.48	1187.63
625.531	1200.91
625.583	1189.22
625.635	1204.68
625.687	1180.05
625.738	1178.9
625.79	1192.32
625.842	1189.31
625.893	1208.91
625.945	1186.17
625.997	1187.42
626.049	1220.23
626.1	1205.73
626.152	1206.89
626.204	1209.68
626.256	1208.41
626.307	1207.93
626.316	1207.86
626.368	1247.54
626.42	1223.77
626.472	1213.95
626.523	1231.01
626.575	1183.73
626.627	1202.14
626.679	1205.97
626.731	1213.32
626.783	1233.27
626.835	1213.57
626.887	1225.87
626.938	1262
626.99	1226.8
627.042	1202.53
627.094	1241.31
627.146	1236.36
627.198	1232.35
627.25	1206.84
627.302	1232.32
627.353	1201.95
627.405	1206.81
627.457	1226.73
627.509	1228.98
627.561	1271.66
627.613	1213.06
627.665	1219.23
627.716	1246.01
627.768	1255.72
627.82	1195.33
627.872	1246.5
627.924	1263.64
627.976	1237.12
628.028	1252.63
628.079	1256.97
628.131	1268.64
628.183	1244.62
628.235	1237.28
628.287	1266.91
628.339	1227.08
628.391	1252.55
628.443	1265.76
628.494	1246.48
628.546	1266.86
628.598	1243.98
628.65	1247.95
628.702	1264.87
628.754	1284.18
628.805	1246.74
628.857	1283.19
628.909	1262.78
628.961	1286.51
629.013	1281.12
629.065	1274.17
629.117	1276.62
629.168	1280.6
629.22	1259.76
629.272	1267.88
629.324	1289.95
629.376	1266.02
629.428	1248.2
629.479	1267.44
629.531	1269.14
629.583	1289.95
629.635	1302.01
629.687	1310.49
629.739	1261.8
629.791	1310.99
629.842	1289.62
629.894	1287.89
629.946	1308.06
629.998	1281.59
630.05	1311.05
630.102	1307.55
630.153	1313.29
630.205	1291.62
630.257	1319.05
630.309	1300.04
630.361	1299.92
630.413	1293.09
630.464	1362.66
630.516	1339.27
630.568	1343.43
630.62	1315.42
630.672	1284.34
630.724	1338.4
630.776	1357.64
630.827	1334.75
630.879	1339.69
630.931	1305.68
630.983	1355.56
631.035	1336.06
631.086	1349.67
631.138	1348.04
631.19	1373.79
631.242	1369.75
631.294	1364.24
631.346	1328
631.397	1346.12
631.449	1360.48
631.501	1355.74
631.553	1358.15
631.605	1345.56
631.657	1386.04
631.708	1340.23
631.76	1412.3
631.812	1370.96
631.864	1372.21
631.916	1371.33
631.967	1406.17
632.019	1388.36
632.071	1379.38
632.123	1366.38
632.175	1374.53
632.227	1382.18
632.278	1393.23
632.33	1405.83
632.382	1387.08
632.434	1393.55
632.486	1383.31
632.537	1372.8
632.589	1379.32
632.641	1407.87
632.693	1386.92
632.745	1433.58
632.797	1422.51
632.848	1405.77
632.9	1414.83
632.952	1425.09
633.004	1438.57
633.056	1440.46
633.107	1443.47
633.159	1429.93
633.211	1423.99
633.263	1437.24
633.315	1414.93
633.366	1427.91
633.418	1427.08
633.47	1441.06
633.522	1442.55
633.574	1433.81
633.625	1426.01
633.677	1463.14
633.729	1433.52
633.781	1454.35
633.833	1436.12
633.885	1471.82
633.936	1459.91
633.988	1484.78
634.04	1462.55
634.092	1498.08
634.143	1492.45
634.195	1490.15
634.247	1505.79
634.299	1501.88
634.351	1489.13
634.403	1461.19
634.454	1480.33
634.506	1526.49
634.558	1509.82
634.61	1530.51
634.661	1497.23
634.713	1529.54
634.765	1532.12
634.817	1549.55
634.869	1533.29
634.92	1537.05
634.972	1530.74
635.024	1535.17
635.076	1541.7
635.128	1574.24
635.179	1565.41
635.231	1585.7
635.283	1597.61
635.335	1576.34
635.387	1596.41
635.438	1602.91
635.49	1548.15
635.542	1596.57
635.594	1601.72
635.645	1614.91
635.697	1633.33
635.749	1640.43
635.801	1632.24
635.853	1646.62
635.904	1667.13
635.956	1655.36
636.008	1659.68
636.06	1697.15
636.112	1705.16
636.163	1710.64
636.215	1725.01
636.267	1731.78
636.319	1753.71
636.37	1746.8
636.422	1774.19
636.474	1777.7
636.526	1799.42
636.577	1815.82
636.629	1809.69
636.681	1839.77
636.733	1865.01
636.785	1857.1
636.836	1885.11
636.888	1924.64
636.94	1930.75
636.992	1961.17
637.043	1942.52
637.095	1990.65
637.147	2000.9
637.199	2024.29
637.25	2047.37
637.302	2106.1
637.354	2104.81
637.406	2145.7
637.458	2137.12
637.509	2160.95
637.561	2198.42
637.613	2170.71
637.665	2227.1
637.716	2246.03
637.768	2247.76
637.82	2261.17
637.872	2304.64
637.923	2270.69
637.975	2300.49
638.027	2292.28
638.079	2318.2
638.13	2348.22
638.182	2337.64
638.234	2301.4
638.286	2313.92
638.337	2340.65
638.389	2321.27
638.441	2288.03
638.493	2284.05
638.544	2340.39
638.596	2314.92
638.648	2314.45
638.7	2264.81
638.752	2301.51
638.803	2277.85
638.855	2254.32
638.907	2277.78
638.958	2241.39
639.01	2228.59
639.062	2222.38
639.114	2200.27
639.165	2206.23
639.217	2187.24
639.269	2175.93
639.321	2157.19
639.372	2119
639.424	2145.07
639.476	2089.91
639.528	2105.49
639.579	2109.78
639.631	2105.04
639.683	2090.22
639.735	2082.25
639.786	2072.19
639.838	2066.82
639.89	2053.61
639.942	2063.17
639.993	2037.24
640.045	2017.39
640.097	2009.11
640.149	2006.66
640.2	1988.98
640.252	1986.02
640.304	1997.64
640.356	1990.32
640.407	1983.79
640.459	1957
640.511	1948.66
640.562	1915.03
640.614	1943.25
640.666	1945.94
640.718	1936.91
640.769	1911.25
640.821	1906.25
640.873	1919.69
640.925	1932.74
640.976	1920.52
641.028	1888.87
641.08	1902.24
641.131	1903.26
641.183	1910.89
641.235	1894.39
641.287	1910.2
641.338	1912.88
641.39	1917.61
641.442	1890.7
641.494	1876.53
641.545	1908.87
641.597	1927.04
641.649	1912.5
641.7	1879.48
641.752	1894.23
641.804	1887.58
641.856	1886.32
641.907	1892.45
641.959	1889.07
642.011	1869.27
642.063	1893.18
642.114	1888.33
642.166	1855.7
642.218	1879.41
642.269	1897.71
642.321	1897.69
642.373	1875.59
642.424	1874.78
642.476	1907.22
642.528	1901.58
642.58	1871.05
642.631	1898.57
642.683	1874.7
642.735	1876.71
642.786	1898.81
642.838	1907.97
642.89	1889.48
642.942	1887.3
642.993	1906.06
643.045	1888.21
643.097	1887.77
643.148	1849.43
643.2	1884.67
643.252	1908.7
643.304	1896.97
643.355	1898.37
643.407	1902.39
643.459	1890.99
643.51	1889.44
643.562	1920.2
643.614	1935.78
643.665	1901.66
643.717	1903.61
643.769	1901.71
643.82	1909.14
643.872	1917.06
643.924	1913.99
643.976	1913.33
644.027	1901.49
644.079	1898.22
644.131	1938.75
644.182	1923.46
644.234	1908.81
644.286	1919.17
644.337	1927.99
644.389	1902.02
644.441	1939.65
644.493	1974
644.544	1906.31
644.596	1920.98
644.648	1936.39
644.699	1910.14
644.751	1942.14
644.803	1959.93
644.854	1926.45
644.906	1946.73
644.958	1964.23
645.009	1932.72
645.061	1959.66
645.113	1965.84
645.164	1949.13
645.216	1949.59
645.268	1961.28
645.32	1976.19
645.371	1979.5
645.423	1987.98
645.475	1980.6
645.526	1987.4
645.578	1947.56
645.63	1977.78
645.681	1975.66
645.733	1949.1
645.785	1972.2
645.836	1997.17
645.888	1963.4
645.94	1966.9
645.991	1931.82
646.043	1975.16
646.095	1965.3
646.146	1970.85
646.198	1988.87
646.25	1989.58
646.301	2007.57
646.353	1967.9
646.405	1983.55
646.456	1969.84
646.508	1959.22
646.56	2019.39
646.611	2006.57
646.663	2032.21
646.715	1995.12
646.766	1979.25
646.818	1997.75
646.87	2044.82
646.921	2026.46
646.973	2032.82
647.025	2033.21
647.076	2009.86
647.128	1971.25
647.18	2044.23
647.231	2057.7
647.283	2014.85
647.335	2018.28
647.386	1982.74
647.438	2038.19
647.49	2012.9
647.541	2027.56
647.593	2033.95
647.645	2025.46
647.696	2053.76
647.748	2052.57
647.8	2030.14
647.851	2039.79
647.903	2083.74
647.955	2029.97
648.006	2065.81
648.058	2062.68
648.109	2076.23
648.161	2060.59
648.213	2064.31
648.264	2072.33
648.316	2078.59
648.368	2061.72
648.419	2071.68
648.471	2077.18
648.523	2064.47
648.574	2035.28
648.626	2085.03
648.678	2090.47
648.729	2090.12
648.781	2057.9
648.833	2094.26
648.884	2109.25
648.936	2129.1
648.987	2082.22
649.039	2102.87
649.091	2113.55
649.142	2104.5
649.194	2130.1
649.246	2091.47
649.297	2145.39
649.349	2154.74
649.401	2078.39
649.452	2132.92
649.504	2128.32
649.555	2106.66
649.607	2126.34
649.659	2124.65
649.71	2162.99
649.762	2176.81
649.814	2186.42
649.865	2186.05
649.917	2191.48
649.969	2127.35
650.02	2140.5
650.072	2150.67
650.123	2185.86
650.175	2182.3
650.227	2180.82
650.278	2182.08
650.33	2170.44
650.382	2208.28
650.433	2176.75
650.485	2164.85
650.536	2173.31
650.588	2188.19
650.64	2168.13
650.691	2223.05
650.743	2208.72
650.795	2240.07
650.846	2217.88
650.898	2216.9
650.949	2185.57
651.001	2224.12
651.053	2212.87
651.104	2211.65
651.156	2204.47
651.208	2230.14
651.259	2240.85
651.311	2226.79
651.362	2235.04
651.414	2257.98
651.466	2209.79
651.517	2246.37
651.569	2286.37
651.62	2274.18
651.672	2261.04
651.724	2251.99
651.775	2261.89
651.827	2256.36
651.878	2244.6
651.93	2263.38
651.982	2255.89
652.033	2249.3
652.085	2273.17
652.137	2291.28
652.188	2288.46
652.24	2234.9
652.291	2267.52
652.343	2309.74
652.395	2304.62
652.446	2300.04
652.498	2302.26
652.549	2298.37
652.601	2301.98
652.653	2308.15
652.704	2340.24
652.756	2343.14
652.772	2338.09
652.824	2355.84
652.876	2389.88
652.927	2365.96
652.979	2363.4
653.031	2375
653.083	2361.9
653.134	2288.74
653.186	2331.83
653.238	2358.73
653.29	2372.22
653.341	2377.92
653.393	2360.15
653.445	2368
653.497	2362.94
653.548	2396.79
653.6	2368.22
653.652	2390.42
653.704	2393.26
653.755	2391.39
653.807	2389.35
653.859	2409.58
653.91	2405.3
653.962	2457.53
654.014	2423.54
654.066	2428.63
654.117	2434.65
654.169	2459.96
654.221	2446.7
654.273	2464.4
654.324	2489.83
654.376	2425.38
654.428	2449.03
654.48	2491.89
654.531	2446.2
654.583	2473.29
654.635	2434.59
654.686	2535.61
654.738	2486.73
654.79	2501.19
654.842	2518.59
654.893	2464.07
654.945	2486.69
654.997	2523.06
655.049	2508.18
655.1	2513.12
655.152	2542.25
655.204	2520.85
655.255	2543.73
655.307	2548.86
655.359	2559.32
655.411	2533.08
655.462	2596.82
655.514	2536.64
655.566	2580.89
655.618	2559.35
655.669	2598.16
655.721	2559.16
655.773	2600.39
655.824	2611.7
655.876	2634.4
655.928	2622.59
655.98	2626.89
656.031	2554.6
656.083	2598.75
656.135	2621.96
656.186	2655.36
656.238	2645.96
656.29	2640.67
656.342	2673.4
656.393	2642.59
656.445	2662.79
656.497	2671.77
656.548	2652.77
656.6	2701.25
656.652	2740.47
656.704	2701.69
656.755	2648.38
656.807	2720.81
656.859	2720.98
656.91	2706.8
656.962	2734.72
657.014	2733.76
657.065	2705.18
657.117	2707.16
657.169	2733.29
657.221	2754.62
657.272	2762.23
657.324	2761.02
657.376	2778.91
657.427	2780.68
657.479	2785.52
657.531	2747.28
657.583	2784.52
657.634	2812.31
657.686	2783.14
657.738	2759.62
657.789	2818.32
657.841	2839.98
657.893	2811.3
657.944	2819.73
657.996	2803.42
658.048	2815.6
658.099	2844.76
658.151	2816.87
658.203	2812.98
658.255	2822.91
658.306	2837.65
658.358	2855.18
658.41	2882.81
658.461	2879.7
658.513	2829.89
658.565	2855.57
658.616	2875.92
658.668	2868.86
658.72	2866.94
658.771	2906.8
658.823	2817.59
658.875	2881.22
658.927	2885.15
658.978	2883.35
659.03	2896.54
659.082	2875.09
659.133	2907.88
659.185	2903.04
659.237	2897.65
659.288	2897.14
659.34	2967.63
659.392	2879.7
659.443	2909.28
659.495	2946.22
659.547	2908.48
659.598	2897.59
659.65	2901.96
659.702	2914.12
659.753	2912.03
659.805	2895.93
659.857	2911.57
659.909	2906.63
659.96	2944.72
660.012	2870.04
660.064	2914.95
660.115	2928.27
660.167	2923.86
660.219	2920.43
660.27	2874.38
660.322	2940.55
660.374	2926.26
660.425	2961.58
660.477	2890.05
660.529	2904.27
660.58	2934.49
660.632	2908.61
660.684	2901.28
660.735	2889.05
660.787	2927.11
660.839	2900.47
660.89	2937.7
660.942	2944.65
660.994	2937.15
661.045	2890.7
661.097	2918.16
661.149	2900.73
661.2	2901.89
661.252	2931.96
661.304	2940.6
661.355	2928.42
661.407	2879.49
661.459	2930.92
661.51	2875.06
661.562	2915.33
661.614	2935.91
661.665	2895.37
661.717	2953.83
661.768	2914.9
661.82	2944.06
661.872	2915.26
661.923	2879.83
661.975	2909.78
662.027	2913.7
662.078	2907.17
662.13	2913.4
662.182	2926.98
662.233	2938.46
662.285	2914.79
662.337	2946.6
662.388	2954.31
662.44	2922.29
662.492	2905.65
662.543	2912.21
662.595	2931.25
662.647	2946.16
662.698	2928.46
662.75	2914.17
662.802	2911.8
662.853	2942.63
662.905	2944.4
662.956	2992.85
663.008	2965.5
663.06	2937.2
663.111	2954.81
663.163	2902.11
663.215	2930.11
663.266	2952.15
663.318	2913.15
663.37	2874.98
663.421	2910.36
663.473	2909.5
663.525	2907.51
663.576	2906.69
663.628	2922.56
663.679	2926.07
663.731	2939.66
663.783	2943.54
663.834	2917.41
663.886	2910.01
663.938	2950.95
663.989	2953.54
664.041	2907.47
664.093	2936.25
664.144	2942.53
664.196	2902.57
664.247	2966.45
664.299	2920.04
664.351	2901.46
664.402	2937.45
664.454	2942.48
664.506	2929.43
664.557	2969.26
664.609	2921.62
664.66	2932.25
664.712	2940.53
664.764	2889.4
664.815	2927.04
664.867	2940.41
664.919	2949.9
664.97	2937.43
665.022	2889.63
665.073	2890.38
665.125	2905.44
665.177	2883.89
665.228	2930.17
665.28	2899.33
665.332	2944.58
665.383	2938.04
665.435	2885.62
665.486	2908.69
665.538	2923.07
665.59	2934.84
665.641	2947.27
665.693	2879.52
665.745	2923.62
665.796	2896.19
665.848	2943.95
665.899	2904.64
665.951	2877.43
666.003	2936.84
666.054	2893.37
666.106	2867.59
666.157	2885.59
666.209	2863.92
666.261	2922.5
666.312	2915.55
666.364	2921.65
666.415	2913.79
666.467	2951.1
666.519	2879.41
666.57	2871.32
666.622	2917.7
666.673	2927.27
666.725	2874.56
666.777	2893.98
666.828	2927.33
666.88	2913.51
666.931	2915.69
666.983	2916.69
667.035	2918.48
667.086	2907.11
667.138	2912.73
667.189	2911.98
667.241	2902.18
667.293	2900.02
667.344	2872.14
667.396	2887.97
667.447	2885.57
667.499	2870.97
667.551	2901.1
667.602	2899.65
667.654	2871.4
667.705	2897.93
667.757	2863.18
667.809	2921.75
667.86	2900.65
667.912	2904.98
667.963	2951.16
668.015	2888.27
668.067	2876.57
668.118	2896.33
668.17	2912.32
668.221	2896.99
668.273	2903.79
668.325	2891.26
668.376	2891.01
668.428	2897.86
668.479	2892.72
668.531	2921.44
668.582	2940.11
668.634	2947.48
668.686	2944.57
668.737	2915.76
668.789	2895.55
668.84	2908.32
668.892	2914.39
668.944	2927.85
668.995	2897.65
669.047	2897.44
669.098	2943.98
669.15	2890.87
669.201	2918.43
669.253	2863.97
669.305	2860.62
669.356	2912.27
669.408	2902.18
669.459	2903.65
669.511	2899.42
669.562	2916.91
669.614	2934.24
669.666	2923.94
669.717	2883.12
669.769	2917.01
669.82	2896.73
669.872	2872.38
669.923	2907.47
669.975	2922.57
670.027	2922.17
670.078	2872.99
670.13	2900.83
670.181	2911.33
670.233	2949.23
670.284	2876
670.336	2922.82
670.388	2922.7
670.439	2908.09
670.491	2891.64
670.542	2912.49
670.594	2920.84
670.645	2901.72
670.697	2924.18
670.748	2915.97
670.8	2887.87
670.852	2895.01
670.903	2908.65
670.955	2904.07
671.006	2895.71
671.058	2914.41
671.109	2899.91
671.161	2889.21
671.212	2927.52
671.264	2943.03
671.316	2897.63
671.367	2927.78
671.419	2926.25
671.47	2925.75
671.522	2908.1
671.573	2930.41
671.625	2927.52
671.676	2924.42
671.728	2942.77
671.78	2949.8
671.831	2963.12
671.883	2937.83
671.934	2952.03
671.986	2910.83
672.037	2939.24
672.089	2921.32
672.14	2905.56
672.192	2904.73
672.243	2927.99
672.295	2900.06
672.347	2946.54
672.398	2948.25
672.45	2938.35
672.501	2971.09
672.553	2969.34
672.604	2964.85
672.656	2938.2
672.707	2920.37
672.759	2961.67
672.81	2923.57
672.862	2939.08
672.913	2966.37
672.965	2968.11
673.017	2994.88
673.068	2965.14
673.12	2982.81
673.171	2965.51
673.223	2952.38
673.274	2959.56
673.326	2971.52
673.377	2997.96
673.429	2996.78
673.48	2992.94
673.532	2989.78
673.583	3018.87
673.635	2971.88
673.686	2980.62
673.738	2992.09
673.789	3025.2
673.841	3047.19
673.893	3000.75
673.944	2989.61
673.996	3033.11
674.047	3029.68
674.099	3056.93
674.15	3030.49
674.202	3020.61
674.253	3006.31
674.305	3010.85
674.356	3054.64
674.408	3060
674.459	3056.47
674.511	3054.79
674.562	3050.14
674.614	3067.37
674.665	3029.57
674.717	3054.48
674.768	3072.83
674.82	3076.08
674.871	3059.96
674.923	3034.76
674.974	3052.24
675.026	3080.32
675.077	3099.9
675.129	3062.56
675.18	3049.76
675.232	3075.02
675.284	3048.58
675.335	3083.63
675.387	3090.96
675.438	3107.11
675.49	3100.89
675.541	3106.09
675.593	3118.14
675.644	3119.71
675.696	3106.7
675.747	3122.73
675.799	3133.47
675.85	3108.73
675.902	3107.18
675.953	3127.12
676.005	3154.29
676.056	3138.28
676.108	3106.83
676.159	3065.64
676.211	3098.18
676.262	3115.93
676.314	3134.09
676.365	3126.73
676.417	3134.14
676.468	3142.59
676.52	3128.41
676.571	3128.55
676.623	3151.8
676.674	3153.74
676.726	3139.24
676.777	3122.36
676.828	3130.45
676.88	3123.28
676.932	3095.8
676.983	3112.51
677.034	3142.82
677.086	3136.97
677.137	3124.35
677.189	3115.61
677.24	3126.79
677.292	3129.79
677.343	3125.88
677.395	3143.41
677.446	3131.5
677.498	3142.87
677.549	3182.93
677.601	3170.33
677.652	3150.85
677.704	3145.07
677.755	3127.53
677.807	3109.09
677.858	3102.45
677.91	3137.01
677.961	3130.92
678.013	3135.99
678.064	3178.23
678.116	3153.62
678.167	3109.11
678.219	3108.24
678.27	3123.14
678.322	3120.65
678.373	3141.98
678.424	3139.2
678.476	3133.97
678.527	3175.24
678.579	3188.98
678.63	3175.71
678.682	3139.6
678.733	3137.7
678.785	3157.53
678.836	3154.49
678.888	3135.73
678.939	3149.66
678.991	3182.88
679.042	3139.04
679.094	3130.21
679.122	3162.06
679.173	3152.39
679.225	3182.27
679.277	3146.39
679.328	3118.78
679.38	3181.97
679.432	3105.67
679.483	3111.7
679.535	3137.13
679.586	3175.95
679.638	3123.96
679.69	3145.09
679.741	3161.57
679.793	3109.51
679.844	3156.72
679.896	3131.76
679.948	3175.44
679.999	3124.76
680.051	3159.59
680.103	3127.18
680.154	3228.08
680.206	3205.35
680.257	3143.74
680.309	3168.92
680.361	3179.13
680.412	3160.1
680.464	3191.96
680.515	3182.83
680.567	3154.22
680.619	3196.59
680.67	3179.46
680.722	3223.48
680.773	3189.41
680.825	3155.94
680.877	3206.92
680.928	3228.75
680.98	3212.11
681.031	3207.44
681.083	3235.85
681.135	3239.99
681.186	3219.32
681.238	3199.46
681.289	3219.21
681.341	3196.93
681.393	3184.28
681.444	3228.65
681.496	3219.31
681.547	3260.98
681.599	3263.96
681.651	3225.82
681.702	3243.34
681.754	3174.17
681.805	3216.43
681.857	3254.81
681.909	3248
681.96	3208.41
682.012	3231.72
682.063	3198.77
682.115	3209.57
682.166	3225.91
682.218	3196.17
682.27	3237.11
682.321	3239.96
682.373	3237.23
682.424	3248.39
682.476	3254.44
682.528	3265.01
682.579	3309.44
682.631	3192.11
682.682	3270.42
682.734	3301.75
682.785	3241.14
682.837	3246.72
682.889	3258.35
682.94	3230.96
682.992	3277.88
683.043	3257.83
683.095	3251.39
683.146	3282.78
683.198	3246.92
683.25	3264.69
683.301	3290.96
683.353	3208.07
683.404	3256.61
683.456	3270.11
683.508	3191.58
683.559	3230.23
683.611	3230.15
683.662	3261.03
683.714	3283.12
683.765	3255.62
683.817	3202.66
683.869	3243.75
683.92	3246.6
683.972	3259.25
684.023	3226.76
684.075	3225.24
684.126	3274.08
684.178	3208.57
684.229	3261.53
684.281	3260.51
684.333	3293.02
684.384	3276.81
684.436	3199.48
684.487	3234.24
684.539	3259.46
684.59	3253.14
684.642	3268.19
684.694	3291.13
684.745	3218.78
684.797	3254.57
684.848	3246.66
684.9	3229.48
684.951	3214.55
685.003	3210.17
685.055	3240.64
685.106	3271.66
685.158	3215.89
685.209	3210.69
685.261	3214.59
685.312	3196.28
685.364	3194.39
685.415	3231.23
685.467	3224.33
685.518	3210.66
685.57	3220.62
685.622	3260.17
685.673	3188.02
685.725	3184.41
685.776	3192.55
685.828	3218.16
685.879	3197.88
685.931	3205.65
685.982	3248.54
686.034	3230.52
686.086	3196.39
686.137	3196.92
686.189	3198.66
686.24	3188.99
686.292	3199.22
686.343	3164.84
686.395	3184.77
686.446	3221.23
686.498	3177.42
686.549	3187.48
686.601	3163.9
686.652	3229.91
686.704	3190.11
686.756	3214.85
686.807	3226.6
686.859	3213.86
686.91	3185.89
686.962	3207.56
687.013	3173.79
687.065	3141.08
687.116	3190.24
687.168	3177.5
687.219	3176.49
687.271	3154.05
687.322	3184.76
687.374	3222.25
687.426	3189.47
687.477	3181.08
687.529	3178.95
687.58	3179
687.632	3171.51
687.683	3195.82
687.735	3153.3
687.786	3226.48
687.838	3200.73
687.889	3149.67
687.941	3204.63
687.992	3158.81
688.044	3189.9
688.095	3173.42
688.147	3164.61
688.198	3192.58
688.25	3189.49
688.302	3235.67
688.353	3166.29
688.405	3211.1
688.456	3210.38
688.508	3201.25
688.559	3131.5
688.611	3203.65
688.662	3188.67
688.714	3194.72
688.765	3181.43
688.817	3131.5
688.868	3162.56
688.92	3183.84
688.971	3137.54
689.023	3176.79
689.074	3147.61
689.126	3173.27
689.177	3186.2
689.229	3172.6
689.28	3153.71
689.332	3173.94
689.383	3155.38
689.435	3160.46
689.486	3143.2
689.538	3162.13
689.589	3154.15
689.641	3131.12
689.692	3122.75
689.744	3153.54
689.795	3166.08
689.847	3159.83
689.898	3142.33
689.95	3123.38
690.001	3154.57
690.053	3135.89
690.104	3135.44
690.156	3090.34
690.207	3104.41
690.259	3154.39
690.31	3153.44
690.362	3137.7
690.413	3124.83
690.465	3152.61
690.516	3129.53
690.568	3113.78
690.619	3092.5
690.671	3129.14
690.722	3141.77
690.774	3144.44
690.825	3154.81
690.877	3140.25
690.928	3129.26
690.98	3101.88
691.031	3105.73
691.083	3084.69
691.134	3143.1
691.186	3081.62
691.237	3102.42
691.289	3102.23
691.34	3055.71
691.392	3093.06
691.443	3126.32
691.495	3120.43
691.546	3081.01
691.598	3071.66
691.649	3117.32
691.701	3118.24
691.752	3117.81
691.804	3080.08
691.855	3071.98
691.907	3065.57
691.958	3072.25
692.01	3078.64
692.061	3077.31
692.113	3139.84
692.164	3072.6
692.216	3073.75
692.267	3072.66
692.319	3096.14
692.37	3046.58
692.421	3091.12
692.473	3093
692.524	3092.73
692.576	3068.85
692.627	3068.91
692.679	3070.16
692.73	3045.23
692.782	3076.92
692.833	3090.01
692.885	3061.83
692.936	3086.02
692.988	3036.72
693.039	3023.02
693.091	3052.7
693.142	3041.86
693.194	3050.56
693.245	3043.21
693.297	3047.68
693.348	3048.6
693.399	3036.62
693.451	3042.85
693.502	3068.34
693.554	3039.56
693.605	3050.89
693.657	3024.88
693.708	3003.92
693.76	3018.85
693.811	3055.28
693.863	3028.63
693.914	3039.68
693.966	3022.1
694.017	3008.17
694.068	3034.93
694.12	3037.16
694.171	3032.58
694.223	3015.43
694.274	3005.51
694.326	3019.38
694.377	3009.78
694.429	3002.72
694.48	3013.11
694.532	3010
694.583	3003.04
694.634	3021.93
694.686	3045.79
694.737	3040.76
694.789	3004.17
694.84	3020.4
694.892	3022
694.943	3018.66
694.995	3031.89
695.046	3023.65
695.097	3004
695.149	3009.89
695.2	3003.01
695.252	3004.13
695.303	2991.61
695.355	3014.7
695.406	3035.81
695.458	3004.77
695.509	3024.9
695.56	2980.3
695.612	3005.65
695.663	2976.22
695.715	2993.56
695.766	2995.52
695.818	2958.61
695.869	2962.85
695.921	2978.72
695.972	2976.6
696.023	2964.82
696.075	2947.2
696.126	2983.3
696.178	2981.05
696.229	2965.98
696.281	2987.96
696.332	3012.53
696.383	2979.89
696.435	2971.03
696.486	3008.19
696.538	2968.38
696.589	2938.04
696.641	2991.46
696.692	2987.69
696.744	2994.05
696.795	2974.23
696.846	2937.08
696.898	2947.61
696.949	2960.88
697.001	2934.5
697.052	2944.2
697.104	2931.99
697.155	2949.34
697.206	2923.44
697.258	2930.18
697.309	2940.39
697.361	2921.17
697.412	2925.35
697.463	2926.18
697.515	2932.54
697.566	2937
697.618	2918.15
697.669	2917.48
697.721	2948.66
697.772	2894.28
697.823	2875.27
697.875	2945.88
697.926	2899.99
697.978	2933.01
698.029	2889.08
698.08	2904.78
698.132	2943.12
698.183	2930.09
698.235	2873.84
698.286	2911.4
698.338	2917.93
698.389	2886.42
698.44	2865.14
698.492	2877.49
698.543	2858.12
698.595	2863.87
698.646	2871.61
698.697	2831.49
698.749	2847.43
698.8	2859.03
698.852	2892.06
698.903	2881.99
698.954	2899.05
699.006	2884.67
699.057	2862.08
699.109	2868.11
699.16	2849.79
699.211	2840.12
699.263	2885.3
699.314	2866.04
699.366	2833.84
699.417	2868.7
699.468	2883.58
699.52	2857.86
699.571	2817.02
699.623	2803.37
699.674	2813.83
699.725	2856.69
699.777	2853.11
699.828	2847.19
699.88	2839.13
699.931	2824.03
699.982	2826.36
700.034	2859.77
700.085	2838.36
700.137	2812.13
700.188	2816.42
700.239	2849.9
700.291	2844.57
700.342	2823.25
700.393	2789.1
700.445	2779.82
700.496	2817.14
700.548	2828.16
700.599	2799.25
700.65	2817.92
700.702	2851.33
700.753	2837.23
700.805	2829.33
700.856	2832.6
700.907	2811.3
700.959	2832.39
701.01	2829.66
701.061	2843.23
701.113	2841.1
701.164	2831.14
701.216	2818.4
701.267	2846.75
701.318	2793.29
701.37	2794.6
701.421	2829.65
701.472	2828.59
701.524	2821.1
701.575	2834.61
701.627	2858.1
701.678	2834.46
701.729	2831.57
701.781	2849.22
701.832	2806.24
701.883	2778.03
701.935	2811.04
701.986	2837.43
702.038	2842.73
702.089	2862.14
702.14	2854.18
702.192	2813.04
702.243	2823.09
702.294	2856.44
702.346	2854.18
702.397	2831.25
702.448	2785.82
702.5	2772.49
702.551	2811.49
702.603	2828.06
702.654	2814.59
702.705	2825.25
702.757	2824.83
702.808	2798.72
702.859	2825.3
702.911	2847.98
702.962	2800.72
703.013	2799.42
703.065	2820.1
703.116	2809.65
703.167	2829.98
703.219	2831.86
703.27	2793.13
703.322	2776.95
703.373	2776.8
703.424	2812.78
703.476	2815.82
703.527	2831.53
703.578	2848.56
703.63	2812.71
703.681	2831.27
703.732	2819.2
703.784	2812.79
703.835	2803.2
703.886	2800.1
703.938	2808.88
703.989	2791.54
704.04	2786.5
704.092	2782.13
704.143	2791.16
704.194	2811.41
704.246	2808.51
704.297	2802.52
704.348	2811.66
704.4	2806.77
704.451	2806.45
704.503	2789.79
704.554	2791.7
704.605	2814.33
704.656	2779.8
704.708	2784.72
704.759	2793.04
704.81	2786.28
704.862	2782.54
704.913	2769.34
704.964	2787.37
705.016	2789.99
705.067	2741.88
705.119	2765.94
705.17	2781.95
705.221	2749.4
705.273	2720.19
705.324	2732.85
705.375	2699.84
705.408	2738
705.459	2784
705.511	2762.04
705.562	2712.34
705.614	2754.11
705.665	2770.03
705.717	2710.62
705.768	2761.98
705.82	2724.45
705.871	2730.48
705.923	2769.39
705.974	2673.05
706.026	2698.64
706.077	2667.59
706.129	2743.39
706.18	2733.59
706.232	2670.79
706.283	2670.43
706.335	2721.14
706.386	2686.15
706.438	2683.32
706.489	2698.23
706.541	2668.1
706.592	2707.81
706.643	2744.17
706.695	2695.83
706.746	2705.52
706.798	2664.72
706.849	2676.84
706.901	2677.06
706.952	2646.45
707.004	2662.67
707.055	2702.15
707.107	2680.96
707.158	2693.01
707.21	2640.03
707.261	2662.62
707.313	2675.76
707.364	2728.19
707.416	2685.28
707.467	2594.07
707.518	2644.39
707.57	2668.33
707.621	2611.62
707.673	2689.89
707.724	2644.99
707.776	2680.67
707.827	2640.57
707.879	2595.81
707.93	2582.77
707.982	2645.18
708.033	2654.83
708.084	2653.08
708.136	2664.02
708.187	2622.68
708.239	2620.56
708.29	2592.8
708.342	2631.76
708.393	2652.53
708.445	2555.94
708.496	2707.72
708.548	2658.49
708.599	2662.41
708.651	2623.48
708.702	2617.93
708.753	2617.74
708.805	2577.73
708.856	2610.82
708.908	2610.83
708.959	2593.94
709.011	2649.04
709.062	2638.85
709.114	2579.68
709.165	2570.02
709.216	2596.21
709.268	2617.46
709.319	2623.13
709.371	2574.97
709.422	2593.39
709.474	2613.1
709.525	2588.28
709.577	2573.2
709.628	2588.56
709.679	2564.35
709.731	2580.84
709.782	2584.54
709.834	2559.51
709.885	2578.45
709.937	2621.93
709.988	2574.74
710.039	2616.67
710.091	2602.43
710.142	2586.25
710.194	2581.64
710.245	2585.61
710.297	2607.49
710.348	2518.81
710.4	2570.36
710.451	2584.73
710.502	2556.55
710.554	2622.82
710.605	2607.32
710.657	2576.95
710.708	2601.55
710.76	2599.31
710.811	2579.78
710.862	2548.06
710.914	2569.87
710.965	2559.22
711.017	2545.65
711.068	2546.37
711.12	2541.38
711.171	2533.98
711.222	2590.55
711.274	2559.68
711.325	2551.81
711.377	2565.56
711.428	2570.2
711.479	2553.48
711.531	2544.85
711.582	2541.58
711.634	2523.25
711.685	2520.29
711.737	2534.26
711.788	2552.75
711.839	2520.24
711.891	2548.65
711.942	2515.24
711.994	2521.43
712.045	2487.53
712.096	2576.14
712.148	2504.03
712.199	2499.67
712.251	2494.21
712.302	2480.98
712.354	2520.2
712.405	2519.72
712.456	2489.48
712.508	2516.91
712.559	2467.54
712.611	2463.63
712.662	2499.3
712.713	2454.22
712.765	2466.39
712.816	2432.73
712.868	2464.11
712.919	2477.48
712.97	2462.47
713.022	2495.09
713.073	2454.94
713.125	2472.74
713.176	2483.02
713.227	2458.39
713.279	2483.52
713.33	2447.92
713.382	2430.2
713.433	2418.79
713.484	2436.87
713.536	2413.06
713.587	2442.44
713.639	2415.18
713.69	2458
713.741	2423.15
713.793	2392.2
713.844	2432.86
713.896	2384.91
713.947	2432.06
713.998	2408.55
714.05	2422.09
714.101	2368.9
714.153	2377.26
714.204	2418.81
714.255	2403.94
714.307	2418.5
714.358	2371.73
714.41	2392.53
714.461	2363.02
714.512	2368.64
714.564	2364.59
714.615	2367.34
714.666	2397.28
714.718	2399.06
714.769	2390.87
714.821	2379.8
714.872	2342.85
714.923	2367.81
714.975	2395.21
715.026	2336.53
715.078	2339.73
715.129	2339.08
715.18	2347.58
715.232	2362.97
715.283	2333.48
715.334	2289.35
715.386	2333.84
715.437	2341.03
715.489	2370.07
715.54	2316.7
715.591	2326.03
715.643	2350.27
715.694	2308.04
715.745	2346.45
715.797	2333.96
715.848	2339.36
715.9	2283.63
715.951	2337.47
716.002	2352.1
716.054	2335.51
716.105	2322.25
716.156	2316.47
716.208	2299.7
716.259	2328.06
716.31	2326.34
716.362	2289.01
716.413	2299.46
716.465	2312.12
716.516	2265.69
716.567	2258.75
716.619	2298.97
716.67	2303.11
716.721	2323.71
716.773	2282.99
716.824	2304.5
716.875	2308.8
716.927	2312.27
716.978	2278.79
717.03	2298.1
717.081	2290.85
717.132	2262.96
717.184	2291.88
717.235	2263.21
717.286	2270.96
717.338	2295.29
717.389	2279.17
717.44	2292.36
717.492	2271.5
717.543	2287.75
717.594	2260.98
717.646	2272.02
717.697	2260.7
717.749	2267.74
717.8	2243.28
717.851	2288
717.903	2275.25
717.954	2272.35
718.005	2258.07
718.057	2276.88
718.108	2259.22
718.159	2271.07
718.211	2274.11
718.262	2250.51
718.313	2272.34
718.365	2258.99
718.416	2256.39
718.467	2233.53
718.519	2254.14
718.57	2230.7
718.621	2238.93
718.673	2250.88
718.724	2233.03
718.775	2243.58
718.827	2213.18
718.878	2196.69
718.93	2224.8
718.981	2222.71
719.032	2231.13
719.083	2225.88
719.135	2233.38
719.186	2207.98
719.237	2224.09
719.289	2217.4
719.34	2173.66
719.391	2211.04
719.443	2203.51
719.494	2184.58
719.545	2221.58
719.597	2203.31
719.648	2206.89
719.699	2208.54
719.751	2182.84
719.802	2188.15
719.853	2165.72
719.905	2212.82
719.956	2208.19
720.007	2189.78
720.059	2186.11
720.11	2182.39
720.161	2196.36
720.213	2152.74
720.264	2159.72
720.315	2177.89
720.367	2168.87
720.418	2145.48
720.469	2164.08
720.521	2167.28
720.572	2159.2
720.623	2152.85
720.675	2153.71
720.726	2151.89
720.777	2154.4
720.829	2140.67
720.88	2130.28
720.931	2140.97
720.982	2144.18
721.034	2126.63
721.085	2146.49
721.136	2141.16
721.188	2131.82
721.239	2114.06
721.29	2119.8
721.342	2132.3
721.393	2119.4
721.444	2119.06
721.496	2087.66
721.547	2082.38
721.598	2085.27
721.65	2125.28
721.701	2113.02
721.752	2092.42
721.803	2080.39
721.855	2096.84
721.906	2108
721.957	2102.96
722.009	2065.37
722.06	2075.48
722.111	2091.95
722.163	2066.19
722.214	2085.88
722.265	2102.51
722.316	2078.76
722.368	2072.27
722.419	2085.73
722.47	2059
722.522	2071.06
722.573	2063.24
722.624	2064.16
722.676	2050.29
722.727	2053.58
722.778	2057.62
722.829	2066.59
722.881	2040.47
722.932	2046.17
722.983	2054.53
723.035	2027.3
723.086	2026.58
723.137	2047.75
723.188	2039.97
723.24	2040.87
723.291	2046.03
723.342	2057.53
723.394	2021.22
723.445	2027.99
723.496	2032.25
723.547	2024.57
723.599	2041.38
723.65	2018.46
723.701	2035.23
723.753	2031.28
723.804	1985.06
723.855	2007.61
723.906	2012.34
723.958	2003.53
724.009	1982.56
724.06	2000.98
724.112	2011.55
724.163	1993.57
724.214	2024.64
724.265	2020.06
724.317	1993.45
724.368	1986.71
724.419	1988.1
724.47	1999.04
724.522	2022.46
724.573	2004.33
724.624	1980.77
724.676	1998.99
724.727	2003.91
724.778	1992.59
724.829	1961.81
724.881	1975.79
724.932	1995.62
724.983	1993.58
725.034	2001.28
725.086	1973.61
725.137	1987.31
725.188	1961.35
725.24	1992.75
725.291	1984.77
725.342	1976.19
725.393	1981.49
725.445	1982.59
725.496	1973.11
725.547	1967.23
725.598	1957.35
725.65	1968.39
725.701	1962.76
725.752	1963.87
725.803	1941.36
725.855	1953.22
725.906	1964.46
725.957	1932.4
726.008	1925.39
726.06	1943.51
726.111	1959.08
726.162	1921.12
726.213	1932.63
726.265	1959.5
726.316	1933.85
726.367	1923.25
726.418	1925.19
726.47	1935.06
726.521	1957.25
726.572	1921.81
726.623	1929.71
726.675	1930.22
726.726	1939.21
726.777	1936.15
726.828	1919.3
726.88	1921.41
726.931	1926.75
726.982	1891.45
727.033	1917.45
727.085	1950.67
727.136	1926.48
727.187	1912.97
727.238	1907.57
727.29	1896.25
727.341	1905.35
727.392	1914.19
727.443	1905.1
727.495	1899.03
727.546	1877.68
727.597	1866.44
727.648	1844.37
727.7	1861.05
727.751	1882.13
727.802	1875.63
727.853	1869.88
727.904	1867.6
727.956	1885.21
728.007	1840.8
728.058	1864.06
728.109	1866.09
728.161	1858.7
728.212	1824.69
728.263	1862.59
728.314	1834.02
728.366	1822.58
728.417	1813.58
728.468	1842.22
728.519	1836.18
728.57	1844.6
728.622	1834.87
728.673	1848.26
728.724	1834.68
728.775	1832.55
728.827	1806.11
728.878	1819.62
728.929	1835.75
728.98	1824.4
729.031	1796.72
729.083	1799.19
729.134	1831.34
729.185	1829.8
729.236	1801.61
729.288	1820.36
729.339	1827.61
729.39	1812.84
729.441	1802.05
729.492	1805.73
729.544	1805.66
729.595	1739.34
729.646	1742.36
729.697	1794.54
729.748	1784.45
729.8	1729.55
729.851	1768.79
729.902	1780.82
729.953	1749.49
730.004	1774.01
730.056	1790.64
730.107	1747.23
730.158	1747.03
730.209	1762.73
730.26	1752.93
730.312	1752.35
730.363	1747.18
730.414	1715.37
730.465	1725.87
730.517	1743.85
730.568	1731.9
730.619	1718.32
730.67	1715.22
730.721	1751.08
730.773	1700.47
730.824	1725.34
730.875	1752.7
730.926	1709.13
730.977	1693.4
731.029	1755.34
731.08	1722.78
731.131	1708.02
731.182	1738.59
731.233	1679.74
731.284	1702.85
731.336	1702.76
731.387	1718.14
731.438	1673.04
731.489	1698.37
731.54	1680.46
731.592	1708.18
731.643	1668.22
731.643	1668
731.694	1630
731.746	1666
731.797	1722.04
731.848	1664.31
731.9	1700.13
731.951	1707.92
732.002	1654.62
732.054	1700.27
732.105	1684.27
732.156	1673.25
732.208	1673.09
732.259	1592.6
732.311	1663.11
732.362	1682.09
732.413	1694.45
732.465	1677.1
732.516	1688.43
732.567	1622.96
732.619	1668.24
732.67	1664.24
732.721	1680.67
732.773	1623.95
732.824	1621.92
732.875	1647.94
732.927	1674.26
732.978	1689.74
733.029	1679.11
733.081	1681.78
733.132	1665.16
733.183	1624.56
733.235	1631.99
733.286	1635.61
733.337	1648.28
733.389	1626.37
733.44	1630.7
733.491	1690.89
733.543	1660.38
733.594	1637.35
733.645	1652.56
733.697	1657.88
733.748	1632.19
733.799	1658.85
733.851	1650.72
733.902	1654.2
733.953	1618.44
734.005	1601.15
734.056	1657.92
734.107	1586.65
734.158	1625.83
734.21	1630.53
734.261	1639.95
734.312	1605.69
734.364	1602.96
734.415	1608.47
734.466	1619.4
734.518	1635.67
734.569	1646.87
734.62	1629.43
734.672	1612.14
734.723	1624.32
734.774	1639.09
734.826	1613.32
734.877	1597.86
734.928	1582.56
734.98	1627.1
735.031	1616.41
735.082	1638.46
735.133	1591.32
735.185	1541.07
735.236	1612.55
735.287	1617.17
735.339	1636.78
735.39	1629.52
735.441	1620.9
735.493	1622.58
735.544	1576.2
735.595	1610.86
735.647	1586.29
735.698	1605.48
735.749	1580.08
735.8	1569.75
735.852	1581.24
735.903	1603.67
735.954	1581.18
736.006	1603.05
736.057	1552.76
736.108	1589
736.16	1568.25
736.211	1590.2
736.262	1585.21
736.313	1573.31
736.365	1581.38
736.416	1586.98
736.467	1616.01
736.519	1604.43
736.57	1593.84
736.621	1569.34
736.673	1582.08
736.724	1597.03
736.775	1584.9
736.826	1587.81
736.878	1524.27
736.929	1544.19
736.98	1584.51
737.032	1569.56
737.083	1549.98
737.134	1587.93
737.185	1594.87
737.237	1535.88
737.288	1597.65
737.339	1571.7
737.391	1539.29
737.442	1555.56
737.493	1570.23
737.544	1544.67
737.596	1559.34
737.647	1552.37
737.698	1564.21
737.75	1545.24
737.801	1568.26
737.852	1574.6
737.903	1552.44
737.955	1575.49
738.006	1551
738.057	1558.41
738.109	1565.84
738.16	1538.22
738.211	1567.38
738.262	1574.79
738.314	1556.42
738.365	1520.96
738.416	1551.97
738.468	1532.17
738.519	1548.53
738.57	1549.81
738.621	1563.51
738.673	1565.6
738.724	1551.04
738.775	1525.97
738.826	1540.31
738.878	1539.34
738.929	1532.46
738.98	1538.5
739.031	1516.23
739.083	1530.94
739.134	1557.2
739.185	1547.18
739.237	1549.95
739.288	1539.18
739.339	1525.57
739.39	1519.25
739.442	1544.65
739.493	1546.1
739.544	1558.79
739.595	1515.9
739.647	1547
739.698	1522.43
739.749	1523.21
739.8	1517.2
739.852	1506.16
739.903	1556.12
739.954	1532.74
740.005	1514.19
740.057	1509.13
740.108	1509.06
740.159	1521.53
740.211	1519.23
740.262	1507.58
740.313	1493.59
740.364	1484.5
740.416	1497.34
740.467	1507.72
740.518	1512.29
740.569	1488.15
740.621	1501.69
740.672	1529.82
740.723	1495.03
740.774	1511.09
740.826	1506.82
740.877	1509.71
740.928	1523.78
740.979	1476.69
741.031	1493.21
741.082	1486.61
741.133	1525.85
741.184	1487.39
741.235	1486.3
741.287	1504.77
741.338	1535.58
741.389	1491.13
741.44	1529.09
741.492	1497.8
741.543	1514.62
741.594	1474.24
741.645	1512.77
741.697	1463.24
741.748	1458.6
741.799	1487.91
741.85	1495.25
741.902	1492.31
741.953	1487.07
742.004	1471.37
742.055	1458.69
742.107	1478.14
742.158	1466.01
742.209	1453.7
742.26	1473
742.311	1457.94
742.363	1479.03
742.414	1453.58
742.465	1473.54
742.516	1455.98
742.568	1444.85
742.619	1465.46
742.67	1435.49
742.721	1435.82
742.773	1477.86
742.824	1425.49
742.875	1452.37
742.926	1481.41
742.977	1448.07
743.029	1445.48
743.08	1444.53
743.131	1399.44
743.182	1443.53
743.234	1455.12
743.285	1423.88
743.336	1439.91
743.387	1445.05
743.438	1449.76
743.49	1421.18
743.541	1442.99
743.592	1441.19
743.643	1421.77
743.694	1431.05
743.746	1437.59
743.797	1451.69
743.848	1402.76
743.899	1436.85
743.951	1429.99
744.002	1430.62
744.053	1427.36
744.104	1419.63
744.155	1398.76
744.207	1430.44
744.258	1423.99
744.309	1385.41
744.36	1406.3
744.411	1420.96
744.463	1406.24
744.514	1402.63
744.565	1407.73
744.616	1405.09
744.667	1420.63
744.719	1402.01
744.77	1399.17
744.821	1391.75
744.872	1372.41
744.923	1391.46
744.975	1405.96
745.026	1392.22
745.077	1402.9
745.128	1378.06
745.179	1397.18
745.231	1396.51
745.282	1387.14
745.333	1376.13
745.384	1383.58
745.435	1395.89
745.487	1386.61
745.538	1380.45
745.589	1381.66
745.64	1378.57
745.691	1394.21
745.743	1373.76
745.794	1366.4
745.845	1378.5
745.896	1379.46
745.947	1362
745.998	1364.98
746.05	1353.79
746.101	1365.97
746.152	1353.91
746.203	1366.92
746.254	1364
746.306	1365.43
746.357	1364.12
746.408	1338.84
746.459	1356.16
746.51	1349.98
746.562	1360.61
746.613	1367.33
746.664	1355.32
746.715	1331.31
746.766	1348.66
746.817	1367.77
746.869	1343.4
746.92	1347.01
746.971	1349.6
747.022	1332.44
747.073	1325.37
747.125	1344.39
747.176	1353.28
747.227	1353.37
747.278	1336.73
747.329	1342.75
747.38	1350.92
747.432	1337.27
747.483	1333.44
747.534	1312.32
747.585	1329.55
747.636	1328.66
747.687	1328.54
747.739	1322.51
747.79	1314.04
747.841	1316.56
747.892	1326.23
747.943	1314.56
747.994	1327.63
748.046	1322.15
748.097	1307.86
748.148	1304.36
748.199	1333.98
748.25	1320.87
748.301	1327.14
748.352	1317.35
748.404	1311.33
748.455	1295.2
748.506	1316.71
748.557	1319.75
748.608	1295.45
748.659	1308.61
748.711	1306.31
748.762	1283.58
748.813	1300.82
748.864	1316.46
748.915	1289.3
748.966	1312.2
749.018	1300.44
749.069	1289.49
749.12	1291.21
749.171	1307.87
749.222	1298.66
749.273	1307.29
749.324	1321.4
749.376	1304.34
749.427	1289.53
749.478	1304.53
749.529	1312.05
749.58	1299.26
749.631	1309.94
749.682	1302.2
749.734	1303.34
749.785	1290.46
749.836	1310.43
749.887	1276.41
749.938	1258.85
749.989	1286.82
750.04	1277.23
750.092	1275.54
750.143	1276.57
750.194	1280.74
750.245	1288.23
750.296	1285.74
750.347	1293
750.398	1279.89
750.45	1260.53
750.501	1226.02
750.552	1264.39
750.603	1275.64
750.654	1266.02
750.705	1263.04
750.756	1253
750.807	1291.34
750.859	1294.32
750.91	1271.76
750.961	1271.47
751.012	1263.43
751.063	1242.15
751.114	1260.59
751.165	1257.93
751.216	1253.36
751.268	1251.54
751.319	1252.86
751.37	1252.23
751.421	1272.62
751.472	1247.38
751.523	1231.32
751.574	1253.57
751.625	1245.89
751.677	1238.01
751.728	1234.97
751.779	1227.51
751.83	1231
751.881	1249.96
751.932	1234.47
751.983	1241.38
752.034	1213.57
752.086	1234.04
752.137	1213.06
752.188	1242.91
752.239	1234.24
752.29	1224.36
752.341	1228.09
752.392	1222.32
752.443	1244.95
752.494	1231.36
752.546	1200.3
752.597	1219.73
752.648	1212.42
752.699	1223.08
752.75	1213.8
752.801	1198.01
752.852	1180.23
752.903	1211.76
752.954	1209.89
753.005	1195.95
753.057	1165.18
753.108	1206.15
753.159	1188.46
753.21	1181.99
753.261	1185.78
753.312	1181.17
753.363	1185.21
753.414	1187.29
753.465	1202.13
753.516	1180.24
753.568	1191.95
753.619	1180.73
753.67	1186.3
753.721	1213.23
753.772	1164.44
753.823	1184.74
753.874	1174.63
753.925	1191.05
753.976	1181.15
754.027	1204.97
754.079	1181.84
754.13	1181.69
754.181	1162.66
754.232	1169.85
754.283	1179.08
754.334	1174.41
754.385	1157.42
754.436	1173.11
754.487	1186.34
754.538	1166.23
754.589	1168.08
754.641	1152.54
754.692	1166.07
754.743	1154.34
754.794	1185.61
754.845	1159.68
754.896	1151.61
754.947	1171.44
754.998	1160.29
755.049	1148.62
755.1	1155.41
755.151	1170.98
755.202	1164.91
755.253	1132.82
755.305	1158.85
755.356	1141.73
755.407	1142.22
755.458	1150.61
755.509	1188.66
755.56	1151.54
755.611	1119.76
755.662	1145.7
755.713	1130.19
755.764	1128.78
755.815	1123.57
755.866	1116.06
755.917	1135.05
755.968	1119.23
756.02	1117.41
756.071	1118.33
756.122	1132.29
756.173	1117.44
756.224	1142.56
756.275	1146.73
756.326	1111.66
756.377	1123.26
756.428	1105.9
756.479	1135.85
756.53	1124.64
756.581	1122.26
756.632	1112.53
756.683	1134.89
756.734	1104.93
756.785	1098.01
756.837	1086.52
756.888	1100.37
756.939	1110.29
756.99	1114.44
757.041	1120.86
757.092	1092.29
757.143	1105.27
757.194	1100.9
757.245	1111.8
757.296	1115.5
757.347	1093.86
757.398	1073.25
757.449	1077.36
757.5	1079.95
757.551	1097.36
757.602	1086.72
757.653	1087.43
757.704	1079.51
757.755	1067.89
757.807	1071.24
757.858	1098.66
757.909	1110.63
757.917	1112
757.968	1054.05
758.02	1083.97
758.071	1075.99
758.122	1056.22
758.173	1103.74
758.224	1048.25
758.276	1079.92
758.327	1073.81
758.378	1054.13
758.429	1054.15
758.48	1073.77
758.532	1062.48
758.583	1079.5
758.634	1055.95
758.685	1065.85
758.736	1062.25
758.788	1060.43
758.839	1038.82
758.89	1058.24
758.941	1055.23
758.992	1065.76
759.044	1062.29
759.095	1048.68
759.146	1049.85
759.197	1054.55
759.248	1035.16
759.3	1061.19
759.351	1041.87
759.402	1046
759.453	1024.22
759.504	1034.66
759.556	1055
759.607	1023.71
759.658	1064.71
759.709	1038.2
759.76	1042.96
759.811	1037.5
759.863	1027.74
759.914	1063.4
759.965	1034.46
760.016	1006.62
760.067	1055.77
760.119	1042.29
760.17	1028.69
760.221	1024.87
760.272	1010.43
760.323	993.773
760.375	1005.73
760.426	1023.34
760.477	1041.17
760.528	1026.41
760.579	994.604
760.63	1052.46
760.682	1006.09
760.733	1026.99
760.784	1027.5
760.835	1003.15
760.886	1010.76
760.937	1003.2
760.989	971.495
761.04	1010.73
761.091	1012.82
761.142	982.292
761.193	1015.78
761.245	994.361
761.296	1002.42
761.347	1000.77
761.398	1013.59
761.449	980.285
761.5	1007.33
761.552	1014.69
761.603	1011
761.654	980.456
761.705	999.854
761.756	966.923
761.807	994.235
761.859	968.141
761.91	996.386
761.961	969.182
762.012	944.295
762.063	985.574
762.114	994.416
762.165	983.218
762.217	997.107
762.268	974.925
762.319	972.155
762.37	968.53
762.421	978.934
762.472	991.537
762.524	987.323
762.575	1001.02
762.626	961.894
762.677	968.228
762.728	955.782
762.779	953.435
762.831	956.964
762.882	980.082
762.933	955.417
762.984	960.379
763.035	938.121
763.086	968.307
763.137	960.178
763.189	956.877
763.24	934.183
763.291	946.576
763.342	961.845
763.393	953.611
763.444	961.336
763.495	942.838
763.547	920.991
763.598	927.284
763.649	960.307
763.7	949.475
763.751	918.001
763.802	947.949
763.853	915.955
763.905	943.129
763.956	931.873
764.007	944.428
764.058	958.595
764.109	941.207
764.16	935.552
764.211	921.796
764.263	949.226
764.314	936.604
764.365	923.834
764.416	913.973
764.467	934.854
764.518	924.508
764.569	919.055
764.621	914.522
764.672	936.474
764.723	918.771
764.774	923.549
764.825	929.802
764.876	938.779
764.927	931.01
764.978	948.881
765.03	929.609
765.081	932.028
765.132	930.671
765.183	914.894
765.234	928.758
765.285	906.789
765.336	929.194
765.387	915.282
765.439	924.675
765.49	903.724
765.541	931.282
765.592	913.273
765.643	911.514
765.694	916.122
765.745	897.414
765.796	889.141
765.848	903.135
765.899	905.07
765.95	910.813
766.001	888.309
766.052	909.781
766.103	904.226
766.154	876.777
766.205	891.291
766.256	890.73
766.308	885.297
766.359	871.781
766.41	886.497
766.461	884.329
766.512	874.328
766.563	890.202
766.614	875.603
766.665	901.004
766.716	855.428
766.768	897.277
766.819	886.089
766.87	897.584
766.921	872.846
766.972	892.281
767.023	850.74
767.074	865.8
767.125	858.068
767.176	861.577
767.227	871.295
767.279	871.02
767.33	880.173
767.381	895.229
767.432	885.022
767.483	870.055
767.534	882.236
767.585	859.776
767.636	868.164
767.687	860.93
767.739	868.351
767.79	880.25
767.841	850.108
767.892	868.241
767.943	875.527
767.994	868.339
768.045	862.384
768.096	860.385
768.147	846.618
768.198	857.509
768.249	833.341
768.301	837.158
768.352	866.582
768.403	839.032
768.454	847.422
768.505	823.553
768.556	842.893
768.607	866.407
768.658	848.783
768.709	852.385
768.76	844.427
768.811	827.02
768.862	831.201
768.914	821.374
768.965	833.844
769.016	851.404
769.067	842.702
769.118	830.13
769.169	837.364
769.22	832.666
769.271	830.834
769.322	821.541
769.373	829.689
769.424	819.649
769.475	821.555
769.526	821.492
769.578	837.602
769.629	814.111
769.68	818.951
769.731	833.604
769.782	829.609
769.833	821.771
769.884	813.1
769.935	807.467
769.986	820.554
770.037	813.566
770.088	827.359
770.139	804.898
770.19	817.018
770.242	806.383
770.293	804.75
770.344	805.257
770.395	813.764
770.446	820.346
770.497	790.096
770.548	799.168
770.599	790.677
770.65	782.364
770.701	791.889
770.752	808.037
770.803	777.076
770.854	789.883
770.905	792.655
770.956	771.908
771.007	768.031
771.058	794.394
771.11	784.012
771.161	771.318
771.212	765.149
771.263	778.569
771.314	776.035
771.365	778.682
771.416	777.417
771.467	769.668
771.518	777.321
771.569	769.654
771.62	757.632
771.671	759.858
771.722	794.649
771.773	778.325
771.824	767.895
771.875	785.945
771.926	766.684
771.977	762.346
772.028	774.678
772.079	781.885
772.131	769.412
772.182	775.052
772.233	781.01
772.284	749.494
772.335	768.145
772.386	745.423
772.437	748.815
772.488	750.279
772.539	756.427
772.59	756.101
772.641	774.263
772.692	763.816
772.743	750
772.794	745.042
772.845	760.433
772.896	752.34
772.947	757.873
772.998	746.871
773.049	748.097
773.1	763.986
773.151	727.085
773.202	738.52
773.253	740.3
773.304	746.418
773.355	748.594
773.406	745.208
773.457	752.042
773.508	747.904
773.56	737.935
773.611	746.086
773.662	740.787
773.713	721.983
773.764	718.137
773.815	733.1
773.866	739.031
773.917	743.896
773.968	727.151
774.019	731.939
774.07	719.07
774.121	726.071
774.172	726.044
774.223	724.277
774.274	707.714
774.325	716.09
774.376	736.522
774.427	729.495
774.478	716.475
774.529	715.448
774.58	702.65
774.631	730.895
774.682	706.532
774.733	706.826
774.784	705.333
774.835	713.876
774.886	710.975
774.937	714.391
774.988	716.681
775.039	701.065
775.09	709.144
775.141	699.633
775.192	696.297
775.243	708.629
775.294	697.948
775.345	713.505
775.396	709.367
775.447	692.117
775.498	700.81
775.549	696.476
775.6	706.303
775.651	693.955
775.702	690.251
775.753	701.849
775.804	697.122
775.855	688.654
775.906	696.883
775.957	699.904
776.008	700.895
776.059	705.879
776.11	676.558
776.161	675.346
776.212	686.486
776.263	679.794
776.314	675.951
776.365	690.015
776.416	679.209
776.467	679.244
776.518	685.32
776.569	660.474
776.62	676.371
776.671	680.819
776.722	675.834
776.773	673.409
776.824	683.739
776.875	670.989
776.926	660.601
776.977	659.772
777.028	660.202
777.079	657.607
777.13	655.323
777.181	659.324
777.232	669.51
777.283	662.514
777.334	666.535
777.385	654.918
777.436	661.865
777.487	659.228
777.538	657.641
777.589	669.403
777.64	662.915
777.691	655.881
777.742	652.641
777.793	643.371
777.844	648.702
777.895	649.388
777.946	653.755
777.997	655.447
778.047	646.393
778.098	660.955
778.149	657.932
778.2	642.336
778.251	642
778.302	645.158
778.353	635.957
778.404	632.955
778.455	645.296
778.506	642.277
778.557	636.335
778.608	633.43
778.659	642.186
778.71	642.187
778.761	652
778.812	641.167
778.863	633.193
778.914	643.578
778.965	647.162
779.016	635.338
779.067	637.498
779.118	636.776
779.169	632.451
779.22	632.895
779.271	635.288
779.322	614.918
779.373	616.681
779.424	620.868
779.474	616.059
779.525	614.952
779.576	619.702
779.627	629.064
779.678	615.647
779.729	622.298
779.78	627.316
779.831	615.755
779.882	627.034
779.933	623.234
779.984	603.438
780.035	598.659
780.086	615.989
780.137	625.272
780.188	611.956
780.239	603.835
780.29	604.905
780.341	626.087
780.392	623.966
780.442	606.987
780.493	609.892
780.544	621.047
780.595	622.031
780.646	622.893
780.697	613.143
780.748	606.641
780.799	606.227
780.85	613.999
780.901	602.906
780.952	608.538
781.003	596.607
781.054	579.053
781.105	587.33
781.156	603.779
781.207	588.002
781.257	601.727
781.308	604.974
781.359	605.736
781.41	598.903
781.461	586.452
781.512	589.829
781.563	582.127
781.614	589.237
781.665	600.964
781.716	585.233
781.767	591.758
781.818	602.161
781.869	577.148
781.919	590.102
781.97	578.251
782.021	585.977
782.072	590.838
782.123	565.524
782.174	563.165
782.225	588.869
782.276	580.293
782.327	588.489
782.378	577.805
782.429	588.697
782.48	559.371
782.531	553.616
782.581	583.384
782.632	579.091
782.683	562.603
782.734	578.931
782.785	590.668
782.836	599.371
782.887	581.795
782.938	571.16
782.989	570.167
783.04	571.001
783.091	560.699
783.141	570.029
783.192	553.495
783.243	556.064
783.294	565.941
783.345	551.674
783.396	551.782
783.447	562.276
783.498	563.663
783.549	568.798
783.6	548.463
783.651	574.206
783.701	553.227
783.752	550.631
783.803	532.459
783.854	555.242
783.905	544.851
783.956	559.427
784.007	560.408
784.058	538.096
784.1	558
784.151	554.01
784.202	545.956
784.253	565.86
784.304	538.061
784.355	534.167
784.406	537.817
784.458	528.018
784.509	553.863
784.56	555.69
784.611	518.297
784.662	549.684
784.713	534.033
784.764	520.034
784.815	545.356
784.866	543.884
784.917	537.617
784.968	541.06
785.019	510.723
785.07	522.509
785.121	547.271
785.172	573.213
785.223	525.576
785.274	515.474
785.326	527.552
785.377	558.187
785.428	539.78
785.479	516.116
785.53	510.674
785.581	517.413
785.632	522.771
785.683	512.973
785.734	521.571
785.785	552.092
785.836	495.876
785.887	495.17
785.938	529.545
785.989	510.455
786.04	528.003
786.091	504.222
786.142	520.389
786.193	532.212
786.244	539.114
786.295	533.554
786.346	523.137
786.397	532.072
786.448	519.168
786.5	527.065
786.551	482.319
786.602	509.843
786.653	526.561
786.704	526.838
786.755	499.867
786.806	511.971
786.857	504.034
786.908	502.155
786.959	490.933
787.01	523.768
787.061	505.125
787.112	501.375
787.163	503.318
787.214	498.68
787.265	509.625
787.316	503.52
787.367	500.489
787.418	506.994
787.469	503.735
787.52	490.77
787.571	515.512
787.622	491.731
787.673	506.736
787.724	498.547
787.775	501.492
787.826	496.86
787.877	476.322
787.928	506.147
787.979	499.961
788.03	494.779
788.081	507.001
788.132	482.467
788.183	489.929
788.234	497.248
788.285	491.844
788.336	484.098
788.387	477.767
788.438	481.624
788.49	488.409
788.541	484.418
788.591	461.765
788.643	496.786
788.694	484.213
788.745	482.02
788.796	494.39
788.847	493.874
788.898	476.707
788.949	477.645
789	468.352
789.051	489.48
789.102	484.059
789.153	481.48
789.204	477.266
789.255	455.383
789.306	493.694
789.357	465.721
789.408	480.255
789.459	461.925
789.51	467.028
789.561	479.244
789.612	485.088
789.663	470.2
789.714	471.956
789.765	453.248
789.816	448.336
789.867	477.305
789.918	466.444
789.969	458.256
790.02	453.678
790.071	453.528
790.122	475.294
790.173	462.175
790.224	463.446
790.275	460.741
790.326	447.536
790.377	462.265
790.428	463.59
790.479	437.384
790.53	462.871
790.581	452.159
790.632	458.082
790.682	479.198
790.734	469.075
790.784	446.308
790.836	438.734
790.886	453.112
790.937	464.204
790.988	440.092
791.039	456.102
791.09	447.606
791.141	449.309
791.192	444.62
791.243	435.814
791.294	448.921
791.345	449.88
791.396	441.018
791.447	450.877
791.498	451.411
791.549	434.247
791.6	457.674
791.651	449.887
791.702	436.456
791.753	453.038
791.804	439.255
791.855	452.074
791.906	431.118
791.957	428.551
792.008	435.926
792.059	447.355
792.11	436.12
792.161	433.242
792.212	435.061
792.263	443.186
792.314	438.311
792.365	439.143
792.416	438.092
792.467	426.632
792.518	433.147
792.569	430.414
792.62	435.682
792.671	420.762
792.722	419.32
792.773	409.886
792.823	428.56
792.874	442.902
792.925	451.625
792.976	421.855
793.027	435.016
793.078	420.274
793.129	421.944
793.18	426.8
793.231	426.578
793.282	415.497
793.333	427.196
793.384	412.128
793.435	398.398
793.486	429.851
793.537	423.265
793.588	420.604
793.639	412.866
793.69	418.004
793.741	420.855
793.792	408.636
793.843	413.467
793.894	413.764
793.945	419.223
793.995	423.19
794.046	413.264
794.097	398.255
794.148	416.367
794.199	411.021
794.25	423.712
794.301	421.616
794.352	409.313
794.403	401.066
794.454	419.705
794.505	411.797
794.556	413.701
794.607	407.121
794.658	398.108
794.709	410.435
794.76	409.69
794.811	412.752
794.862	413.654
794.912	402.545
794.963	396.272
795.014	405.71
795.065	403.879
795.116	397.837
795.167	414.559
795.218	402.916
795.269	406.987
795.32	404.963
795.371	395.107
795.422	392.797
795.473	399.772
795.524	395.778
795.575	394.633
795.625	385.474
795.676	404.878
795.727	385.157
795.778	388.623
795.829	383.233
795.88	392.106
795.931	396.362
795.982	406.352
796.033	387.813
796.084	393.166
796.135	387.056
796.186	389.68
796.237	384.732
796.287	389.968
796.338	370.592
796.389	376.854
796.44	382.329
796.491	392.519
796.542	384.579
796.593	378
796.644	379.417
796.695	371.947
796.746	375.779
796.797	385.548
796.848	386.335
796.898	377.091
796.949	376.497
797	380.894
797.051	385.473
797.102	387.16
797.153	372.385
797.204	386.453
797.255	375.766
797.306	391.668
797.357	379.822
797.408	374.063
797.458	369.605
797.509	381.192
797.56	379.482
797.611	388.82
797.662	384.015
797.713	389.575
797.764	379.835
797.815	370.68
797.866	367.646
797.917	372.357
797.968	369.995
798.018	376.128
798.069	372.141
798.12	380.595
798.171	360.959
798.222	362.505
798.273	364.111
798.324	373.312
798.375	366.914
798.426	367.129
798.477	364.904
798.527	356.412
798.578	363.268
798.629	372.975
798.68	372.396
798.731	359.364
798.782	373.563
798.833	376.109
798.884	357.006
798.935	366.444
798.985	361.367
799.036	348.854
799.087	363.783
799.138	359.534
799.189	364.879
799.24	355.218
799.291	357.217
799.342	363.059
799.393	358.57
799.443	351.158
799.494	344.505
799.545	342.96
799.596	354.071
799.647	362.431
799.698	349.633
799.749	352.434
799.8	347.771
799.85	352.393
799.901	354.818
799.952	358.652
800.003	350.396
800.054	344.18
800.105	344.937
800.156	346.856
800.207	347.652
800.257	349.318
800.308	365.391
800.359	349.603
800.41	340.674
800.461	329.463
800.512	344.498
800.563	339.635
800.613	354.074
800.664	346.796
800.715	345.114
800.766	339.505
800.817	333.595
800.868	343.609
800.919	336.725
800.97	338.777
801.02	347.587
801.071	345.42
801.122	345.605
801.173	334.406
801.224	337.415
801.275	315.973
801.326	326.626
801.376	328.599
801.427	325.945
801.478	333.73
801.529	341.46
801.58	340.257
801.631	329.988
801.682	324.577
801.732	337.787
801.783	327.111
801.834	329.364
801.885	337.29
801.936	325.935
801.987	318.826
802.038	334.865
802.088	331.186
802.139	328.537
802.19	319.856
802.241	318.771
802.292	325.353
802.343	325.207
802.393	329.206
802.444	329.444
802.495	338.815
802.546	343.689
802.597	320.361
802.648	319.822
802.698	320.046
802.749	316.963
802.8	317.185
802.851	328.446
802.902	315.358
802.953	333.404
803.004	320.495
803.054	318.027
803.105	304.74
803.156	309.324
803.207	314.023
803.258	319.366
803.309	326.414
803.359	334.658
803.41	314.827
803.461	317.208
803.512	310.511
803.563	313.652
803.614	315.619
803.664	317.742
803.715	326.039
803.766	307.206
803.817	319.296
803.868	315.898
803.919	324.952
803.969	312.037
804.02	315.947
804.071	314.129
804.122	313.308
804.173	306.877
804.223	326.978
804.274	304.802
804.325	321.779
804.376	306.279
804.427	312.368
804.478	309.139
804.528	314.781
804.579	324.474
804.63	302.847
804.681	298.319
804.732	306.211
804.782	300.47
804.833	310.122
804.884	312.046
804.935	313.134
804.986	311.29
805.036	308.033
805.087	295.913
805.138	302.592
805.189	298.888
805.24	315.02
805.291	312.129
805.341	304.658
805.392	289.887
805.443	298.617
805.494	292.117
805.545	305.935
805.595	302.647
805.646	289.941
805.697	299.072
805.748	296.493
805.799	295.878
805.849	304.917
805.9	303.288
805.951	292.585
806.002	296.782
806.053	294.303
806.103	287.278
806.154	296.25
806.205	282.125
806.256	297.35
806.307	298.477
806.357	300.234
806.408	287.572
806.459	293.371
806.51	290.129
806.561	291.656
806.611	286.974
806.662	288.145
806.713	290.864
806.764	285.747
806.815	288.761
806.865	282.239
806.916	284.494
806.967	299.667
807.018	290.149
807.068	279.257
807.119	282.28
807.17	290.339
807.221	286.205
807.272	302.946
807.322	299.744
807.373	289.989
807.424	287.791
807.475	296.438
807.526	299.324
807.576	294.226
807.627	295.564
807.678	277.71
807.729	284.574
807.779	283.283
807.83	283.098
807.881	275.708
807.932	287.611
807.982	289.229
808.033	282.303
808.084	275.625
808.135	281.827
808.186	276.567
808.236	273.119
808.287	272.722
808.338	286.036
808.389	282.157
808.439	279.344
808.49	275.386
808.541	280.058
808.592	275.585
808.643	277.366
808.693	284.184
808.744	271.116
808.795	267.493
808.846	275.018
808.896	282.623
808.947	275.273
808.998	271.243
809.049	270.421
809.099	256.327
809.15	265.74
809.201	271.928
809.252	268.604
809.302	276.491
809.353	282.515
809.404	266.543
809.455	271.56
809.505	284.483
809.556	275.425
809.607	279.799
809.658	279.616
809.708	270.039
809.759	266
809.81	276.588
809.861	274.023
809.911	264.843
809.962	272.376
810.013	274.078
810.064	279.747
810.114	267.264
810.133	258
810.183	264
810.234	269.994
810.285	267.961
810.336	252.008
810.387	262.052
810.438	262.078
810.489	263.998
810.54	248.139
810.591	275.826
810.642	262.194
810.693	238.508
810.743	253.915
810.794	253.99
810.845	263.988
810.896	262.185
810.947	265.732
810.998	267.424
811.049	261.788
811.1	254.491
811.151	252.137
811.202	252.148
811.253	261.84
811.303	258.061
811.354	255.538
811.405	255.53
811.456	269.221
811.507	262.058
811.558	244.622
811.609	255.938
811.66	250.414
811.711	253.661
811.762	257.836
811.813	263.581
811.863	261.885
811.914	223.713
811.965	246.103
812.016	252.435
812.067	254.082
812.118	263.119
812.169	272.445
812.22	248.044
812.271	259.212
812.321	246.487
812.372	251.666
812.423	263.957
812.474	244.899
812.525	235.529
812.576	262.501
812.627	239.283
812.678	256.066
812.729	249.951
812.779	251.535
812.83	261.869
812.881	264.383
812.932	250.094
812.983	241.124
813.034	248.293
813.085	242.207
813.136	243.635
813.187	253.394
813.237	235.855
813.288	256.006
813.339	244.612
813.39	225.767
813.441	239.848
813.492	233.064
813.543	234.871
813.594	257.554
813.644	247.207
813.695	241.681
813.746	242.701
813.797	239.874
813.848	233.92
813.899	224.782
813.95	244.321
814.001	238.215
814.051	235.182
814.102	238.599
814.153	240.964
814.204	231.867
814.255	235.094
814.306	234.08
814.357	241.345
814.408	244.135
814.458	234.473
814.509	233.025
814.56	238.518
814.611	232.216
814.662	225.025
814.713	230.292
814.764	219.564
814.814	228.213
814.865	235.352
814.916	244.432
814.967	241.283
815.018	234.016
815.069	237.239
815.12	228.171
815.17	226.052
815.221	220.474
815.272	223.196
815.323	230.385
815.374	229.596
815.425	231.208
815.476	226.402
815.526	230.785
815.577	235.649
815.628	235.888
815.679	229.362
815.73	223.887
815.781	231.608
815.832	224.022
815.882	225.539
815.933	224.44
815.984	237.824
816.035	229.519
816.086	232.121
816.137	227.33
816.188	228.467
816.238	227.988
816.289	227.432
816.34	222.121
816.391	227.574
816.442	226.318
816.493	233.838
816.543	227.275
816.594	225.689
816.645	227.595
816.696	207.493
816.747	216.937
816.798	216.742
816.848	220.813
816.899	236.823
816.95	224.615
817.001	229.155
817.052	223.08
817.103	226.53
817.153	207.479
817.204	222.974
817.255	231.602
817.306	224.184
817.357	222.75
817.408	237.187
817.458	219.523
817.509	225.514
817.56	218.597
817.611	215.131
817.662	223.071
817.713	215.845
817.763	220.557
817.814	212.439
817.865	214.742
817.916	217.888
817.967	220.629
818.018	211.76
818.068	219.186
818.119	219.166
818.17	213.373
818.221	224.811
818.272	214.897
818.323	207.994
818.373	208.181
818.424	212.337
818.475	216.912
818.526	209.119
818.577	210.767
818.627	214.189
818.678	210.365
818.729	213.631
818.78	208.358
818.831	220.567
818.881	219.133
818.932	199.856
818.983	206.98
819.034	204.323
819.085	209.084
819.135	216.901
819.186	215.123
819.237	209.466
819.288	203.758
819.339	204.894
819.39	204.271
819.44	209.463
819.491	203.098
819.542	195.619
819.593	205.427
819.644	197.654
819.694	201.286
819.745	207.104
819.796	210.517
819.847	206.793
819.898	207.018
819.948	196.468
819.999	205.797
820.05	198.274
820.101	202.251
820.152	209.031
820.202	204.829
820.253	205.579
820.304	207.112
820.355	194.766
820.406	203.433
820.456	207.149
820.507	202.264
820.558	204.389
820.609	206.66
820.66	210.972
820.71	193.612
820.761	191.848
820.812	195.634
820.863	204.645
820.914	205.437
820.964	196.676
821.015	208.595
821.066	206.246
821.117	200.1
821.167	196.725
821.218	200.447
821.269	190.679
821.32	206.407
821.371	198.321
821.421	205.821
821.472	202.017
821.523	192.859
821.574	193.49
821.624	207.058
821.675	185.867
821.726	202.657
821.777	200.549
821.828	194.092
821.878	196.442
821.929	192.937
821.98	195.001
822.031	195.339
822.081	181.035
822.132	186.533
822.183	194.545
822.234	209.585
822.285	188.295
822.335	188.315
822.386	191.834
822.437	190.508
822.488	194.867
822.538	189.873
822.589	196.223
822.64	197.472
822.691	200.245
822.741	191.741
822.792	188.035
822.843	197.067
822.894	188.657
822.945	193.72
822.995	189.574
823.046	185.925
823.097	178.574
823.148	191.762
823.198	190.802
823.249	184.051
823.3	183.984
823.351	178.168
823.401	188.988
823.452	191.946
823.503	187.004
823.554	182.988
823.604	182.041
823.655	186.182
823.706	179.957
823.757	190.803
823.807	180.541
823.858	174
823.909	182.93
823.96	175.301
824.01	193.21
824.061	175.102
824.112	182.858
824.163	175.264
824.213	182.477
824.264	178.247
824.315	180.172
824.366	185.267
824.416	179.512
824.467	188.734
824.518	182.874
824.569	192.355
824.619	176.865
824.67	176.523
824.721	184.629
824.772	181.315
824.822	172.52
824.873	188.928
824.924	179.286
824.974	174.943
825.025	179.353
825.076	167.491
825.127	184.124
825.177	179.133
825.228	182.432
825.279	184.666
825.33	183.816
825.38	182.291
825.431	176.567
825.482	177.763
825.533	168.379
825.583	185.779
825.634	175.739
825.685	186.423
825.735	177.405
825.786	178.946
825.837	174.559
825.888	170.488
825.938	174.209
825.989	180.675
826.04	180.096
826.091	169.914
826.141	177.26
826.192	174.515
826.243	174.46
826.293	175.222
826.344	178.08
826.395	170.53
826.446	158.667
826.496	163.076
826.547	174.693
826.598	182.308
826.648	174.685
826.699	176.314
826.75	176.231
826.801	177.605
826.851	176.804
826.902	172.348
826.953	176.407
827.003	170.904
827.054	171.698
827.105	167.758
827.156	177.869
827.206	166.477
827.257	161.464
827.308	166.209
827.358	170.549
827.409	173.742
827.46	173.889
827.511	171.642
827.561	175.542
827.612	175.577
827.663	168.89
827.713	174.038
827.764	172.487
827.815	165.552
827.865	160.583
827.916	163.397
827.967	166.207
828.018	171.013
828.068	169.204
828.119	163.223
828.17	157.367
828.22	168.952
828.271	166.159
828.322	159.987
828.372	161.807
828.423	164.579
828.474	170.958
828.525	169.965
828.575	170.138
828.626	167.724
828.677	161.77
828.727	159.282
828.778	169.165
828.829	167.269
828.879	166.527
828.93	168.422
828.981	160.552
829.031	158.52
829.082	165.002
829.133	163.828
829.183	167.015
829.234	160.691
829.285	161.233
829.336	170.165
829.386	161.839
829.437	158.663
829.488	159.073
829.538	162.239
829.589	169.211
829.64	166.556
829.69	158.843
829.741	167.76
829.792	167.093
829.842	160.002
829.893	164.702
829.944	160.015
829.994	159.83
830.045	155.773
830.096	150.66
830.146	157.388
830.197	158.338
830.248	159.835
830.298	158.825
830.349	165.003
830.4	161.433
830.45	165.716
830.501	165.316
830.552	166.106
830.602	164.796
830.653	161.786
830.704	154.654
830.754	159.014
830.805	163.632
830.856	168.062
830.906	160.394
830.957	159.276
831.008	153.104
831.058	147.723
831.109	149.735
831.16	164.423
831.21	160.551
831.261	156.855
831.312	156.774
831.362	154.151
831.413	151.659
831.464	154.124
831.514	157.074
831.565	165.165
831.616	164.069
831.666	158.693
831.717	160.961
831.767	158.706
831.818	155.301
831.869	155.381
831.919	156.261
831.97	160.385
832.021	155.439
832.071	153.685
832.122	154.173
832.173	163.311
832.223	161.809
832.274	144.82
832.325	143.526
832.375	147.281
832.426	148.313
832.477	149.498
832.527	150.188
832.578	157.381
832.628	156.042
832.679	152.726
832.73	151.297
832.78	154.483
832.831	159.186
832.882	153.747
832.932	139.889
832.983	149.341
833.034	151.912
833.084	145.126
833.135	149.69
833.185	159.128
833.236	159.805
833.287	154.663
833.337	151.785
833.388	153.435
833.439	156
833.489	150.452
833.54	149.181
833.59	154.814
833.641	154.28
833.692	151.526
833.742	150.101
833.793	152.289
833.844	149.933
833.894	149.301
833.945	159.059
833.995	152.826
834.046	142.715
834.097	142.758
834.147	153.359
834.198	145.098
834.249	151.876
834.299	149.656
834.35	145.55
834.4	150.839
834.451	150.402
834.502	143.926
834.552	139.852
834.603	135.684
834.653	148.433
834.704	153.144
834.755	140.019
834.805	141.034
834.856	138.506
834.906	137.712
834.957	149.823
835.008	149.064
835.058	151.375
835.109	144.198
835.16	150.048
835.21	157.346
835.261	146.787
835.311	144.369
835.362	146.249
835.413	146.202
835.463	142.159
835.514	140.105
835.564	137.273
835.615	145.446
835.666	140.806
835.716	147.468
835.767	138.504
835.817	142.195
835.868	148.247
835.919	144.647
835.969	155.64
836.02	156.121
836.07	134.469
836.121	138.031
836.161	146
836.212	142
836.263	143.994
836.314	138.034
836.365	155.916
836.415	147.918
836.466	145.883
836.517	128.148
836.568	149.821
836.618	141.74
836.669	141.935
836.72	147.799
836.771	138.025
836.821	145.865
836.872	134.069
836.923	135.917
836.974	140.219
837.024	141.97
837.075	145.691
837.126	143.726
837.177	145.806
837.227	130.163
837.278	132.494
837.329	144.039
837.38	149.601
837.43	149.61
837.481	136.069
837.532	138.051
837.583	130.206
837.633	137.274
837.684	135.552
837.735	130.086
837.786	148.926
837.836	136.299
837.887	130.048
837.938	141.335
837.989	145.486
838.039	137.634
838.09	137.015
838.141	137.673
838.192	147.247
838.242	134.42
838.293	150.259
838.344	126.922
838.395	139.578
838.445	131.281
838.496	131.443
838.547	134.212
838.598	146.259
838.648	144.469
838.699	132.262
838.75	135.734
838.801	130.333
838.851	144.38
838.902	136.694
838.953	141.953
839.003	130.986
839.054	143.35
839.105	125.622
839.156	128.976
839.206	137.771
839.257	134.233
839.308	134.702
839.359	134.493
839.409	142.704
839.46	126.746
839.511	130.415
839.562	132.421
839.612	135.17
839.663	138.486
839.714	130.846
839.764	127.22
839.815	131.137
839.866	138.526
839.917	134.134
839.967	130.408
840.018	132.721
840.069	123.213
840.119	129.242
840.17	130.487
840.221	133.446
840.272	128.943
840.322	127.115
840.373	128.497
840.424	128.72
840.474	131.289
840.525	129.145
840.576	132.911
840.627	141.63
840.677	127.948
840.728	128.05
840.779	128.749
840.829	126.413
840.88	134.888
840.931	127.611
840.982	133.634
841.032	123.135
841.083	127.497
841.134	130.244
841.184	132.59
841.235	127.509
841.286	122.756
841.337	126.278
841.387	124.691
841.438	128.456
841.489	131.895
841.539	126.349
841.59	127.839
841.641	135.669
841.691	126.303
841.742	128.107
841.793	126.706
841.844	130.501
841.894	125.113
841.945	122.46
841.996	130.005
842.046	123.085
842.097	129.489
842.148	118.94
842.198	126.359
842.249	127.761
842.3	130.8
842.351	134.299
842.401	113.62
842.452	132.557
842.503	125.804
842.553	114.436
842.604	125.018
842.655	128.701
842.705	123.725
842.756	124.24
842.807	126.377
842.857	122.457
842.908	120.172
842.959	124.034
843.009	130.368
843.06	126.068
843.111	123.312
843.161	129.863
843.212	131.627
843.263	126.809
843.314	128.26
843.364	114.75
843.415	124.434
843.466	122.098
843.516	127.507
843.567	120.532
843.618	131.561
843.668	117.606
843.719	126.765
843.77	124.941
843.82	110.486
843.871	118.418
843.922	122.6
843.972	126.058
844.023	119.094
844.074	118.942
844.124	116.105
844.175	121.999
844.226	129.084
844.276	116.566
844.327	115.376
844.378	121.083
844.428	115.776
844.479	115.364
844.53	113.529
844.58	116.822
844.631	114.015
844.682	122.705
844.732	115.055
844.783	109.954
844.834	119.109
844.884	121.797
844.935	125.72
844.986	118.865
845.036	118
845.087	120.42
845.138	123.631
845.188	115.35
845.239	118.738
845.29	112.278
845.34	114.061
845.391	116.698
845.442	116.46
845.492	109.24
845.543	127.28
845.594	113.853
845.644	118.785
845.695	116.427
845.745	115.735
845.796	123.541
845.847	119.232
845.897	118.903
845.948	119.414
845.999	125.801
846.049	119.614
846.1	115.808
846.151	113.053
846.201	124.322
846.252	111.059
846.303	110.743
846.353	120.623
846.404	114.956
846.455	118.668
846.505	111.153
846.556	110.873
846.606	116.542
846.657	115.371
846.708	111.233
846.758	116
846.809	114.646
846.86	118.385
846.91	115.881
846.961	110.469
847.012	118.508
847.062	117.838
847.113	112.202
847.163	108.687
847.214	114.379
847.265	110.739
847.315	106.19
847.366	117.854
847.417	112.863
847.467	115.133
847.518	115.272
847.568	109.108
847.619	113.723
847.67	107.195
847.72	115.504
847.771	115.11
847.822	109.447
847.872	114.076
847.923	102.91
847.973	105.172
848.024	114.609
848.075	115.151
848.125	118.339
848.176	112.613
848.227	119.074
848.277	114.464
848.328	110.507
848.378	103.663
848.429	112.203
848.48	112.977
848.53	112.034
848.581	112.094
848.631	111.287
848.682	117.886
848.733	116.723
848.783	117.114
848.834	114.52
848.885	108.61
848.935	113.507
848.986	113.897
849.036	113.793
849.087	111.835
849.138	102.374
849.188	109.823
849.239	113.096
849.289	109.023
849.34	111.949
849.391	107.047
849.441	103.936
849.492	108.877
849.542	98.3177
849.593	117.596
849.644	106.915
849.694	109.885
849.745	102.05
849.795	105.138
849.846	114.93
849.897	106.207
849.947	104.612
849.998	112.349
850.048	111.06
850.099	108.133
850.15	107.706
850.2	111.984
850.251	108.016
850.301	102.678
850.352	106.773
850.403	113.163
850.453	107.014
850.504	104.912
850.554	110.953
850.605	107.29
850.656	101.391
850.706	108.33
850.757	112.527
850.807	106.452
850.858	104.775
850.908	101.803
850.959	105.11
851.01	109.296
851.06	107.69
851.111	107.405
851.161	106.153
851.212	105.47
851.263	105.372
851.313	97.0122
851.364	103.144
851.414	106.622
851.465	107.095
851.515	104.82
851.566	102.924
851.617	103.887
851.667	104.267
851.718	103.587
851.768	111.897
851.819	103.014
851.869	103.318
851.92	100.423
851.971	102.421
852.021	106.286
852.072	99.6951
852.122	100.283
852.173	100.792
852.223	100.445
852.274	108.729
852.325	104.388
852.375	102.853
852.426	107.518
852.476	98.5752
852.527	98.2313
852.577	106.13
852.628	95.7482
852.678	100.315
852.729	102.065
852.78	103.034
852.83	107.418
852.881	94.8458
852.931	97.5662
852.982	101.643
853.032	99.2942
853.083	104.072
853.133	99.3645
853.184	97.9276
853.235	102.466
853.285	97.6991
853.336	96.8898
853.386	96.7955
853.437	101.151
853.487	92.768
853.538	103.57
853.588	105.425
853.639	108.656
853.69	106.575
853.74	106.076
853.791	106.823
853.841	108.057
853.892	96.0992
853.942	94.4227
853.993	98.4525
854.043	99.9851
854.094	97.2519
854.144	95.2812
854.195	105.701
854.246	102.089
854.296	96.9387
854.347	94.6008
854.397	101.227
854.448	99.8283
854.498	100.398
854.549	100.267
854.599	93.6029
854.65	95.4905
854.7	100.737
854.751	101.594
854.801	100.472
854.852	99.3181
854.902	100
854.953	95.9112
855.004	97.632
855.054	101.072
855.105	97.0613
855.155	94.5996
855.206	96.5864
855.256	92.4494
855.307	99.4487
855.357	94.5547
855.408	96.0316
855.458	94.0566
855.509	100.306
855.559	98.6355
855.61	96.0421
855.66	93.9629
855.711	91.6062
855.761	93.8827
855.812	99.4405
855.862	98.5658
855.913	91.3465
855.964	97.9547
856.014	98.9428
856.065	97.6521
856.115	92.1359
856.166	92.9352
856.216	95.4058
856.267	99.9069
856.317	100.921
856.368	88.656
856.418	90.6872
856.469	91.1928
856.519	96.4381
856.57	98.4521
856.62	98.6059
856.671	99.3868
856.721	96.7956
856.772	95.4452
856.822	97.7029
856.873	93.58
856.923	90.1305
856.974	97.0642
857.024	101.703
857.075	97.8543
857.125	89.1247
857.176	89.3096
857.226	94.2431
857.277	97.3219
857.327	94.4
857.378	95.5903
857.428	91.3654
857.479	85.7752
857.529	96.3286
857.58	97.2985
857.63	89.4837
857.681	91.8573
857.731	91.984
857.782	87.1553
857.832	92.4768
857.883	86.1613
857.933	81.8485
857.984	90.4678
858.034	95.2346
858.085	92.1043
858.135	90.2175
858.186	96.8961
858.236	92.2743
858.287	80.6184
858.337	86.7588
858.388	95.1276
858.438	97.8775
858.489	95.3738
858.539	93.6646
858.589	88.5642
858.64	95.5743
858.69	94.4009
858.741	88.2319
858.791	93.7394
858.842	94.0118
858.892	93.9273
858.943	95.4382
858.993	94.1272
859.044	96.6253
859.094	89.625
859.145	91.3257
859.195	95.5129
859.246	90.5076
859.296	89.9463
859.347	95.3601
859.397	94.8865
859.448	92.8261
859.498	90.0778
859.549	93.0728
859.599	93.8063
859.649	89.0336
859.7	86.6511
859.75	92.2262
859.801	85.5453
859.851	85.0027
859.902	85.9312
859.952	91.0837
860.003	95.6594
860.053	95.3132
860.104	93.6908
860.154	91.8297
860.205	86.614
860.255	86.8863
860.305	86.3137
860.356	94.5202
860.406	95.4346
860.457	89.6443
860.507	88.4376
860.558	94.164
860.608	86.3989
860.659	84.5944
860.709	89.6771
860.76	87.7858
860.81	86.5952
860.861	93.7749
860.911	87.5218
860.961	91.8239
861.012	91.7476
861.062	90.2764
861.113	86.3642
861.163	87.8552
861.214	88.642
861.264	87.5782
861.315	80.1213
861.365	81.1975
861.415	85.5502
861.466	87.4301
861.516	81.9222
861.567	89.0085
861.617	92.3449
861.668	92.0306
861.718	86.0587
861.769	84.6343
861.819	81.8355
861.869	89.2578
861.92	93.1066
861.97	90
862.021	91.6592
862.071	95.9801
862.112	87.9961
862.162	91.9803
862.213	82.0256
862.263	78.034
862.314	84.0307
862.365	89.9547
862.415	85.9336
862.466	84.0496
862.516	88.0053
862.567	86.0678
862.618	84.0145
862.668	74.1345
862.719	87.9517
862.77	91.7583
862.82	87.9528
862.871	84.0271
862.921	86.0348
862.972	91.7997
863.023	85.6872
863.073	89.4802
863.124	91.6716
863.174	82.1068
863.225	84.0126
863.276	83.9873
863.326	74.5445
863.377	91.8012
863.427	99.438
863.478	91.534
863.529	76.5426
863.579	80.4997
863.63	89.6969
863.68	94.8606
863.731	87.537
863.782	84.1201
863.832	91.751
863.883	85.6018
863.933	100.404
863.984	93.4841
864.034	87.6136
864.085	83.7724
864.136	85.8482
864.186	80.3183
864.237	89.2521
864.287	88.8918
864.338	84.9591
864.389	83.3814
864.439	92.9129
864.49	78.4631
864.54	85.2464
864.591	75.807
864.642	92.8026
864.692	84.2109
864.743	83.8946
864.793	81.9077
864.844	86.4301
864.894	83.4004
864.945	91.0505
864.996	76
865.046	86.5251
865.097	86.6991
865.147	85.2924
865.198	82.9723
865.248	82.9576
865.299	87.1456
865.35	76.3901
865.4	89.8714
865.451	88.3555
865.501	78.9051
865.552	71.9031
865.603	76.9306
865.653	78.3509
865.704	83.1235
865.754	84.314
865.805	71.8645
865.855	91.7977
865.906	81.4613
865.956	77.9475
866.007	87.4113
866.058	72.8115
866.108	82.6199
866.159	92.3673
866.209	85.6796
866.26	87.6869
866.31	86.8252
866.361	75.3177
866.412	74.8199
866.462	85.7684
866.513	78.4347
866.563	85.1777
866.614	75.2144
866.664	82.4974
866.715	86.6092
866.766	73.1118
866.816	81.6102
866.867	83.0536
866.917	83.7348
866.968	74.3328
867.018	78.7805
867.069	82.7819
867.119	87.3223
867.17	84.1829
867.22	84.9419
867.271	71.0656
867.322	74.1288
867.372	82.4074
867.423	78.5657
867.473	82.0575
867.524	78.3828
867.574	74.9839
867.625	88.0249
867.675	81.2722
867.726	77.2696
867.776	77.394
867.827	83.345
867.878	80.3471
867.928	79.6289
867.979	77.1554
868.029	85.8083
868.08	77.0288
868.13	84.5941
868.181	82.8765
868.231	80.4148
868.282	83.87
868.332	75.4068
868.383	77.2877
868.433	81.7951
868.484	84.1961
868.535	70.512
868.585	77.6179
868.636	80.1105
868.686	78.1336
868.737	75.9401
868.787	82.1839
868.838	79.019
868.888	78.7747
868.939	79.4265
868.989	74.7955
869.04	77.904
869.09	78.4366
869.141	81.2252
869.191	74.3567
869.242	86.405
869.292	74.8768
869.343	75.0911
869.394	70.0136
869.444	83.5014
869.495	76.2275
869.545	81.8512
869.596	80.4166
869.646	78.1428
869.697	72.2177
869.747	74.5906
869.798	78.596
869.848	74.909
869.899	71.3092
869.949	74.3988
870	80.8501
870.05	77.7409
870.101	80.7835
870.151	68.2944
870.202	68.3084
870.252	78.2222
870.303	78.2934
870.353	69.2749
870.404	73.541
870.454	79.7938
870.505	65.9474
870.555	71.5216
870.606	79.2014
870.656	67.2372
870.707	76.8356
870.757	76.3823
870.808	69.9387
870.858	79.6129
870.909	72.4886
870.959	68.9283
871.01	71.3762
871.06	75.0954
871.111	76.2371
871.161	74.3996
871.212	73.4463
871.262	80.7911
871.313	68.2975
871.363	70.2924
871.414	77.7712
871.464	75.3303
871.515	80.4389
871.565	73.8468
871.616	74.4743
871.666	77.6892
871.717	70.1369
871.767	73.3205
871.818	80.7863
871.868	83.0502
871.919	70.9775
871.969	70.1122
872.02	68.0969
872.07	75.0517
872.121	69.4127
872.171	64.7525
872.222	74.9649
872.272	70.1971
872.323	74.8076
872.373	76.7609
872.424	70.4053
872.474	72.3292
872.525	69.1929
872.575	66.8187
872.626	75.5849
872.676	78.076
872.727	66.8365
872.777	65.2943
872.828	67.5356
872.878	69.8382
872.929	70.7839
872.979	70.1704
873.03	75.5044
873.08	73.8011
873.13	74.4375
873.181	70.9362
873.231	77.0823
873.282	73.8113
873.332	71.6283
873.383	74
873.433	80.7107
873.484	73.0331
873.534	74.4733
873.585	73.6733
873.635	75.4348
873.686	71.4301
873.736	75.7615
873.787	73.7396
873.837	72.3743
873.888	70.1793
873.938	72.2072
873.988	67.2998
874.039	76.154
874.089	66.9398
874.14	70.8651
874.19	68.2215
874.241	74.9092
874.291	70.5201
874.342	70.4353
874.392	67.2585
874.443	73.4833
874.493	68.3823
874.544	71.8606
874.594	72.61
874.644	80.302
874.695	67.8979
874.745	73.1637
874.796	76.6908
874.846	65.7031
874.897	67.2669
874.947	66.6738
874.998	68.2932
875.048	76.6984
875.099	69.4528
875.149	66.28
875.199	68.7882
875.25	73.4726
875.3	72.2635
875.351	70.8025
875.401	69.275
875.452	72.3048
875.502	63.8494
875.553	71.5415
875.603	71.5866
875.653	75.2587
875.704	64.7097
875.754	70.2361
875.805	73.4566
875.855	71.0282
875.906	68.1742
875.956	64.7613
876.006	69.0883
876.057	72.913
876.107	72.7706
876.158	71.6411
876.208	64.8039
876.259	72.5597
876.309	71.158
876.36	69.1577
876.41	70.7911
876.46	69.1932
876.511	61.3695
876.561	66.0067
876.612	66.2826
876.662	70.2619
876.713	65.3125
876.763	64.4454
876.813	71.641
876.864	70.8942
876.914	70.3119
876.965	66.5717
877.015	66.1336
877.065	69.8796
877.116	66.3092
877.166	66.663
877.217	66.3576
877.267	66.6182
877.318	70.1236
877.368	66.4672
877.418	68.0107
877.469	66.2946
877.519	67.99
877.57	70.0864
877.62	78.3881
877.671	67.5676
877.721	68.7731
877.771	64.3986
877.822	65.5201
877.872	68.7108
877.923	68.8682
877.973	69.0992
878.023	70.5308
878.074	62.9169
878.124	66.3749
878.175	70.2086
878.225	73.2906
878.276	69.0582
878.326	67.2534
878.376	67.2068
878.427	69.7472
878.477	66.5858
878.528	70.903
878.578	69.3361
878.628	71.5198
878.679	69.4864
878.729	68.2774
878.78	62.549
878.83	65.9334
878.88	60.3301
878.931	62.77
878.981	67.1376
879.031	66.0664
879.082	66.5595
879.132	67.8672
879.183	65.1175
879.233	67.7136
879.284	68.38
879.334	65.4176
879.384	67.1585
879.435	62.588
879.485	65.5572
879.535	70.2374
879.586	73.2577
879.636	72.6452
879.687	68.4999
879.737	63.254
879.787	64.8367
879.838	65.1784
879.888	61.2714
879.939	65.8056
879.989	68.0568
880.039	65.8943
880.09	64.3249
880.14	71.2125
880.19	67.643
880.241	62.5046
880.291	62.1116
880.342	65.4077
880.392	67.5263
880.442	64.0616
880.493	60.2014
880.543	64.9667
880.594	65.3605
880.644	64.505
880.694	61.816
880.745	61.803
880.795	65.7778
880.845	64.4465
880.896	63.8242
880.946	68.3684
880.996	66.808
881.047	64.2694
881.097	62.5591
881.148	62.7341
881.198	64.054
881.248	60.288
881.299	61.4227
881.349	64.2259
881.399	65.7772
881.45	65.5493
881.5	67.6078
881.551	62.4545
881.601	62.4604
881.651	63.2885
881.702	61.2135
881.752	62.9856
881.802	65.3306
881.853	63.9711
881.903	62.9626
881.953	60.0806
882.004	63.8983
882.054	69.0105
882.104	65.8997
882.155	63.8815
882.205	62.7489
882.256	56.0734
882.306	61.3289
882.356	64.291
882.407	61.2726
882.457	64.502
882.507	61.7087
882.558	67.1137
882.608	69.8873
882.658	64.0207
882.709	63.0354
882.759	66.412
882.809	64.0974
882.86	64.0095
882.91	60.3716
882.96	66.3717
883.011	61.646
883.061	64.263
883.111	63.3036
883.162	65.8739
883.212	59.7355
883.262	57.9402
883.313	57.5931
883.363	62.4326
883.413	63.6964
883.464	58.249
883.514	56.9267
883.565	61.8356
883.615	57.132
883.665	56.9842
883.716	64.8774
883.766	66.1744
883.816	59.2915
883.867	61.1428
883.917	59.6331
883.967	61.9985
884.017	57.931
884.068	63.2616
884.118	58.316
884.168	67.4971
884.219	56.568
884.269	61.2403
884.319	61.2563
884.37	57.8074
884.42	55.634
884.47	58.7305
884.521	58.3122
884.571	64.6444
884.621	67.5178
884.672	56.5936
884.722	62.8991
884.772	63.28
884.823	67.0568
884.873	59.9164
884.923	63.381
884.974	61.9691
885.024	63.6723
885.074	64.6134
885.125	64.7553
885.175	63.7211
885.225	61.6488
885.276	62.2659
885.326	57.4751
885.376	56.0987
885.426	66.0978
885.477	58.0003
885.527	58.7205
885.577	62.4947
885.628	57.0205
885.678	58.9996
885.728	56.592
885.779	55.1205
885.829	60.7639
885.879	52.8104
885.93	59.243
885.98	60.2477
886.03	59.5723
886.08	56.9278
886.131	55.106
886.181	56.7908
886.231	59.6134
886.282	58.228
886.332	69.422
886.382	54.3266
886.432	62.2396
886.483	61.1421
886.533	57.8115
886.583	53.3488
886.634	60.9998
886.684	54.1901
886.734	63.2536
886.785	57.0781
886.835	58.3158
886.885	58.1519
886.935	57.7082
886.986	57.7905
887.036	56.5975
887.086	57.9293
887.137	59.6149
887.187	54.1022
887.237	63.9268
887.287	59.6071
887.338	54.1656
887.388	52.272
887.438	63.5079
887.489	62.0047
887.539	65.7261
887.589	63.8941
887.639	67.6026
887.69	63.9597
887.74	67.7528
887.79	60.1905
887.841	61.8297
887.891	58.123
887.941	57.9907
887.943	57.9864
887.993	59.9422
888.044	59.7931
888.094	53.9766
888.144	59.8125
888.195	57.7697
888.245	61.6436
888.296	65.4415
888.346	59.7635
888.397	52.1798
888.447	58.0618
888.498	57.9638
888.548	56.1939
888.599	52.5538
888.649	61.5317
888.699	54.1353
888.75	55.5641
888.8	64.8759
888.851	57.3994
888.901	63.6598
888.952	61.4208
889.002	51.6777
889.053	55.9279
889.103	65.0597
889.153	57.4456
889.204	53.6949
889.254	55.9105
889.305	57.929
889.355	61.5573
889.406	56.491
889.456	55.5197
889.507	62.8798
889.557	55.6408
889.607	58.0062
889.658	51.7406
889.708	61.2586
889.759	54.5075
889.809	61.7635
889.86	50.4369
889.91	56.2297
889.96	53.4014
890.011	51.909
890.061	55.4683
890.112	60.0896
890.162	59.0562
890.213	68.0461
890.263	50.2867
890.313	54.3062
890.364	49.1347
890.414	55.456
890.465	60.8498
890.515	64.8113
890.566	61.9707
890.616	59.7767
890.666	62.416
890.717	50.6714
890.767	57.3202
890.818	59.3697
890.868	48.4074
890.919	59.3015
890.969	57.0201
891.019	53.3793
891.07	54.6227
891.12	62.7884
891.171	52.7471
891.221	57.5926
891.271	56.1653
891.322	58
891.372	47.6338
891.423	60.2056
891.473	54.2927
891.523	51.8961
891.574	49.9717
891.624	59.527
891.675	56.9436
891.725	58.9731
891.776	51.2598
891.826	48.0967
891.876	49.0422
891.927	59.1418
891.977	61.754
892.028	50.185
892.078	50.2613
892.128	59.2081
892.179	53.3292
892.229	57.758
892.28	55.8216
892.33	55.7107
892.38	53.6875
892.431	51.9138
892.481	60.8495
892.532	54.5284
892.582	52.3694
892.632	54.3116
892.683	58.7552
892.733	56.9437
892.784	53.5459
892.834	52.6754
892.884	57.4525
892.935	58.3026
892.985	54.7121
893.036	50.788
893.086	48.7386
893.136	54.2175
893.187	55.8879
893.237	45.4662
893.288	54.573
893.338	50.7991
893.388	57.7695
893.439	51.3819
893.489	55.0747
893.539	52.8547
893.59	51.0581
893.64	50.0689
893.691	53.9676
893.741	55.0435
893.791	53.1739
893.842	46.9621
893.892	60.0907
893.943	59.8309
893.993	51.0531
894.043	48.0217
894.094	54.0145
894.144	54.9903
894.194	51.9952
894.245	54.0097
894.295	56.9758
894.346	47.0169
894.396	52.9879
894.446	49.058
894.497	55.9094
894.547	57.0217
894.597	52.0725
894.648	50.0266
894.698	51.9396
894.749	53
894.799	56.9275
894.849	50.1594
894.9	49.0435
894.95	52.587
895	47.4457
895.051	51.896
895.101	54.8333
895.151	49.1184
895.202	53.1232
895.252	46
895.303	51.8623
895.353	57.786
895.403	52.3744
895.454	46.9215
895.504	49.1643
895.554	52.6614
895.605	48.087
895.655	45.2717
895.706	53.8116
895.756	50.0967
895.806	50.2005
895.857	53.3768
895.907	60.1064
895.957	51.8901
896.008	47.6812
896.058	44.2322
896.108	55.0435
896.159	52
896.209	54.2512
896.259	46.3877
896.31	49.6046
896.36	54
896.41	45.2757
896.461	54.43
896.511	53.8539
896.561	53.1487
896.612	53.7609
896.662	51
896.713	53.2089
896.763	50
896.813	47.3285
896.864	49
896.914	51
896.964	47.3482
897.015	49
897.065	48.8198
897.115	53.8152
897.166	49.3748
897.216	46.4305
897.266	54.3865
897.317	53.8029
897.367	51.7995
897.417	51
897.468	52.5865
897.518	47.2101
897.568	48.8513
897.619	53.9178
897.669	54.6594
897.719	54.6651
897.77	54.8089
897.82	46.3116
897.87	51
897.921	49.7642
897.971	54.4783
898.021	50.243
898.072	55
898.122	46
898.172	54.9807
898.223	50.3071
898.273	49.7412
898.323	48.2624
898.374	49.4704
898.424	49.0773
898.474	47.7279
898.524	46.8972
898.575	48.2781
898.625	54
898.675	48
898.726	51.2878
898.776	43.8768
898.826	42.705
898.877	49.104
898.927	50.6989
898.977	48.5236
899.028	48.4583
899.078	47.6215
899.128	53.7424
899.179	49.954
899.229	48.6796
899.279	48.6481
899.33	51.0169
899.38	47.9879
899.43	43.3325
899.48	48.6747
899.531	49.295
899.581	51.0339
899.631	43.6941
899.682	50.5453
899.732	46.3543
899.782	46.1475
899.833	46.2769
899.883	47.2721
899.933	54.2648
899.984	50.3705
