#Acq. time (s)=	3
#Accumulations=	2
#Range (nm)=	520...900
#Windows=	16
#Auto scanning=	On
#Autofocus=	Off
#AutoExposure=	Off
#Spike filter=	Multiple accum.
#Delay time (s)=	0
#Binning=	1
#Readout mode=	Signal
#DeNoise=	Off
#ICS correction=	Off
#Dark correction=	Off
#Inst. Process=	Off
#Detector temperature (°C)=	-59.98
#Instrument=	LabRAM HR Evol
#Detector=	Syncerity OE
#Objective=	x50_VIS
#Grating=	600 (500nm)
#ND Filter=	10%
#Laser=	514nm_Edge
#Hole=	199.981
#Range=	Auto
#StageXY=	Marzhauser
#StageZ=	Marzhauser
#X (µm)=	4132.5
#Y (µm)=	-8959.1
#Z (µm)=	-238.4
#Full time(mm:ss)=	2:23
#Project=	
#Sample=	
#Site=	
#Title=	PL_SCD4_121223
#Remark=	
#Date=	21.12.2023 09:58
#Acquired=	21.12.2023 09:58:59
520.042	36
520.094	39
520.147	34.9092
520.199	39.9534
520.251	37.1954
520.304	36
520.356	38.7905
520.408	36.1071
520.461	42
520.513	32.3492
520.565	35.6438
520.618	36.8116
520.67	36.2561
520.723	31.2608
520.775	37.5949
520.827	38.0698
520.88	35.2887
520.932	32.78
520.984	34.9243
521.037	37.0768
521.089	37
521.141	35
521.194	38.9173
521.246	41
521.298	35.1723
521.351	35.0895
521.403	35.546
521.455	42
521.508	36.2829
521.56	32.1932
521.612	40.4133
521.665	40.2023
521.717	37.3073
521.769	35.8952
521.822	37.6822
521.874	36.1083
521.926	35.4377
521.979	35.7765
522.031	35.7742
522.083	35.2305
522.136	37.7628
522.188	39.1199
522.24	38
522.293	35.3702
522.345	39
522.397	37.4878
522.45	36.6123
522.502	36.5262
522.554	38.4016
522.607	37.5949
522.659	38.8626
522.711	36.7206
522.764	38.5634
522.816	38.8568
522.868	38.8545
522.921	34.2934
522.973	33.149
523.025	37.546
523.078	35.1525
523.13	40.6903
523.182	40.4715
523.234	37.362
523.287	39.1607
523.339	36.326
523.391	38.3306
523.444	40.9942
523.496	42.3376
523.548	37.1702
523.601	33.8615
523.653	34.4761
523.705	40.4692
523.758	38
523.81	33.7218
523.862	36.7206
523.915	38.2957
523.967	45.5006
524.019	37.8881
524.072	36.0454
524.124	37.1921
524.176	36.1944
524.229	35.5902
524.281	33.8056
524.333	39
524.385	37.4051
524.438	32.8196
524.49	36.1711
524.542	39.5809
524.595	36.8438
524.647	39
524.699	39.5006
524.752	40.0827
524.804	39.1246
524.856	33.7622
524.909	41.2212
524.961	38.674
525.013	42.227
525.066	39.4569
525.118	39.617
525.17	39.6985
525.222	39
525.275	32.6543
525.327	33.5681
525.379	37.2413
525.432	33.4866
525.484	32
525.536	36.7602
525.589	36.9977
525.641	37.2456
525.693	40.2689
525.745	38.4685
525.798	42.7427
525.85	42.7762
525.902	36.2608
525.955	40.2072
526.007	40.2657
526.059	40.2678
526.112	41.4598
526.164	38.2716
526.216	35.2736
526.268	38.2762
526.321	37.2782
526.373	38.1608
526.425	37.7183
526.478	38.8522
526.53	36.1399
526.582	41
526.635	42
526.687	41.1688
526.739	38.5315
526.791	42.2969
526.844	36
526.896	34.2014
526.948	34
527.001	34.085
527.053	40.0804
527.105	42.3085
527.157	35.9336
527.21	44.1211
527.262	41.9441
527.314	39.2712
527.367	37.958
527.419	31.7179
527.471	45.0291
527.523	39.6014
527.576	41.0373
527.628	41.6702
527.68	42
527.733	40.3345
527.785	36.007
527.837	38.3248
527.889	39.6597
527.942	39.0245
527.994	39.2771
528.046	38.3462
528.099	40.6985
528.151	39.3508
528.203	37.6469
528.255	40.6449
528.308	39
528.36	42.0769
528.412	38.2782
528.464	48.1818
528.517	38.1888
528.569	37.6329
528.621	34.7381
528.674	37.141
528.726	41.6259
528.778	44.2561
528.83	36.8636
528.883	38.1002
528.935	37.5291
528.987	39.7683
529.039	38.2261
529.092	38.7786
529.144	41.8287
529.196	38.3566
529.249	37.6321
529.301	39.1923
529.353	36
529.405	38.4009
529.458	36
529.51	35.5937
529.562	39.9604
529.614	46.0513
529.667	37.8252
529.719	39.9312
529.771	39.4965
529.823	38.3236
529.876	40
529.928	39
529.98	39.7238
530.033	45.4219
530.085	34.8555
530.137	38.8438
530.189	38.8671
530.242	42.8718
530.294	35.4371
530.346	39.44
530.398	41.6713
530.451	41.2261
530.503	38.1049
530.555	37.6538
530.607	40.3531
530.66	40.4534
530.712	33.7214
530.764	39.2902
530.816	41.6189
530.869	40.8462
530.921	35.1445
530.973	42.6014
531.025	41.8741
531.078	38.4709
531.13	42.6876
531.182	43.3776
531.234	41.0443
531.287	43.9604
531.339	41.5524
531.391	43.9674
531.443	40.4854
531.496	41
531.548	40.5105
531.6	44.4918
531.652	47.5058
531.705	39.4755
531.757	35.0047
531.809	43.4942
531.861	45.5105
531.914	37.5175
531.966	40.4772
532.018	40.0186
532.07	40.9767
532.123	40.028
532.175	37.4825
532.227	37.4802
532.279	41.4784
532.332	42.0932
532.384	38.9487
532.436	37.528
532.488	43.4091
532.541	41.1925
532.593	38.331
532.645	39.9277
532.697	45.6189
532.75	37.5414
532.802	38.8275
532.854	41.2727
532.906	38.8089
532.958	39.1984
533.011	36.6853
533.063	39.6643
533.115	41.4429
533.167	41.5589
533.22	47.6364
533.272	47.5128
533.324	41.7363
533.376	42.2704
533.429	35.1627
533.481	42.4461
533.533	45.2666
533.585	39.539
533.638	41.2102
533.69	41.6918
533.742	39.0354
533.794	38.5523
533.846	41.9296
533.899	44.585
533.951	43.9587
534.003	40.9653
534.055	40.9639
534.108	43.4573
534.16	41.8528
534.212	41.8748
534.264	39.9068
534.316	45.4407
534.369	43.104
534.421	42.6232
534.473	45.5069
534.525	44.2363
534.578	40.7024
534.63	41.97
534.682	43.9056
534.734	46
534.786	49.7268
534.839	43.8237
534.891	47.8605
534.943	44.7167
534.995	45.908
535.047	42.3078
535.1	46.6915
535.152	54.5966
535.204	48.5651
535.256	47.4513
535.309	47.1942
535.361	50.0118
535.413	43.7512
535.465	47.2253
535.517	48.2179
535.57	50.0639
535.622	49.8097
535.674	43.4873
535.726	43.5897
535.778	50.867
535.831	46.9064
535.883	42.0607
535.935	41.5706
535.987	46.7513
536.039	50.1251
536.092	39.1738
536.144	48.2616
536.196	49.1151
536.248	47.3924
536.301	42.1319
536.353	48.0753
536.405	46.1081
536.457	50.4255
536.509	41.284
536.562	45.4869
536.614	45.0789
536.666	41.1984
536.718	49.8925
536.77	52.7646
536.823	47.1238
536.875	48.2766
536.927	39.9187
536.979	51.8081
537.031	49.1625
537.083	43.3111
537.136	40.6842
537.188	44.3737
537.24	45.4855
537.292	49.73
537.344	43.8139
537.397	43.6051
537.449	43.4046
537.501	46.3284
537.553	46.0469
537.605	45.9022
537.658	49.9652
537.71	51.6897
537.762	48.3178
537.814	47.3667
537.866	47.0133
537.919	44.3852
537.971	41.5102
538.023	46.3914
538.075	47.6821
538.127	45.4939
538.18	40.7716
538.232	46.4759
538.284	44.4837
538.336	45.7997
538.388	45.3748
538.44	54.7447
538.493	48.1335
538.545	47.4857
538.597	41.7256
538.649	47.7232
538.701	46.8751
538.754	48.1066
538.806	44.8496
538.858	52.3441
538.91	47.2298
538.962	45.1676
539.014	45.1546
539.067	44.5127
539.119	47.1148
539.171	49.4979
539.223	42.0036
539.275	51.3595
539.327	48.507
539.38	46.7885
539.432	46.6719
539.484	47.0116
539.536	47.9216
539.588	45.5451
539.641	44.7953
539.693	47.2518
539.745	46.3033
539.797	44.1729
539.849	37.8821
539.901	47.9056
539.954	52.599
540.006	48.7058
540.058	47.6101
540.11	54.1159
540.162	42.1039
540.214	41.305
540.267	43.0468
540.319	46.0822
540.371	47.6371
540.423	45.1218
540.475	46.8182
540.527	48.6086
540.58	49.3712
540.632	47.1793
540.684	41.6521
540.736	44.0299
540.788	48.2231
540.84	50
540.892	48.9794
540.945	47.2797
540.997	49.7226
541.049	41.5718
541.101	36.0226
541.153	48.1312
541.205	49.9018
541.258	42.2453
541.31	46.768
541.362	50.6186
541.414	43.8172
541.466	46.5021
541.518	48.4628
541.57	43.2797
541.623	53.4165
541.675	43.6992
541.727	40.3236
541.779	44.4574
541.831	46.8961
541.883	48.2308
541.936	42.6573
541.988	50.5002
542.04	54.7136
542.092	44.4737
542.144	48.6249
542.196	45.6614
542.248	46.2335
542.301	43.7997
542.353	48.5676
542.405	46.4951
542.457	55.5396
542.509	48.4094
542.561	52.6528
542.613	47.1816
542.666	44.1054
542.718	40.9956
542.77	54.5433
542.822	46.8987
542.874	54.2737
542.926	41.1631
542.978	46.2618
543.031	53.9597
543.083	53.456
543.135	43.1938
543.187	44.1135
543.239	46.0538
543.291	55.8045
543.343	41.0513
543.396	49.071
543.448	48.9785
543.5	54.3334
543.552	47.2195
543.604	46.5256
543.656	45.4379
543.708	52.1764
543.76	46.2242
543.813	55.6043
543.865	50.8904
543.917	47.2227
543.969	42.8007
544.021	55.9282
544.073	53.9034
544.125	51.5672
544.177	50.9389
544.23	48.6049
544.282	55.5158
544.334	52.2512
544.386	51.001
544.438	55.5901
544.49	49.3972
544.542	41.1663
544.594	48.938
544.647	52.6178
544.699	52.4521
544.751	52.1468
544.803	50.4569
544.855	59.2584
544.907	51.3092
544.959	48.8433
545.011	48.1272
545.064	51.6054
545.116	58.8334
545.168	55.3136
545.22	48.97
545.272	58.3772
545.324	54.6646
545.376	46.0415
545.428	45.6705
545.48	54.5316
545.533	65.9228
545.585	59.2422
545.637	61.7338
545.689	61.9237
545.741	53.4734
545.793	45.6995
545.845	49.0433
545.897	46.8697
545.949	56.3269
546.002	54.534
546.054	45.6397
546.106	57.6417
546.158	61.6477
546.21	58.7816
546.262	54.6433
546.314	59.0417
546.366	58.4108
546.418	51.4452
546.471	53.3619
546.523	57.2992
546.575	59.6144
546.627	51.8727
546.679	50.0117
546.689	50.0136
546.741	53.9825
546.793	59.9551
546.845	52.0773
546.898	50.1013
546.95	61.8719
547.002	63.793
547.054	56.019
547.106	58.062
547.159	54.2432
547.211	59.9605
547.263	67.6519
547.315	59.945
547.368	69.6378
547.42	67.765
547.472	52.2233
547.524	54.1436
547.577	71.5569
547.629	73.3497
547.681	52.2036
547.733	61.9888
547.785	60.1907
547.838	63.9136
547.89	69.7076
547.942	64.1364
547.994	63.7939
548.047	63.4598
548.099	61.5904
548.151	62.1038
548.203	54.7055
548.255	56.5214
548.308	64.0561
548.36	71.7002
548.412	64.0154
548.464	65.3903
548.517	60.1226
548.569	64.0624
548.621	69.621
548.673	63.5436
548.725	59.9025
548.778	71.4596
548.83	56.2061
548.882	63.6131
548.934	65.1663
548.987	69.1078
549.039	71.3185
549.091	62.0121
549.143	54.5744
549.195	74.768
549.248	66.9498
549.3	66.9375
549.352	65.9476
549.404	60.702
549.456	67.0693
549.509	66.5422
549.561	65.5689
549.613	67.4292
549.665	66.823
549.718	56.499
549.77	67.5136
549.822	60.5827
549.874	71.2471
549.926	65.7288
549.979	63.9384
550.031	69.8157
550.083	76.0301
550.135	60.1966
550.187	67.6223
550.24	67.6481
550.292	85.8284
550.344	74.3765
550.396	77.7807
550.448	81.6495
550.501	65.8996
550.553	75.0925
550.605	70.711
550.657	74.2086
550.709	75.4838
550.762	70.407
550.814	72.7585
550.866	77.5557
550.918	75.7073
550.97	79.5466
551.023	77.2805
551.075	80.2356
551.127	72.6405
551.179	74.8959
551.231	75.0248
551.284	87.3951
551.336	87.21
551.388	84.6526
551.44	88.4858
551.492	87.7372
551.545	83.1265
551.597	87.672
551.649	90.8506
551.701	94.1676
551.753	89.002
551.806	108.51
551.858	97.3973
551.91	108.774
551.962	120.997
552.014	116.131
552.067	120.749
552.119	147.539
552.171	150.623
552.223	171.94
552.275	193.55
552.327	251.978
552.38	357.029
552.432	693.896
552.484	1494.33
552.536	2758.55
552.588	4783.68
552.641	7698.89
552.693	9989.13
552.745	8127.09
552.797	4523.56
552.849	1840.8
552.901	706.17
552.954	386.654
553.006	257.166
553.058	207.704
553.11	155.95
553.162	146.857
553.215	125.723
553.267	118.408
553.319	117.588
553.371	112.47
553.423	102.256
553.475	96.0582
553.528	100.897
553.58	97.4525
553.632	95.4534
553.684	89.0788
553.736	94.964
553.788	87.8923
553.841	89.0139
553.893	86.2287
553.945	83.6593
553.997	87.5478
554.049	90.9811
554.102	80.8711
554.154	80.6306
554.206	89.9504
554.258	82.429
554.31	78.4985
554.362	79.1031
554.414	85.3366
554.467	84.2511
554.519	74.9864
554.571	80.7009
554.623	78.9192
554.675	78.315
554.727	85.1527
554.78	77.5778
554.832	85.4205
554.884	95.0793
554.936	84.037
554.988	82.83
555.04	85.9044
555.093	82.1725
555.145	71.8638
555.197	89.6466
555.249	89.1215
555.301	75.6667
555.353	80.4611
555.406	86.6173
555.458	83.954
555.51	72.9118
555.562	82.1097
555.614	88
555.666	87.8357
555.719	89.577
555.771	81.1223
555.823	79.2317
555.875	72.5591
555.927	75.2821
555.979	82.9998
556.031	83.1206
556.084	88.1954
556.136	82.8433
556.188	85.372
556.24	87.2743
556.292	92.2158
556.344	85.9348
556.396	83.5402
556.449	92.036
556.501	91.6635
556.553	90.7579
556.605	81.2544
556.657	88.4349
556.709	80.6586
556.762	88.5362
556.814	74.9395
556.866	96.347
556.918	87.2369
556.97	88.2176
557.022	91.0876
557.074	89.0082
557.127	91.4858
557.179	85.8359
557.231	85.8665
557.283	88.4756
557.335	94.6912
557.387	95.7751
557.439	83.301
557.492	92.5358
557.544	84.0869
557.596	88.9196
557.648	91.2929
557.7	88.1166
557.752	87.7035
557.804	88.6503
557.856	94.9414
557.909	90.0417
557.961	98.484
558.013	92.1305
558.065	93.0806
558.117	90.2685
558.169	93.6965
558.221	92.6114
558.273	96.2595
558.326	93.4841
558.378	93.1685
558.43	93.1171
558.482	94.679
558.534	97.3135
558.586	91.3103
558.638	93.2797
558.691	90.7087
558.743	93.6285
558.795	96.0128
558.847	90.6012
558.899	94.0173
558.951	99.033
559.003	91.1552
559.055	98.3612
559.108	94.887
559.16	93.3967
559.212	92.9905
559.264	96.4595
559.316	95.8903
559.368	93.1888
559.42	85.6477
559.472	95.69
559.525	103.984
559.577	100.097
559.629	98.5586
559.681	97.5076
559.733	93.2902
559.785	100.859
559.837	96.201
559.889	96.747
559.941	99.9395
559.994	99.0728
560.046	102.083
560.098	101.648
560.15	101.442
560.202	107.484
560.254	103.004
560.306	101.864
560.358	103.197
560.41	109.381
560.463	97.6165
560.515	104.361
560.567	100.582
560.619	99.2353
560.671	102.513
560.723	99.9217
560.775	94.5616
560.827	101.617
560.879	102.7
560.932	100.186
560.984	104
561.036	108.537
561.088	107.426
561.14	96.2035
561.192	106.901
561.244	109.397
561.296	105.173
561.348	105.859
561.4	110.911
561.453	103.815
561.505	110.616
561.557	108.183
561.609	103.657
561.661	105.579
561.713	101.53
561.765	107.694
561.817	109.71
561.869	109.023
561.921	112.216
561.974	108.596
562.026	108.395
562.078	105.813
562.13	107.117
562.182	111.12
562.234	116.631
562.286	112.918
562.338	105.225
562.39	112.8
562.442	114.936
562.494	112.473
562.547	110.804
562.599	106.981
562.651	115.366
562.703	114.792
562.755	116.172
562.807	112.98
562.859	122.802
562.911	117.545
562.963	113.938
563.015	110.904
563.067	113.604
563.12	112.024
563.172	109.243
563.224	116.645
563.276	121.302
563.328	115.764
563.38	122.825
563.432	114.806
563.484	125.963
563.536	120.947
563.588	120.867
563.64	124.387
563.692	124.109
563.744	118.546
563.797	119.382
563.849	119.568
563.901	122.848
563.953	123.318
564.005	121.548
564.057	123.02
564.109	125.827
564.161	127.333
564.213	126.343
564.265	125.861
564.317	130.09
564.369	119.46
564.421	125.137
564.474	128.389
564.526	132.495
564.578	123.542
564.63	121.094
564.682	127.57
564.734	133.923
564.786	132.569
564.838	132.22
564.89	127.644
564.942	129.345
564.994	124.591
565.046	132.918
565.098	130.994
565.15	131.03
565.202	123.58
565.255	131.66
565.307	134.563
565.359	134.089
565.411	132.675
565.463	129.345
565.515	133.211
565.567	137.498
565.619	132.968
565.671	136.263
565.723	134.495
565.775	135.273
565.827	129.766
565.879	135.317
565.931	132.197
565.983	133.641
566.035	135.349
566.087	134.099
566.139	141.856
566.192	138.586
566.244	133.147
566.296	136.32
566.348	137.403
566.4	139.817
566.452	133.969
566.504	136.975
566.556	138.455
566.608	145.768
566.66	141.747
566.712	143.583
566.764	151.473
566.816	139.872
566.868	138.414
566.92	135.809
566.972	140.782
567.024	140.751
567.076	141.429
567.128	146.928
567.18	152.167
567.232	150.925
567.285	146.401
567.337	138.758
567.389	149.047
567.441	152.21
567.493	149.84
567.545	151.086
567.597	148.539
567.649	146.177
567.701	152.15
567.753	148.453
567.805	153.621
567.857	152.256
567.909	147.694
567.961	150.206
568.013	159.894
568.065	158.748
568.117	153.964
568.169	155.827
568.221	158.728
568.273	153.079
568.325	155.368
568.377	157.643
568.429	157.845
568.481	154.722
568.533	161.348
568.585	155.569
568.637	159.513
568.69	162.003
568.742	160.379
568.794	164.926
568.846	163.342
568.898	159.795
568.95	161.985
569.002	164.025
569.054	163.137
569.106	164.784
569.158	166.117
569.21	166.595
569.262	165.562
569.314	165.095
569.366	172.552
569.418	172.55
569.47	170.954
569.522	159.544
569.574	167.064
569.626	177.798
569.678	173.052
569.73	175.169
569.782	181.693
569.834	179.526
569.886	179.551
569.938	169.184
569.99	168.033
570.042	175.837
570.094	173.251
570.146	168.652
570.198	176.283
570.25	194.518
570.302	186.417
570.354	185.412
570.406	187.33
570.458	183.938
570.51	189.705
570.562	190.298
570.614	180.885
570.666	185.508
570.718	193.173
570.77	188.67
570.822	192.876
570.874	193.606
570.926	193.261
570.978	193.329
571.03	190.195
571.082	197.583
571.134	200.369
571.186	199.014
571.238	199.321
571.29	198.659
571.342	201.851
571.394	204.657
571.446	214.904
571.498	215.631
571.55	211.801
571.602	211.012
571.654	214.741
571.706	222.107
571.758	213.051
571.81	210.475
571.862	224.979
571.914	228.97
571.966	225.056
572.018	214.761
572.07	226.847
572.122	226.101
572.174	234.922
572.226	230.446
572.278	241.711
572.33	249.496
572.382	242.777
572.434	237.025
572.486	250.892
572.538	243.991
572.59	239.23
572.642	246.103
572.694	258.173
572.746	248.128
572.798	259.815
572.85	260.099
572.902	260
572.954	264.565
573.006	268.325
573.058	267.119
573.11	285.739
573.162	277.004
573.214	290.408
573.266	296.025
573.302	296.063
573.355	309.901
573.407	291.984
573.459	307.928
573.511	310.067
573.563	319.818
573.615	327.589
573.667	323.872
573.719	316.311
573.772	345.774
573.824	337.656
573.876	331.844
573.928	334.284
573.98	342.061
574.032	357.675
574.084	355.697
574.136	355.526
574.188	358.183
574.241	371.845
574.293	381.364
574.345	398.727
574.397	402.882
574.449	384.609
574.501	411.126
574.553	405.256
574.605	411.559
574.657	408.316
574.71	405.138
574.762	416.603
574.814	432.483
574.866	437.279
574.918	458.161
574.97	456.189
575.022	446.52
575.074	451.727
575.126	460.812
575.178	464.715
575.231	460.053
575.283	446.123
575.335	478.072
575.387	492.37
575.439	457.004
575.491	487.902
575.543	490.055
575.595	491.788
575.647	496.3
575.7	501.811
575.752	474.402
575.804	502.851
575.856	494.639
575.908	484.419
575.96	496.908
576.012	485.401
576.064	490.47
576.116	477.401
576.168	486.052
576.22	487.012
576.273	464.283
576.325	491.26
576.377	488.321
576.429	482.483
576.481	489.88
576.533	470.897
576.585	449.629
576.637	464.113
576.689	469.391
576.741	456.421
576.793	449.976
576.846	447.849
576.898	449.623
576.95	418.412
577.002	443.247
577.054	446.399
577.106	418.8
577.158	432.421
577.21	427.363
577.262	423.387
577.314	418.311
577.366	389.546
577.418	407.222
577.471	398.367
577.523	368.87
577.575	382.253
577.627	363.609
577.679	391.764
577.731	384.921
577.783	361.149
577.835	382.492
577.887	381.738
577.939	358.725
577.991	355.252
578.043	362.974
578.095	371.419
578.148	379.145
578.2	358.278
578.252	351.163
578.304	341.715
578.356	357.068
578.408	355.162
578.46	358.929
578.512	345.267
578.564	338.989
578.616	348.424
578.668	322.057
578.72	355.564
578.772	344.195
578.824	328.322
578.877	351.299
578.929	346.832
578.981	349.387
579.033	319.86
579.085	320.714
579.137	336.386
579.189	329.48
579.241	314.627
579.293	337.22
579.345	323.072
579.397	325.061
579.449	344.104
579.501	340.921
579.553	323.052
579.605	328.424
579.658	335.273
579.71	332.71
579.762	337.2
579.814	336.635
579.866	330.277
579.918	343.479
579.97	319.568
580.022	334.845
580.074	325.366
580.126	335.923
580.178	322.014
580.23	312.357
580.282	334.506
580.334	334.692
580.386	330.035
580.438	343.739
580.49	337.538
580.542	335.833
580.595	333.742
580.647	323.852
580.699	350.449
580.751	339.652
580.803	336.808
580.855	323.152
580.907	334.573
580.959	341.259
581.011	329.299
581.063	313.699
581.115	351.101
581.167	338.71
581.219	332.925
581.271	340.365
581.323	322.647
581.375	350.534
581.427	333.658
581.479	336.7
581.531	337.956
581.583	342.391
581.635	343.214
581.688	341.73
581.74	358.072
581.792	344.862
581.844	350.441
581.896	360.802
581.948	355.314
582	360.041
582.052	345.765
582.104	350.572
582.156	348.426
582.208	365.012
582.26	347.89
582.312	350.347
582.364	359.202
582.416	359.691
582.468	356.373
582.52	359.983
582.572	356.182
582.624	365.426
582.676	364.258
582.728	362.711
582.78	351.394
582.832	361.245
582.884	353.816
582.936	366.445
582.988	353.796
583.04	354.917
583.092	371.481
583.144	366.218
583.196	370.246
583.249	383.555
583.301	361.169
583.353	366.975
583.405	370.791
583.457	384.853
583.509	373.902
583.561	373.783
583.613	373.116
583.665	379.916
583.717	390.927
583.769	383.067
583.821	374.264
583.873	390.025
583.925	383.291
583.977	392.88
584.029	382.898
584.081	389.234
584.133	390.756
584.185	384.049
584.237	395.548
584.289	386.223
584.341	396.477
584.393	385.905
584.445	393.015
584.497	396.537
584.549	405.465
584.601	403.436
584.653	406.66
584.705	408.213
584.757	399.021
584.809	399.526
584.861	423.252
584.913	406.188
584.965	402.548
585.017	397.576
585.069	431.917
585.121	415.815
585.173	405.726
585.225	428.555
585.277	426.602
585.329	434.598
585.381	422.891
585.433	428.738
585.485	428.228
585.537	409.435
585.589	426.278
585.641	420.811
585.693	426.939
585.745	436.817
585.797	419.211
585.849	440.755
585.901	446.156
585.953	438.041
586.005	437.064
586.057	422.98
586.109	454.544
586.161	422.176
586.213	444.904
586.265	442.123
586.317	440.084
586.369	432.215
586.421	445.799
586.473	428.298
586.525	452.665
586.577	445.03
586.629	450.563
586.681	445.243
586.733	441.398
586.785	444.841
586.837	455.574
586.889	453.934
586.941	451.734
586.993	444.111
587.045	445.552
587.097	462.171
587.149	455.334
587.201	443.545
587.253	452.143
587.305	454.746
587.357	460.187
587.409	457.198
587.461	453.987
587.513	456.084
587.565	452.612
587.617	458.44
587.669	453.191
587.721	460.691
587.773	463.053
587.825	461.338
587.877	463.873
587.929	462.825
587.981	461.957
588.033	470.981
588.085	453.371
588.137	469.847
588.189	441.624
588.241	462.829
588.293	472.096
588.345	461.835
588.397	463.286
588.449	448.164
588.501	448.693
588.552	479.92
588.604	470.21
588.656	459.12
588.708	466.853
588.76	460.503
588.812	460.006
588.864	451.231
588.916	467.214
588.968	459.295
589.02	464
589.072	467.013
589.124	471.808
589.176	484.451
589.228	490.41
589.28	471.293
589.332	485.355
589.384	500.979
589.436	482.739
589.488	484.23
589.54	480.442
589.592	492.803
589.644	488.518
589.696	476.112
589.748	474.91
589.8	495.825
589.852	484.722
589.904	478.514
589.956	471.524
590.008	469.597
590.06	472.885
590.112	469.609
590.163	483.024
590.215	498.772
590.267	477.072
590.319	477.174
590.371	475.555
590.423	481.352
590.475	486.551
590.527	485.276
590.579	476.968
590.631	485.883
590.683	465.419
590.735	471.876
590.787	484.365
590.839	488.312
590.891	472.273
590.943	469.362
590.995	493.98
591.047	469.78
591.099	473.279
591.151	476.107
591.203	473.98
591.254	473.641
591.306	474.856
591.358	477.254
591.41	469.849
591.462	466.098
591.514	466.773
591.566	460.997
591.618	467.218
591.67	466.787
591.722	461.527
591.774	468
591.826	475.14
591.878	462.57
591.93	470.482
591.982	460.389
592.034	450.04
592.086	447.37
592.137	435.411
592.189	445.164
592.241	454.314
592.293	472.032
592.345	468.163
592.397	466.557
592.449	469.437
592.501	469.64
592.553	459.936
592.605	462.213
592.657	464.679
592.709	463.284
592.761	464.707
592.813	460.793
592.865	465.911
592.916	469.086
592.968	460.52
593.02	453.833
593.072	463.383
593.124	467.65
593.176	456.514
593.228	463.807
593.28	468.971
593.332	456.363
593.384	453.687
593.436	456.465
593.488	465.307
593.54	458.998
593.591	466.954
593.643	475.544
593.695	472.331
593.747	460.602
593.799	454.417
593.851	458.487
593.903	469.504
593.955	455.652
594.007	455.935
594.059	446.068
594.111	456.9
594.163	463.208
594.215	454.815
594.266	454.45
594.318	478.37
594.37	472.026
594.422	459.396
594.474	463.987
594.526	473.072
594.578	470.561
594.63	469.798
594.682	462.792
594.734	468.594
594.786	471.466
594.837	472.919
594.889	471.43
594.941	472.178
594.993	470.386
595.045	470.067
595.097	481.695
595.149	480.629
595.201	474.685
595.253	474.054
595.305	470.411
595.357	481.326
595.408	479.811
595.46	481.029
595.512	490.544
595.564	493.544
595.616	500.294
595.668	491.768
595.72	486.954
595.772	483.253
595.824	474.698
595.876	476.14
595.927	492.068
595.979	496.564
596.031	500.564
596.083	487.51
596.135	484.342
596.187	492.822
596.239	496.889
596.291	501.981
596.343	501.765
596.394	506.465
596.446	512.47
596.498	520.531
596.55	511.857
596.602	516.076
596.654	510.585
596.706	510.183
596.758	523.234
596.81	505.609
596.862	494.75
596.913	505.363
596.965	503.518
597.017	505.91
597.069	512.149
597.121	511.016
597.173	506.516
597.225	507.612
597.277	497.838
597.328	489.601
597.38	486.685
597.432	503.856
597.484	508.702
597.536	502.967
597.588	515.09
597.64	514.049
597.692	500.791
597.744	513.648
597.795	523.33
597.847	512.814
597.899	512.669
597.951	512.949
598.003	526.655
598.055	517.706
598.107	504.023
598.159	499.082
598.21	505.324
598.262	491.33
598.314	491.923
598.366	510.563
598.418	512.088
598.47	522.238
598.522	513.139
598.574	512.932
598.625	525.643
598.677	540.818
598.729	514.575
598.781	509.991
598.833	528.894
598.885	531.826
598.937	519.683
598.988	496.946
599.04	493.069
599.092	507.661
599.144	512.749
599.196	519.865
599.248	520.451
599.3	521.216
599.352	526.976
599.403	529.238
599.455	510.856
599.507	498.029
599.559	512.521
599.611	524.738
599.663	529.37
599.715	506.613
599.766	516.521
599.803	535.966
599.855	521.96
599.907	492.1
599.959	526.078
600.011	522.083
600.063	535.882
600.115	519.92
600.167	525.766
600.219	515.924
600.271	520.16
600.323	539.884
600.375	529.67
600.427	520.283
600.479	527.886
600.531	515.362
600.583	514.047
600.635	508.927
600.686	539.26
600.738	525.94
600.79	529.933
600.842	530.695
600.894	535.526
600.946	530.295
600.998	542.514
601.05	526.864
601.102	532.856
601.154	505.523
601.206	552.195
601.258	528.095
601.31	533.277
601.362	504.107
601.414	533.846
601.466	515.22
601.518	530.322
601.57	538.697
601.622	536.797
601.674	529.567
601.726	527.402
601.778	543.301
601.83	534.617
601.882	540.601
601.934	539.602
601.986	531.835
602.038	528.334
602.09	544.874
602.142	525.066
602.194	533.094
602.246	535.441
602.298	531.622
602.35	530.081
602.402	528.81
602.454	521.399
602.506	540.344
602.558	545.906
602.61	541.344
602.662	515.961
602.714	526.174
602.766	526.929
602.818	540.425
602.87	523.623
602.922	542.013
602.974	532.005
603.026	519.436
603.078	532.144
603.13	534.822
603.182	526.693
603.234	535.385
603.285	519.344
603.337	525.385
603.389	542.658
603.441	551.694
603.493	537.974
603.545	534.833
603.597	535.585
603.649	532.244
603.701	536.172
603.753	546.95
603.805	534.802
603.857	544.818
603.909	550.106
603.961	529.282
604.013	530.229
604.065	545.218
604.117	537.486
604.169	556.033
604.221	545.666
604.273	555.635
604.325	559.652
604.377	557.135
604.429	553.994
604.481	544.509
604.533	543.144
604.584	554.44
604.636	534.365
604.688	543.872
604.74	553.244
604.792	560.817
604.844	539.11
604.896	544.638
604.948	538.436
605	555.501
605.052	570.185
605.104	531.106
605.156	533.434
605.208	542.548
605.26	519.043
605.312	560.406
605.364	533.171
605.416	566.01
605.468	548.823
605.52	547.867
605.572	557.159
605.623	528.197
605.675	532.459
605.727	537.394
605.779	553.088
605.831	554.756
605.883	537.983
605.935	550.936
605.987	559.846
606.039	555.336
606.091	542.869
606.143	523.699
606.195	542.679
606.247	545.63
606.299	544.111
606.351	547.144
606.403	528.841
606.455	564.477
606.506	552.033
606.558	543.368
606.61	548.156
606.662	545.018
606.714	545.526
606.766	552
606.818	550.312
606.87	561.02
606.922	551.275
606.974	552.281
607.026	545.628
607.078	553.217
607.13	541.169
607.182	548.921
607.234	544.679
607.285	556.187
607.337	553.486
607.389	551.037
607.441	545.562
607.493	537.74
607.545	565.492
607.597	556.698
607.649	561.15
607.701	542.768
607.753	535.669
607.805	531.361
607.857	547.341
607.909	551.843
607.96	556.917
608.012	551.857
608.064	560.14
608.116	532.238
608.168	545.16
608.22	554.456
608.272	566.206
608.324	553.04
608.376	547.527
608.428	542.976
608.48	573.749
608.532	559.627
608.583	559.82
608.635	566.569
608.687	551.464
608.739	565.827
608.791	571.803
608.843	561.327
608.895	555.35
608.947	579.461
608.999	562.16
609.051	581.395
609.103	559.062
609.155	561.018
609.206	558.531
609.258	569.326
609.31	548.457
609.362	573.117
609.414	557.099
609.466	557.74
609.518	570.876
609.57	573.295
609.622	583.88
609.674	562.255
609.725	590.287
609.777	579.236
609.829	576.735
609.881	568.876
609.933	567.09
609.985	570.718
610.037	579.584
610.089	585.026
610.141	572.603
610.193	563.128
610.245	599.589
610.296	583.204
610.348	590.908
610.4	578.469
610.452	569.23
610.504	591.846
610.556	593.892
610.608	581.79
610.66	572.848
610.712	571.901
610.763	579.856
610.815	593.016
610.867	580.664
610.919	593.12
610.971	598.438
611.023	587.06
611.075	578.19
611.127	571.244
611.179	583.758
611.23	575.269
611.282	586.398
611.334	580.98
611.386	604.338
611.438	595.495
611.49	581.604
611.542	589.68
611.594	580.952
611.646	600.281
611.697	601.61
611.749	588.315
611.801	595.454
611.853	587.247
611.905	596.984
611.957	583.262
612.009	598.357
612.061	595.359
612.113	582.623
612.164	592.421
612.216	593.323
612.268	590.846
612.32	579.947
612.372	596.826
612.424	592.018
612.476	607.135
612.528	596.2
612.579	592.688
612.631	590.886
612.683	611.784
612.735	609.844
612.787	609.509
612.839	607.018
612.891	606.975
612.943	595.516
612.994	603.242
613.046	609.562
613.098	596.312
613.15	601.949
613.202	595.932
613.254	607.308
613.306	605.728
613.357	596.278
613.409	610.437
613.461	623.96
613.513	620.622
613.565	616.146
613.617	617.196
613.669	619.896
613.721	616.703
613.772	610.228
613.824	615.215
613.876	623.772
613.928	604.756
613.98	626.532
614.032	630.134
614.084	619.135
614.135	619.751
614.187	629.086
614.239	631.312
614.291	636.066
614.343	613.615
614.395	612.943
614.447	625.754
614.498	625.602
614.55	637.579
614.602	647.539
614.654	635.012
614.706	640.664
614.758	637.954
614.81	623.228
614.861	635.979
614.913	632.687
614.965	652.308
615.017	637.146
615.069	653.509
615.121	651.65
615.172	639.37
615.224	643.239
615.276	658.556
615.328	647.16
615.38	640.324
615.432	645.004
615.484	646.065
615.535	644.949
615.587	640.915
615.639	650.599
615.691	645.717
615.743	661.292
615.795	661.234
615.846	644.409
615.898	653.486
615.95	660.443
616.002	657.563
616.054	656.2
616.106	650.614
616.158	653.086
616.209	664.813
616.261	678.746
616.313	664.433
616.365	664.734
616.417	658.91
616.469	644.686
616.52	655.425
616.572	659.509
616.624	677.897
616.676	674.648
616.728	664.979
616.78	671.928
616.831	670.278
616.883	685.234
616.935	682.685
616.987	672.126
617.039	669.121
617.091	677.975
617.142	690.373
617.194	694.398
617.246	680.887
617.298	683.786
617.35	680.346
617.401	681.252
617.453	677.99
617.505	700.764
617.557	696.19
617.609	694.464
617.661	674.274
617.712	683.009
617.764	698.756
617.816	685.456
617.868	690.761
617.92	692.042
617.972	696.52
618.023	686.321
618.075	691.313
618.127	699.295
618.179	698.92
618.231	700.217
618.282	700.981
618.334	694.158
618.386	693.18
618.438	704.845
618.49	708.757
618.542	706.125
618.593	706.485
618.645	698.635
618.697	714.132
618.749	712.766
618.801	708.232
618.852	718.174
618.904	712.486
618.956	715.953
619.008	711.524
619.06	722.188
619.111	724.061
619.163	743.655
619.215	719.03
619.267	737.034
619.319	726.929
619.37	704.722
619.422	735.191
619.474	739.334
619.526	729.321
619.578	728.2
619.63	717.676
619.681	738.557
619.733	733.207
619.785	723.628
619.837	740.37
619.888	726.844
619.94	704.187
619.992	720.849
620.044	732.449
620.096	733.571
620.147	725.965
620.199	742.816
620.251	729.96
620.303	736.194
620.355	732.548
620.406	734.999
620.458	754.435
620.51	734.663
620.562	756.76
620.614	745.342
620.665	738.736
620.717	722
620.769	735.581
620.821	740.203
620.873	738.139
620.924	752.488
620.976	740.099
621.028	733.938
621.08	753.973
621.132	736.497
621.183	764.543
621.235	745.163
621.287	769.4
621.339	751.145
621.39	757.489
621.442	764.408
621.494	730.906
621.546	747.099
621.598	758.791
621.649	746.426
621.701	747.35
621.753	740.96
621.805	750.291
621.856	751.869
621.908	748.157
621.96	767.749
622.012	763.23
622.064	762.945
622.115	743.923
622.167	779.217
622.219	755.638
622.271	743.951
622.322	752.666
622.374	737.695
622.426	753.045
622.478	754.87
622.53	746.7
622.581	773.492
622.633	748.793
622.685	746.972
622.737	753.242
622.788	773.715
622.84	752.34
622.892	752.702
622.944	768.339
622.995	732.704
623.047	755.179
623.099	748.665
623.151	744.68
623.203	757.873
623.254	749.419
623.306	766.619
623.358	768.667
623.41	783.854
623.461	753.92
623.513	760.041
623.565	752.986
623.617	758.62
623.668	777.958
623.72	752.458
623.772	771.815
623.824	742.482
623.875	762.876
623.927	778.275
623.979	754.146
624.031	784.091
624.082	778.344
624.134	773.6
624.186	781.028
624.238	806.359
624.289	771.777
624.341	795.349
624.393	753.877
624.445	784.082
624.496	771.709
624.548	781.756
624.6	764.443
624.652	780.8
624.703	770.655
624.755	774.109
624.807	776.372
624.859	781.049
624.91	769.431
624.962	785.636
625.014	767.61
625.066	764.957
625.117	770.332
625.169	805.381
625.221	780.642
625.273	782.532
625.324	788.408
625.376	777.275
625.428	767.9
625.48	754.882
625.531	774.127
625.583	790.138
625.635	783.377
625.687	801.147
625.738	768.453
625.79	773.312
625.842	757.55
625.893	786.869
625.945	786.547
625.997	793.099
626.049	787.468
626.1	777.697
626.152	809.54
626.204	799.149
626.256	782.665
626.307	801.585
626.316	805.797
626.368	791.89
626.42	795.722
626.472	809.801
626.523	805.28
626.575	811.378
626.627	787.959
626.679	807.414
626.731	803.428
626.783	788.033
626.835	815.555
626.887	817.626
626.938	794.336
626.99	779.132
627.042	793.726
627.094	787.734
627.146	822.553
627.198	818.922
627.25	815.646
627.302	788.364
627.353	801.82
627.405	811.874
627.457	818.988
627.509	798.556
627.561	801.283
627.613	820.023
627.665	812.893
627.716	795.24
627.768	813.195
627.82	838.01
627.872	806.359
627.924	816.336
627.976	798.902
628.028	830.802
628.079	835.935
628.131	828.924
628.183	819.971
628.235	814.091
628.287	825.841
628.339	783.516
628.391	844.166
628.443	826.605
628.494	822.536
628.546	851.953
628.598	822.39
628.65	822.057
628.702	827.069
628.754	815.282
628.805	830.356
628.857	841.72
628.909	838.887
628.961	827.032
629.013	852.052
629.065	825.241
629.117	840.661
629.168	848.992
629.22	847.249
629.272	835.139
629.324	826.66
629.376	826.807
629.428	825.873
629.479	822.627
629.531	833.872
629.583	849.195
629.635	829.921
629.687	850.942
629.739	854.88
629.791	857.768
629.842	853.385
629.894	843.922
629.946	853.842
629.998	805.307
630.05	864.379
630.102	835.924
630.153	865.726
630.205	827.568
630.257	856.812
630.309	848.65
630.361	850.274
630.413	846.974
630.464	858.324
630.516	874.429
630.568	872.856
630.62	868.355
630.672	865.385
630.724	873.632
630.776	855.259
630.827	873.513
630.879	881.537
630.931	880.592
630.983	869.681
631.035	885.057
631.086	868.819
631.138	870.131
631.19	862.521
631.242	866.251
631.294	893.495
631.346	866.432
631.397	892.431
631.449	877.795
631.501	891.767
631.553	864.846
631.605	889.794
631.657	872.462
631.708	885.447
631.76	877.86
631.812	893.586
631.864	896.165
631.916	903.981
631.967	886.091
632.019	913.092
632.071	909.052
632.123	884.467
632.175	894.437
632.227	883.671
632.278	890.157
632.33	913.674
632.382	902.146
632.434	902.787
632.486	906.935
632.537	888.48
632.589	919.449
632.641	928.874
632.693	934.441
632.745	889.128
632.797	943.812
632.848	911.5
632.9	914.613
632.952	933.667
633.004	901.246
633.056	919.522
633.107	917.98
633.159	933.692
633.211	901.641
633.263	934.038
633.315	927.474
633.366	935.536
633.418	907.564
633.47	969.242
633.522	940.736
633.574	953.36
633.625	936.1
633.677	930.447
633.729	941.508
633.781	925.781
633.833	946.004
633.885	940.593
633.936	972.173
633.988	973.852
634.04	954.463
634.092	944.241
634.143	958.47
634.195	966.061
634.247	966.568
634.299	952.631
634.351	976.324
634.403	983.236
634.454	999.134
634.506	983.615
634.558	996.708
634.61	979.315
634.661	982.135
634.713	991.094
634.765	987.16
634.817	1012.33
634.869	992.392
634.92	987.975
634.972	994.707
635.024	1015.67
635.076	993.209
635.128	1012.27
635.179	1004.79
635.231	998.111
635.283	1003.69
635.335	1013.21
635.387	1031.54
635.438	1054.44
635.49	1026.35
635.542	1034.82
635.594	1046.31
635.645	1049.27
635.697	1028.91
635.749	1041.71
635.801	1085.59
635.853	1083.52
635.904	1069.4
635.956	1091.3
636.008	1104.45
636.06	1115.11
636.112	1117.5
636.163	1106.5
636.215	1131.28
636.267	1125.01
636.319	1116
636.37	1147.08
636.422	1123.51
636.474	1156.04
636.526	1165.75
636.577	1176.17
636.629	1192.76
636.681	1182.98
636.733	1207.6
636.785	1222.48
636.836	1209.8
636.888	1215.27
636.94	1250.67
636.992	1218.41
637.043	1252.56
637.095	1257.99
637.147	1255.81
637.199	1255.37
637.25	1296.54
637.302	1269.94
637.354	1305.83
637.406	1315.38
637.458	1294.62
637.509	1315.28
637.561	1318.18
637.613	1316.59
637.665	1359.15
637.716	1331.14
637.768	1351.09
637.82	1368.31
637.872	1382.11
637.923	1367.25
637.975	1389.95
638.027	1383.24
638.079	1386.02
638.13	1367.36
638.182	1382.13
638.234	1392.19
638.286	1363.33
638.337	1348.92
638.389	1360.08
638.441	1375.03
638.493	1390.27
638.544	1365.13
638.596	1389.02
638.648	1394.99
638.7	1363.97
638.752	1349.48
638.803	1363.71
638.855	1354.93
638.907	1340.49
638.958	1351.45
639.01	1349.82
639.062	1337.01
639.114	1321.1
639.165	1331.47
639.217	1323.91
639.269	1318.7
639.321	1289.68
639.372	1309.47
639.424	1281.93
639.476	1303.15
639.528	1297.17
639.579	1282.89
639.631	1277.63
639.683	1275.58
639.735	1231.13
639.786	1266.58
639.838	1258.18
639.89	1257.04
639.942	1253.74
639.993	1225.54
640.045	1221.47
640.097	1213.18
640.149	1211.52
640.2	1219.88
640.252	1218.8
640.304	1218.58
640.356	1218
640.407	1234.44
640.459	1181.86
640.511	1202
640.562	1193.09
640.614	1195.83
640.666	1170.21
640.718	1181.96
640.769	1187.56
640.821	1201.14
640.873	1180.59
640.925	1181.58
640.976	1192.55
641.028	1183.08
641.08	1153.77
641.131	1178.21
641.183	1164
641.235	1178.18
641.287	1179.05
641.338	1161.78
641.39	1184.78
641.442	1165.84
641.494	1156.26
641.545	1179.12
641.597	1168.13
641.649	1169.53
641.7	1173.48
641.752	1158.1
641.804	1160.47
641.856	1151.66
641.907	1161.85
641.959	1166.67
642.011	1155.62
642.063	1152.35
642.114	1180.86
642.166	1154.42
642.218	1160.95
642.269	1188.84
642.321	1162.97
642.373	1161.25
642.424	1173.54
642.476	1191.8
642.528	1194.23
642.58	1160.74
642.631	1167.23
642.683	1166.66
642.735	1196.17
642.786	1185.42
642.838	1173.58
642.89	1188.39
642.942	1186.26
642.993	1179.03
643.045	1164.78
643.097	1183.13
643.148	1170.43
643.2	1180.52
643.252	1180.12
643.304	1172.92
643.355	1169.03
643.407	1176.65
643.459	1177.88
643.51	1191.66
643.562	1179.16
643.614	1182.92
643.665	1191.21
643.717	1183.96
643.769	1153.43
643.82	1187.78
643.872	1185.89
643.924	1202.05
643.976	1189.53
644.027	1175.71
644.079	1184.34
644.131	1201.54
644.182	1213.07
644.234	1171.61
644.286	1202.96
644.337	1187.37
644.389	1197.68
644.441	1198.59
644.493	1192.66
644.544	1173.45
644.596	1197.89
644.648	1196.07
644.699	1215.54
644.751	1208.02
644.803	1202.06
644.854	1226.2
644.906	1208.54
644.958	1217.83
645.009	1209.66
645.061	1209.46
645.113	1212.49
645.164	1197.57
645.216	1230.31
645.268	1221.8
645.32	1214.56
645.371	1187.73
645.423	1214.59
645.475	1222.73
645.526	1219.88
645.578	1204.23
645.63	1211.52
645.681	1215.44
645.733	1222.5
645.785	1226.59
645.836	1217.67
645.888	1229.91
645.94	1226.33
645.991	1218.68
646.043	1228.09
646.095	1207.38
646.146	1230.04
646.198	1210.63
646.25	1261.46
646.301	1242.48
646.353	1237.27
646.405	1210.5
646.456	1215.02
646.508	1227.15
646.56	1242.36
646.611	1224.48
646.663	1240.6
646.715	1241.28
646.766	1227.95
646.818	1239.17
646.87	1247.48
646.921	1218.91
646.973	1240.5
647.025	1241.4
647.076	1208.9
647.128	1266.23
647.18	1282.87
647.231	1255.44
647.283	1253.02
647.335	1227.96
647.386	1238.3
647.438	1278.49
647.49	1257.59
647.541	1268.67
647.593	1263.86
647.645	1276.95
647.696	1296.88
647.748	1244.86
647.8	1256.64
647.851	1244.99
647.903	1251.39
647.955	1230.41
648.006	1246.47
648.058	1270.5
648.109	1252.82
648.161	1248.15
648.213	1256.21
648.264	1247.4
648.316	1272.15
648.368	1288.05
648.419	1289.94
648.471	1256.93
648.523	1289.12
648.574	1278.72
648.626	1285.73
648.678	1283.06
648.729	1279.26
648.781	1315.2
648.833	1289.2
648.884	1304.31
648.936	1301.94
648.987	1289.39
649.039	1272.44
649.091	1302.25
649.142	1293.11
649.194	1275.39
649.246	1291.95
649.297	1318.58
649.349	1298.02
649.401	1306.09
649.452	1314.53
649.504	1307.69
649.555	1295.79
649.607	1333.53
649.659	1346.54
649.71	1325.56
649.762	1305.49
649.814	1316.46
649.865	1345.47
649.917	1307.18
649.969	1317.59
650.02	1302.77
650.072	1289.49
650.123	1327.56
650.175	1335.49
650.227	1325.86
650.278	1319.51
650.33	1325.82
650.382	1317.84
650.433	1336.09
650.485	1329.2
650.536	1332.83
650.588	1379.6
650.64	1347.39
650.691	1340.36
650.743	1317.21
650.795	1357.23
650.846	1369.77
650.898	1343.88
650.949	1354.64
651.001	1345.68
651.053	1338.83
651.104	1363.47
651.156	1368.88
651.208	1366.14
651.259	1357.23
651.311	1354.22
651.362	1336.27
651.414	1322.61
651.466	1357.1
651.517	1340.68
651.569	1345.83
651.62	1349.49
651.672	1389.35
651.724	1391.75
651.775	1379.1
651.827	1377.01
651.878	1382.82
651.93	1394.34
651.982	1398.17
652.033	1406.11
652.085	1398.62
652.137	1390.82
652.188	1397.87
652.24	1411.16
652.291	1390.45
652.343	1396.63
652.395	1416.31
652.446	1406.81
652.498	1418.17
652.549	1419.35
652.601	1425.48
652.653	1387.32
652.704	1407.95
652.756	1428.68
652.772	1429.84
652.824	1368.34
652.876	1402.5
652.927	1423.88
652.979	1432
653.031	1430.13
653.083	1438.1
653.134	1432
653.186	1446.42
653.238	1422.57
653.29	1405.13
653.341	1405.44
653.393	1446.01
653.445	1432.72
653.497	1453.56
653.548	1451.75
653.6	1425.19
653.652	1456.09
653.704	1430.52
653.755	1468.42
653.807	1472.89
653.859	1485.42
653.91	1440.65
653.962	1507.31
654.014	1494.8
654.066	1479.02
654.117	1470
654.169	1480.84
654.221	1463.29
654.273	1494.25
654.324	1494.67
654.376	1469.92
654.428	1476.48
654.48	1453.74
654.531	1524.13
654.583	1493.57
654.635	1501.18
654.686	1491.39
654.738	1514.89
654.79	1510.37
654.842	1516.12
654.893	1524.07
654.945	1515.82
654.997	1503.69
655.049	1542.21
655.1	1506.51
655.152	1530.91
655.204	1533.8
655.255	1526.5
655.307	1515.06
655.359	1526.95
655.411	1544.08
655.462	1565.16
655.514	1547.25
655.566	1562.2
655.618	1557.94
655.669	1531.26
655.721	1544.63
655.773	1601.44
655.824	1571.56
655.876	1569.61
655.928	1560
655.98	1599.97
656.031	1554.26
656.083	1588.48
656.135	1573.51
656.186	1547.68
656.238	1580.64
656.29	1557.43
656.342	1596.02
656.393	1607.65
656.445	1601.29
656.497	1584.57
656.548	1619.83
656.6	1636.28
656.652	1604.63
656.704	1637.61
656.755	1616.88
656.807	1621.96
656.859	1645.1
656.91	1618
656.962	1624.77
657.014	1664.79
657.065	1660.81
657.117	1676.99
657.169	1618.64
657.221	1627.33
657.272	1636.03
657.324	1693.81
657.376	1646.19
657.427	1678.07
657.479	1659.47
657.531	1675.02
657.583	1675.36
657.634	1689.3
657.686	1726.72
657.738	1665.31
657.789	1680.72
657.841	1660.56
657.893	1667.1
657.944	1696.58
657.996	1656.27
658.048	1683.28
658.099	1670.88
658.151	1661.41
658.203	1681.03
658.255	1709.9
658.306	1664.77
658.358	1699.93
658.41	1685.36
658.461	1683.44
658.513	1692.61
658.565	1703.58
658.616	1689.59
658.668	1718.45
658.72	1696.65
658.771	1662.45
658.823	1707.84
658.875	1697.93
658.927	1719.31
658.978	1704
659.03	1727.58
659.082	1706.35
659.133	1712.74
659.185	1717.22
659.237	1724.02
659.288	1737.16
659.34	1711.24
659.392	1689.66
659.443	1746.45
659.495	1699.58
659.547	1690.24
659.598	1726.39
659.65	1731.04
659.702	1708.95
659.753	1734.38
659.805	1750.5
659.857	1717
659.909	1741.43
659.96	1720.94
660.012	1705.61
660.064	1741.21
660.115	1762.72
660.167	1743.33
660.219	1702.81
660.27	1730.63
660.322	1746.21
660.374	1735.77
660.425	1742.43
660.477	1721.69
660.529	1726.8
660.58	1717.67
660.632	1736.39
660.684	1723.67
660.735	1726.14
660.787	1734.75
660.839	1732.85
660.89	1708.68
660.942	1718.03
660.994	1752
661.045	1730.92
661.097	1715.65
661.149	1706.95
661.2	1728.26
661.252	1723.75
661.304	1727.48
661.355	1754.13
661.407	1729.83
661.459	1742.56
661.51	1716.42
661.562	1718.29
661.614	1711.86
661.665	1727.06
661.717	1727.31
661.768	1720.91
661.82	1732.27
661.872	1707.29
661.923	1708.56
661.975	1750.09
662.027	1715.65
662.078	1709.67
662.13	1734.94
662.182	1741.76
662.233	1720.28
662.285	1704.99
662.337	1699.99
662.388	1726.64
662.44	1703.83
662.492	1737.54
662.543	1749.01
662.595	1743.75
662.647	1726.56
662.698	1699.4
662.75	1738.55
662.802	1720.86
662.853	1725.13
662.905	1741.41
662.956	1740.25
663.008	1720.07
663.06	1743.46
663.111	1748.17
663.163	1719.62
663.215	1724.45
663.266	1751.98
663.318	1723.9
663.37	1725.57
663.421	1721.85
663.473	1734.6
663.525	1726.74
663.576	1735.98
663.628	1699.68
663.679	1731.95
663.731	1701.4
663.783	1720.96
663.834	1731.43
663.886	1726.7
663.938	1755.55
663.989	1724.63
664.041	1709.54
664.093	1739.95
664.144	1765.21
664.196	1736.91
664.247	1750.63
664.299	1734.26
664.351	1733.83
664.402	1740.21
664.454	1737.95
664.506	1760.61
664.557	1751.24
664.609	1744.34
664.66	1718.78
664.712	1719.62
664.764	1745.5
664.815	1729.17
664.867	1740.82
664.919	1714
664.97	1757.81
665.022	1724.45
665.073	1752.92
665.125	1727.07
665.177	1739.5
665.228	1742.34
665.28	1723.78
665.332	1696.44
665.383	1728.02
665.435	1769.36
665.486	1755.92
665.538	1707.31
665.59	1735.44
665.641	1718.65
665.693	1731.88
665.745	1722.28
665.796	1742.02
665.848	1703.75
665.899	1743.38
665.951	1735.1
666.003	1707.91
666.054	1736.92
666.106	1723.54
666.157	1719.29
666.209	1709.22
666.261	1712.16
666.312	1719.36
666.364	1710.8
666.415	1713.72
666.467	1746.29
666.519	1719.3
666.57	1713.75
666.622	1742.5
666.673	1725.17
666.725	1712.25
666.777	1758.84
666.828	1711.74
666.88	1682.26
666.931	1740.97
666.983	1712.02
667.035	1736.65
667.086	1746.28
667.138	1737.69
667.189	1711.01
667.241	1725.72
667.293	1722.77
667.344	1746.78
667.396	1718.23
667.447	1725.32
667.499	1733.51
667.551	1760.21
667.602	1725.4
667.654	1730.86
667.705	1733.58
667.757	1731.31
667.809	1712.52
667.86	1711.76
667.912	1752.03
667.963	1728.94
668.015	1726.38
668.067	1750.88
668.118	1715.91
668.17	1702.25
668.221	1731.82
668.273	1678.75
668.325	1710
668.376	1742.54
668.428	1735.29
668.479	1714.03
668.531	1714.6
668.582	1709.58
668.634	1705.58
668.686	1723.95
668.737	1709.58
668.789	1741.9
668.84	1732.26
668.892	1713.78
668.944	1734.92
668.995	1707.71
669.047	1739
669.098	1743.36
669.15	1729.63
669.201	1719.05
669.253	1729.15
669.305	1730.51
669.356	1730.21
669.408	1744.98
669.459	1762.81
669.511	1729.81
669.562	1681.95
669.614	1716.3
669.666	1725.12
669.717	1728.21
669.769	1710.88
669.82	1742.85
669.872	1717.62
669.923	1715.74
669.975	1705.79
670.027	1700.86
670.078	1758
670.13	1728.26
670.181	1698.66
670.233	1709.73
670.284	1741.81
670.336	1720.02
670.388	1720.35
670.439	1734
670.491	1715.12
670.542	1736.84
670.594	1741.17
670.645	1719.47
670.697	1721.82
670.748	1729.34
670.8	1721.15
670.852	1735.52
670.903	1737
670.955	1719.23
671.006	1710.54
671.058	1751.53
671.109	1733.64
671.161	1752.47
671.212	1733.94
671.264	1732.85
671.316	1710.87
671.367	1718.77
671.419	1719.09
671.47	1744.22
671.522	1737.38
671.573	1744.81
671.625	1748.62
671.676	1706.19
671.728	1745.1
671.78	1742.23
671.831	1736.18
671.883	1736.11
671.934	1720.71
671.986	1730
672.037	1734.13
672.089	1721.22
672.14	1758.92
672.192	1758.76
672.243	1734.68
672.295	1731.98
672.347	1741.89
672.398	1750.38
672.45	1738.25
672.501	1748.68
672.553	1722.65
672.604	1736.94
672.656	1757.95
672.707	1741.23
672.759	1750.83
672.81	1734.26
672.862	1735.88
672.913	1746.98
672.965	1759.08
673.017	1763.34
673.068	1785.17
673.12	1771.81
673.171	1762.12
673.223	1749.36
673.274	1742.02
673.326	1786.26
673.377	1747.92
673.429	1760.33
673.48	1799.23
673.532	1766.29
673.583	1761.06
673.635	1756.82
673.686	1760.04
673.738	1776.84
673.789	1765.95
673.841	1782.37
673.893	1783.3
673.944	1785.18
673.996	1800.26
674.047	1798.64
674.099	1806.08
674.15	1786.58
674.202	1794.27
674.253	1774.02
674.305	1797.32
674.356	1821.38
674.408	1787.03
674.459	1762.59
674.511	1794.29
674.562	1819.72
674.614	1801.13
674.665	1792.47
674.717	1802.33
674.768	1773.41
674.82	1790.54
674.871	1791.36
674.923	1796.46
674.974	1826.7
675.026	1811.24
675.077	1793.97
675.129	1768.34
675.18	1799.03
675.232	1817.2
675.284	1811.34
675.335	1821.13
675.387	1809.77
675.438	1803.25
675.49	1823.13
675.541	1826.56
675.593	1832.43
675.644	1830.43
675.696	1851.09
675.747	1844.16
675.799	1849.73
675.85	1861.33
675.902	1844.89
675.953	1826.49
676.005	1840.5
676.056	1821.87
676.108	1845.85
676.159	1833.19
676.211	1836.78
676.262	1839.94
676.314	1819.98
676.365	1822.83
676.417	1833.59
676.468	1854.82
676.52	1872.94
676.571	1870.44
676.623	1854.81
676.674	1852.16
676.726	1854.52
676.777	1857.38
676.828	1842.95
676.88	1833.72
676.932	1834.81
676.983	1841.26
677.034	1859.11
677.086	1850.53
677.137	1847.74
677.189	1853.32
677.24	1835.16
677.292	1848.83
677.343	1868.67
677.395	1872.13
677.446	1860.84
677.498	1840.12
677.549	1850.99
677.601	1864.53
677.652	1855.03
677.704	1844.24
677.755	1832.22
677.807	1859.29
677.858	1895.7
677.91	1877.31
677.961	1860.99
678.013	1855.84
678.064	1839.43
678.116	1836.36
678.167	1845.7
678.219	1861.53
678.27	1835.39
678.322	1817.21
678.373	1839.13
678.424	1838.29
678.476	1850.16
678.527	1849.38
678.579	1835.57
678.63	1847.94
678.682	1861.35
678.733	1845.64
678.785	1858.37
678.836	1873.5
678.888	1861.17
678.939	1857.28
678.991	1843.94
679.042	1842.04
679.094	1845.92
679.122	1836.16
679.173	1866.21
679.225	1802.73
679.277	1862.35
679.328	1856.27
679.38	1846.47
679.432	1831.16
679.483	1847.1
679.535	1819.89
679.586	1870.9
679.638	1899.68
679.69	1860.39
679.741	1852.78
679.793	1870.48
679.844	1837.49
679.896	1873.37
679.948	1847.6
679.999	1881.89
680.051	1885.28
680.103	1837.35
680.154	1850.17
680.206	1845.39
680.257	1878.32
680.309	1903.25
680.361	1840.14
680.412	1859.43
680.464	1861.8
680.515	1895.55
680.567	1853.22
680.619	1853.9
680.67	1884.83
680.722	1884.59
680.773	1871.01
680.825	1879.74
680.877	1875.46
680.928	1872.76
680.98	1871.89
681.031	1913.04
681.083	1869.15
681.135	1874.41
681.186	1870.61
681.238	1862.62
681.289	1927.41
681.341	1903.39
681.393	1892.21
681.444	1884.58
681.496	1916.54
681.547	1874.52
681.599	1878.45
681.651	1907.9
681.702	1893.05
681.754	1872.23
681.805	1872.8
681.857	1907.32
681.909	1906.6
681.96	1859.82
682.012	1917.81
682.063	1904.2
682.115	1902.66
682.166	1862.05
682.218	1894.62
682.27	1893.15
682.321	1893.99
682.373	1921.05
682.424	1911.76
682.476	1915.08
682.528	1914.52
682.579	1887.19
682.631	1924.32
682.682	1920.17
682.734	1923.11
682.785	1888.8
682.837	1920.9
682.889	1943.16
682.94	1924.96
682.992	1916.76
683.043	1888.31
683.095	1946.37
683.146	1932.93
683.198	1905.14
683.25	1931.4
683.301	1870.79
683.353	1909.07
683.404	1926.77
683.456	1920.28
683.508	1928.1
683.559	1907.33
683.611	1899.36
683.662	1912.48
683.714	1923.49
683.765	1927.69
683.817	1919.15
683.869	1912.26
683.92	1914.75
683.972	1885.06
684.023	1902.57
684.075	1897.22
684.126	1913.57
684.178	1917.39
684.229	1915.8
684.281	1921.36
684.333	1943.8
684.384	1893.41
684.436	1908.7
684.487	1930.19
684.539	1964.03
684.59	1911.87
684.642	1871.25
684.694	1879.88
684.745	1926.91
684.797	1916.25
684.848	1869.31
684.9	1886.52
684.951	1933.55
685.003	1906.45
685.055	1873.94
685.106	1910.73
685.158	1868.57
685.209	1883.26
685.261	1869.9
685.312	1899.89
685.364	1898
685.415	1850.5
685.467	1868.63
685.518	1913.86
685.57	1894.38
685.622	1871.17
685.673	1864.42
685.725	1907.54
685.776	1883.82
685.828	1920.48
685.879	1892.56
685.931	1918.56
685.982	1891.82
686.034	1874.94
686.086	1902.7
686.137	1881.93
686.189	1887.53
686.24	1868.72
686.292	1891.81
686.343	1868.97
686.395	1885.83
686.446	1889.42
686.498	1874.11
686.549	1880.94
686.601	1868.07
686.652	1882.01
686.704	1878.85
686.756	1897.54
686.807	1870.86
686.859	1853.85
686.91	1884.65
686.962	1894.56
687.013	1877.42
687.065	1869.11
687.116	1863.2
687.168	1836.13
687.219	1872.51
687.271	1858.02
687.322	1900.51
687.374	1864.91
687.426	1852.26
687.477	1871.64
687.529	1837.36
687.58	1843.44
687.632	1879.68
687.683	1863.38
687.735	1837.76
687.786	1870.07
687.838	1864.98
687.889	1847.4
687.941	1855.78
687.992	1847.43
688.044	1870.51
688.095	1892.58
688.147	1854.24
688.198	1839
688.25	1853.07
688.302	1877.19
688.353	1881.44
688.405	1857.53
688.456	1866.67
688.508	1828.31
688.559	1888.91
688.611	1878.08
688.662	1878.47
688.714	1883.07
688.765	1851.57
688.817	1844.62
688.868	1859.51
688.92	1858.26
688.971	1852.46
689.023	1853.38
689.074	1855.87
689.126	1841.8
689.177	1859.08
689.229	1857.39
689.28	1846.83
689.332	1879.51
689.383	1849.91
689.435	1847.49
689.486	1854.95
689.538	1838.63
689.589	1879.41
689.641	1870.69
689.692	1861.58
689.744	1881.74
689.795	1853.82
689.847	1846.39
689.898	1862.24
689.95	1819.47
690.001	1841.37
690.053	1873.01
690.104	1869.33
690.156	1866.88
690.207	1836.7
690.259	1816.23
690.31	1852.19
690.362	1852.94
690.413	1854.15
690.465	1857.71
690.516	1849.85
690.568	1839.89
690.619	1863.2
690.671	1853.25
690.722	1833.19
690.774	1837.73
690.825	1826.75
690.877	1840.57
690.928	1849.73
690.98	1815.45
691.031	1856.25
691.083	1833.56
691.134	1826.6
691.186	1807.51
691.237	1839.92
691.289	1817.73
691.34	1831.62
691.392	1793.74
691.443	1843.54
691.495	1851.74
691.546	1840.52
691.598	1832.68
691.649	1850.69
691.701	1842.08
691.752	1823.44
691.804	1800.24
691.855	1793.67
691.907	1835.64
691.958	1809.23
692.01	1811.53
692.061	1812.66
692.113	1807.31
692.164	1789.25
692.216	1817.54
692.267	1845.31
692.319	1808.74
692.37	1791.4
692.421	1792.52
692.473	1788.57
692.524	1817.27
692.576	1815.15
692.627	1811.92
692.679	1803.36
692.73	1817.27
692.782	1792.48
692.833	1793.38
692.885	1814.73
692.936	1790.19
692.988	1821.04
693.039	1800.66
693.091	1801.4
693.142	1813.2
693.194	1788.85
693.245	1812.14
693.297	1810.68
693.348	1789.5
693.399	1789.81
693.451	1794.25
693.502	1809.69
693.554	1802.99
693.605	1782.3
693.657	1803.37
693.708	1794.88
693.76	1811.98
693.811	1760.52
693.863	1796.33
693.914	1764.19
693.966	1781.27
694.017	1788.74
694.068	1793.81
694.12	1804.31
694.171	1777.48
694.223	1783.94
694.274	1769.61
694.326	1773.73
694.377	1773.89
694.429	1793.95
694.48	1797.07
694.532	1789.69
694.583	1765.28
694.634	1756.88
694.686	1795.82
694.737	1785.37
694.789	1783.79
694.84	1769.24
694.892	1798.47
694.943	1776.77
694.995	1752.72
695.046	1762.55
695.097	1756.58
695.149	1746.37
695.2	1788.43
695.252	1760.1
695.303	1770.56
695.355	1776.53
695.406	1776.46
695.458	1783.96
695.509	1770.32
695.56	1765.96
695.612	1754.05
695.663	1755.79
695.715	1767.37
695.766	1742.14
695.818	1793.7
695.869	1770.95
695.921	1769.18
695.972	1746.21
696.023	1760.26
696.075	1746.93
696.126	1767.46
696.178	1760.59
696.229	1801.71
696.281	1741.56
696.332	1765.22
696.383	1757.06
696.435	1759.26
696.486	1731.92
696.538	1709.63
696.589	1771.17
696.641	1767.6
696.692	1731.28
696.744	1733.99
696.795	1757.31
696.846	1750.7
696.898	1722.71
696.949	1747.3
697.001	1757.27
697.052	1748.56
697.104	1725.96
697.155	1738.59
697.206	1755.75
697.258	1749.28
697.309	1735.12
697.361	1743.36
697.412	1720.86
697.463	1765.28
697.515	1729.47
697.566	1726.67
697.618	1706.16
697.669	1713.57
697.721	1730.61
697.772	1721.62
697.823	1708.77
697.875	1733.02
697.926	1715.67
697.978	1719.76
698.029	1709.92
698.08	1694.14
698.132	1723.66
698.183	1741.33
698.235	1749.66
698.286	1713.56
698.338	1703.62
698.389	1705.82
698.44	1706.41
698.492	1723.81
698.543	1689.01
698.595	1707.19
698.646	1705.43
698.697	1728.52
698.749	1694.41
698.8	1712.98
698.852	1691.44
698.903	1674.17
698.954	1682.01
699.006	1693.92
699.057	1685.86
699.109	1660.49
699.16	1654.85
699.211	1674.16
699.263	1675.9
699.314	1658.61
699.366	1678.59
699.417	1683.11
699.468	1680.87
699.52	1667.01
699.571	1669.88
699.623	1690.21
699.674	1724.85
699.725	1688.62
699.777	1667.35
699.828	1672.22
699.88	1676.03
699.931	1677.03
699.982	1673.99
700.034	1666.74
700.085	1686.91
700.137	1671.05
700.188	1670.07
700.239	1693.84
700.291	1674.25
700.342	1682.07
700.393	1683.14
700.445	1682.48
700.496	1670.83
700.548	1664.16
700.599	1671.41
700.65	1684.66
700.702	1689.27
700.753	1674.18
700.805	1669.02
700.856	1657.11
700.907	1674.96
700.959	1658.28
701.01	1677.61
701.061	1693.82
701.113	1661.05
701.164	1665.25
701.216	1685.92
701.267	1674.9
701.318	1674.08
701.37	1673.05
701.421	1661.9
701.472	1624.34
701.524	1662.69
701.575	1670.01
701.627	1666.87
701.678	1685.16
701.729	1681.23
701.781	1661.09
701.832	1657.09
701.883	1683.15
701.935	1682.26
701.986	1663.87
702.038	1677.07
702.089	1671.34
702.14	1677.73
702.192	1694.09
702.243	1670.44
702.294	1667.34
702.346	1673.68
702.397	1680.05
702.448	1674.63
702.5	1675.62
702.551	1690.12
702.603	1689.49
702.654	1676.9
702.705	1657.26
702.757	1652.05
702.808	1662.46
702.859	1670.64
702.911	1692.83
702.962	1716.78
703.013	1690.44
703.065	1662.09
703.116	1641.12
703.167	1637.77
703.219	1666.94
703.27	1661.29
703.322	1678.54
703.373	1689.17
703.424	1682.67
703.476	1662.72
703.527	1666.33
703.578	1686.83
703.63	1675.19
703.681	1679.36
703.732	1667.63
703.784	1656.95
703.835	1673.86
703.886	1656.25
703.938	1654.79
703.989	1668.54
704.04	1681.6
704.092	1671.44
704.143	1642.7
704.194	1651.19
704.246	1649.8
704.297	1645.35
704.348	1659.8
704.4	1648.15
704.451	1651.35
704.503	1656.61
704.554	1667.83
704.605	1658.15
704.656	1640.26
704.708	1655.87
704.759	1648.45
704.81	1641.68
704.862	1629.04
704.913	1625.95
704.964	1642.5
705.016	1649.36
705.067	1657.2
705.119	1647.35
705.17	1662.39
705.221	1652.92
705.273	1621.92
705.324	1611.45
705.375	1629.07
705.408	1680
705.459	1600
705.511	1640.03
705.562	1628.12
705.614	1616.29
705.665	1598.58
705.717	1622.52
705.768	1591.02
705.82	1620.64
705.871	1583.27
705.923	1602.61
705.974	1644.02
706.026	1616.99
706.077	1612.29
706.129	1606.18
706.18	1605.12
706.232	1583.67
706.283	1610.67
706.335	1605.53
706.386	1587.61
706.438	1591.94
706.489	1606.86
706.541	1581.54
706.592	1612.36
706.643	1606.4
706.695	1585.13
706.746	1613.82
706.798	1593.83
706.849	1566.03
706.901	1595.24
706.952	1600.26
707.004	1587.76
707.055	1556.53
707.107	1597.73
707.158	1596.74
707.21	1556.42
707.261	1548.78
707.313	1547.94
707.364	1578.92
707.416	1593.8
707.467	1539.04
707.518	1572.79
707.57	1562.82
707.621	1576.74
707.673	1596.21
707.724	1603.17
707.776	1559.07
707.827	1549.52
707.879	1553.55
707.93	1560.96
707.982	1571.16
708.033	1566.33
708.084	1514.31
708.136	1558.5
708.187	1562.27
708.239	1580.8
708.29	1572.62
708.342	1581.17
708.393	1580.63
708.445	1576.29
708.496	1564.08
708.548	1546.81
708.599	1533.03
708.651	1530.98
708.702	1564.57
708.753	1575.3
708.805	1530.23
708.856	1558.7
708.908	1538.37
708.959	1535.2
709.011	1548.17
709.062	1571.87
709.114	1570.93
709.165	1545.16
709.216	1559.49
709.268	1556.03
709.319	1535.16
709.371	1533.51
709.422	1554.24
709.474	1560.37
709.525	1556.96
709.577	1543.69
709.628	1549.56
709.679	1539.74
709.731	1531.16
709.782	1531
709.834	1528.85
709.885	1527.99
709.937	1530.52
709.988	1532.99
710.039	1532.14
710.091	1552.1
710.142	1519.41
710.194	1540.22
710.245	1557.68
710.297	1543.74
710.348	1533.31
710.4	1523.79
710.451	1574.1
710.502	1557.85
710.554	1539.95
710.605	1512.41
710.657	1512.53
710.708	1535.4
710.76	1526.33
710.811	1533.18
710.862	1521.29
710.914	1536.85
710.965	1519.6
711.017	1513.9
711.068	1521.67
711.12	1539.79
711.171	1497.14
711.222	1528.68
711.274	1544.04
711.325	1520.94
711.377	1500.1
711.428	1498.57
711.479	1522.64
711.531	1549.1
711.582	1494.58
711.634	1500.66
711.685	1470.27
711.737	1483.17
711.788	1504.34
711.839	1523.02
711.891	1506.28
711.942	1476.84
711.994	1496.37
712.045	1485.52
712.096	1518.24
712.148	1489.89
712.199	1501.38
712.251	1531.7
712.302	1487.93
712.354	1507.54
712.405	1499.74
712.456	1464.3
712.508	1475.26
712.559	1481.82
712.611	1473.02
712.662	1469.77
712.713	1439.67
712.765	1450.65
712.816	1461.17
712.868	1488.13
712.919	1479.34
712.97	1475.93
713.022	1476.29
713.073	1471.06
713.125	1451.33
713.176	1483.57
713.227	1444.36
713.279	1448.83
713.33	1456.54
713.382	1463.37
713.433	1451.15
713.484	1427.75
713.536	1456.22
713.587	1430.6
713.639	1434.54
713.69	1447.76
713.741	1426.86
713.793	1449.4
713.844	1454.72
713.896	1414.11
713.947	1432.96
713.998	1463.52
714.05	1420.42
714.101	1437.54
714.153	1440.24
714.204	1426.14
714.255	1426.74
714.307	1438.68
714.358	1443.18
714.41	1407.79
714.461	1415.46
714.512	1424.64
714.564	1441.15
714.615	1369.01
714.666	1425.8
714.718	1436.35
714.769	1410.59
714.821	1410.78
714.872	1419.66
714.923	1430.77
714.975	1409.8
715.026	1404.77
715.078	1409.42
715.129	1414.25
715.18	1411.13
715.232	1397.53
715.283	1413.9
715.334	1389.85
715.386	1392.48
715.437	1359.15
715.489	1414.85
715.54	1407.32
715.591	1419.88
715.643	1404.66
715.694	1396.53
715.745	1379.31
715.797	1409.26
715.848	1416.82
715.9	1392.29
715.951	1390.27
716.002	1359.75
716.054	1404.29
716.105	1392.54
716.156	1392.17
716.208	1385.34
716.259	1383.22
716.31	1396.14
716.362	1408.32
716.413	1360.6
716.465	1365.11
716.516	1354.73
716.567	1374.34
716.619	1364.84
716.67	1372.34
716.721	1387.62
716.773	1369.17
716.824	1379.89
716.875	1373.68
716.927	1391.86
716.978	1375.6
717.03	1379.94
717.081	1388.63
717.132	1364.92
717.184	1356.77
717.235	1356.69
717.286	1369.74
717.338	1363.89
717.389	1373.1
717.44	1356.23
717.492	1369.8
717.543	1368.36
717.594	1381.22
717.646	1355.6
717.697	1363.21
717.749	1362.28
717.8	1326.27
717.851	1364.18
717.903	1351.33
717.954	1368.33
718.005	1369.33
718.057	1362.85
718.108	1362.54
718.159	1344.28
718.211	1348.66
718.262	1339.54
718.313	1343.69
718.365	1346.66
718.416	1364.67
718.467	1345.6
718.519	1329.16
718.57	1354.84
718.621	1350.47
718.673	1352.79
718.724	1339.27
718.775	1314.4
718.827	1339.82
718.878	1332.64
718.93	1338.57
718.981	1337.1
719.032	1340.71
719.083	1344.61
719.135	1319.47
719.186	1333.93
719.237	1293.8
719.289	1343.12
719.34	1310.77
719.391	1346.67
719.443	1330.7
719.494	1315.61
719.545	1319.27
719.597	1324.82
719.648	1322.42
719.699	1329.67
719.751	1334.65
719.802	1312.96
719.853	1307.04
719.905	1317.9
719.956	1324.13
720.007	1304.19
720.059	1308.68
720.11	1306.51
720.161	1300.8
720.213	1294.1
720.264	1291.61
720.315	1314.59
720.367	1304.13
720.418	1298.42
720.469	1292.51
720.521	1282.99
720.572	1285.49
720.623	1296.13
720.675	1283.24
720.726	1284.15
720.777	1292.43
720.829	1291.48
720.88	1287.94
720.931	1306.28
720.982	1291.22
721.034	1282.89
721.085	1290.38
721.136	1296.3
721.188	1291.92
721.239	1274.1
721.29	1277.12
721.342	1265.47
721.393	1261.87
721.444	1283.79
721.496	1268.6
721.547	1273.31
721.598	1276.78
721.65	1264.35
721.701	1274.74
721.752	1249
721.803	1247.13
721.855	1246.28
721.906	1263.72
721.957	1268.8
722.009	1252.37
722.06	1241.23
722.111	1242.44
722.163	1246.46
722.214	1251.7
722.265	1234.88
722.316	1251.73
722.368	1265.02
722.419	1255.88
722.47	1242.96
722.522	1230.79
722.573	1229.28
722.624	1240
722.676	1237.19
722.727	1234.64
722.778	1253.69
722.829	1244.28
722.881	1248.4
722.932	1245.42
722.983	1262.02
723.035	1247.26
723.086	1228.67
723.137	1230.13
723.188	1232.1
723.24	1225.4
723.291	1230.62
723.342	1234.85
723.394	1225.62
723.445	1224.79
723.496	1215.16
723.547	1223.51
723.599	1228.07
723.65	1224.27
723.701	1220.21
723.753	1221.78
723.804	1221.34
723.855	1211.23
723.906	1231.33
723.958	1206.77
724.009	1213.27
724.06	1223.72
724.112	1193.76
724.163	1189.82
724.214	1189.2
724.265	1196.63
724.317	1194.46
724.368	1180.79
724.419	1196.7
724.47	1212.94
724.522	1223.22
724.573	1209.53
724.624	1210.71
724.676	1199.78
724.727	1196.5
724.778	1218.22
724.829	1211.29
724.881	1201.47
724.932	1195.24
724.983	1189.7
725.034	1203.59
725.086	1199.01
725.137	1200.47
725.188	1194.28
725.24	1198.46
725.291	1198.76
725.342	1181.4
725.393	1185.57
725.445	1161.86
725.496	1176.14
725.547	1193.03
725.598	1167.58
725.65	1188.41
725.701	1193.46
725.752	1179.8
725.803	1187.05
725.855	1194.47
725.906	1182.93
725.957	1191.33
726.008	1175.29
726.06	1175.19
726.111	1183.56
726.162	1183.81
726.213	1186.79
726.265	1163.4
726.316	1159.6
726.367	1151.23
726.418	1169.25
726.47	1164.87
726.521	1165.94
726.572	1140.66
726.623	1129
726.675	1148.81
726.726	1173.8
726.777	1153.78
726.828	1154.19
726.88	1148.24
726.931	1139.47
726.982	1151.8
727.033	1140.22
727.085	1140.16
727.136	1149.51
727.187	1142.36
727.238	1138.77
727.29	1137.63
727.341	1122.83
727.392	1132.62
727.443	1135.98
727.495	1136.48
727.546	1149.29
727.597	1137.23
727.648	1113.14
727.7	1100.15
727.751	1137.08
727.802	1134.52
727.853	1120.75
727.904	1109.67
727.956	1126.83
728.007	1122.94
728.058	1135.84
728.109	1134.81
728.161	1145.56
728.212	1113.98
728.263	1103.3
728.314	1107.38
728.366	1115.71
728.417	1103.01
728.468	1124.18
728.519	1101.38
728.57	1120.17
728.622	1100.68
728.673	1097.18
728.724	1110.57
728.775	1104.17
728.827	1111.39
728.878	1116.14
728.929	1086.9
728.98	1089.1
729.031	1105.77
729.083	1108.96
729.134	1109.87
729.185	1082.73
729.236	1079.1
729.288	1078.41
729.339	1079.22
729.39	1073.88
729.441	1093.56
729.492	1095.74
729.544	1079.08
729.595	1090.92
729.646	1089.21
729.697	1097.64
729.748	1057.6
729.8	1078.37
729.851	1083.06
729.902	1116.23
729.953	1079.18
730.004	1065.71
730.056	1075.35
730.107	1061.12
730.158	1054.4
730.209	1059.09
730.26	1066.09
730.312	1074.72
730.363	1053.16
730.414	1076.82
730.465	1073.03
730.517	1075.76
730.568	1050.97
730.619	1039.86
730.67	1059.75
730.721	1031.53
730.773	1052.89
730.824	1051.49
730.875	1042.02
730.926	1045.73
730.977	1064.26
731.029	1062.83
731.08	1017.44
731.131	1028.64
731.182	1013.52
731.233	1026.81
731.284	999.146
731.336	1018.49
731.387	1026.81
731.438	1053.73
731.489	1028.54
731.54	1052.08
731.592	1018.18
731.643	1039.95
731.643	1040
731.694	1038
731.746	1054
731.797	1034.05
731.848	1014.19
731.9	1038.08
731.951	1054.07
732.002	1008.32
732.054	1012.35
732.105	991.018
732.156	1018.71
732.208	1048.18
732.259	1024.8
732.311	1013.1
732.362	981.593
732.413	1001.26
732.465	1005.79
732.516	1009.42
732.567	1032.92
732.619	1018.89
732.67	980.842
732.721	1003.79
732.773	991.697
732.824	1032.3
732.875	980.333
732.927	1020.71
732.978	1034.03
733.029	1000.29
733.081	998.026
733.132	994.875
733.183	1009.29
733.235	967.693
733.286	974.951
733.337	1002.71
733.389	996.733
733.44	983.246
733.491	994.789
733.543	1004.9
733.594	978.033
733.645	1032.86
733.697	992.962
733.748	1004.5
733.799	987.603
733.851	1004.23
733.902	1003.1
733.953	982.404
734.005	974.318
734.056	993.192
734.107	998.785
734.158	985.951
734.21	1004.46
734.261	990.539
734.312	970.265
734.364	970.786
734.415	1010.92
734.466	991.389
734.518	971.521
734.569	1010.25
734.62	1003.67
734.672	1002.47
734.723	996.609
734.774	980.311
734.826	986.456
734.877	982.398
734.928	969.587
734.98	1000.42
735.031	982.355
735.082	969.628
735.133	987.124
735.185	951.581
735.236	973.171
735.287	980.386
735.339	982.96
735.39	972.761
735.441	959.443
735.493	1009.27
735.544	986.91
735.595	964.298
735.647	977.85
735.698	959.82
735.749	965.438
735.8	984.548
735.852	942.885
735.903	966.313
735.954	978.962
736.006	990.064
736.057	985.796
736.108	978.205
736.16	983.846
736.211	958.66
736.262	983.727
736.313	969.005
736.365	967.666
736.416	970.025
736.467	987.649
736.519	981.261
736.57	978.517
736.621	963.514
736.673	947.342
736.724	961.286
736.775	976.715
736.826	964.561
736.878	971.889
736.929	991.559
736.98	959.137
737.032	983.222
737.083	970.898
737.134	980.972
737.185	978.569
737.237	953.797
737.288	968.791
737.339	965.702
737.391	950.627
737.442	967.927
737.493	957.987
737.544	955.78
737.596	966.001
737.647	980.686
737.698	981.22
737.75	975.657
737.801	976.946
737.852	959.439
737.903	975.334
737.955	938.157
738.006	961.691
738.057	964.8
738.109	968.901
738.16	988.224
738.211	936.933
738.262	960.108
738.314	934.813
738.365	936.463
738.416	941.692
738.468	942.931
738.519	931.751
738.57	953.392
738.621	972.682
738.673	961.676
738.724	949.137
738.775	926.708
738.826	907.878
738.878	956.292
738.929	956.625
738.98	929.511
739.031	936.894
739.083	951.22
739.134	936.085
739.185	934.458
739.237	935.949
739.288	947.657
739.339	942.751
739.39	942.105
739.442	931.847
739.493	927.285
739.544	937.759
739.595	945.457
739.647	959.288
739.698	928.57
739.749	942.512
739.8	936.941
739.852	951.935
739.903	923.3
739.954	938.994
740.005	942.319
740.057	941.655
740.108	925.782
740.159	951.269
740.211	904.644
740.262	897.547
740.313	906.152
740.364	921.867
740.416	918.239
740.467	924.012
740.518	912.505
740.569	918.484
740.621	938.126
740.672	926.518
740.723	950.212
740.774	922.54
740.826	904.771
740.877	902.199
740.928	908.564
740.979	907.356
741.031	916.78
741.082	911.812
741.133	918.561
741.184	913.741
741.235	907.653
741.287	933.995
741.338	929.341
741.389	893.023
741.44	914.356
741.492	908.202
741.543	897.658
741.594	915.972
741.645	909.99
741.697	919.551
741.748	889.2
741.799	891.436
741.85	911.908
741.902	911.667
741.953	904.597
742.004	893.831
742.055	904.526
742.107	897.524
742.158	889.833
742.209	906.104
742.26	909.202
742.311	891.525
742.363	924.204
742.414	886.376
742.465	880.19
742.516	896.575
742.568	894.673
742.619	884.647
742.67	887.358
742.721	895.174
742.773	889.332
742.824	884.579
742.875	876.682
742.926	904.899
742.977	893.469
743.029	886.537
743.08	875.546
743.131	891.322
743.182	904.684
743.234	904.204
743.285	861.972
743.336	900.868
743.387	869.907
743.438	877.706
743.49	888.069
743.541	879.415
743.592	879.401
743.643	866.698
743.694	860.229
743.746	877.228
743.797	863.833
743.848	872.454
743.899	870.48
743.951	871.07
744.002	866.135
744.053	863.119
744.104	865.488
744.155	866.977
744.207	870.314
744.258	868.748
744.309	879.867
744.36	865.135
744.411	861.505
744.463	861.692
744.514	861.443
744.565	857.128
744.616	863.996
744.667	857.964
744.719	864.296
744.77	863.369
744.821	874.518
744.872	847.1
744.923	860.142
744.975	841.325
745.026	853.123
745.077	856.049
745.128	853.732
745.179	852.888
745.231	841.448
745.282	833.063
745.333	822.459
745.384	835.948
745.435	855.779
745.487	860.781
745.538	839.769
745.589	847.258
745.64	846.472
745.691	846.398
745.743	842.104
745.794	838.212
745.845	846.73
745.896	855.227
745.947	844.983
745.998	833.669
746.05	833.212
746.101	843.396
746.152	834.275
746.203	836.837
746.254	829.493
746.306	840.592
746.357	833.361
746.408	832.72
746.459	831.103
746.51	829.415
746.562	843.266
746.613	822.172
746.664	843.278
746.715	843.654
746.766	820.595
746.817	847.895
746.869	823.034
746.92	826.51
746.971	827.343
747.022	834.298
747.073	832.849
747.125	830.776
747.176	823.544
747.227	824.592
747.278	825.744
747.329	823.678
747.38	834.697
747.432	807.912
747.483	825.858
747.534	841.529
747.585	828.358
747.636	821.884
747.687	820.247
747.739	814.81
747.79	814.424
747.841	809.478
747.892	822.309
747.943	805.738
747.994	789.429
748.046	821.834
748.097	828.896
748.148	822.987
748.199	833.201
748.25	820.216
748.301	816.459
748.352	822.118
748.404	805.72
748.455	811.123
748.506	836.919
748.557	818.412
748.608	816.187
748.659	802.607
748.711	805.678
748.762	813.454
748.813	812.492
748.864	797.467
748.915	808.121
748.966	816.216
749.018	798.746
749.069	792.938
749.12	801.776
749.171	793.904
749.222	800.342
749.273	788.94
749.324	788.919
749.376	811.871
749.427	820.799
749.478	809.096
749.529	799.218
749.58	816.315
749.631	801.811
749.682	801.399
749.734	809.758
749.785	805.385
749.836	800.669
749.887	791.068
749.938	808.032
749.989	808.169
750.04	809.193
750.092	793.042
750.143	775.822
750.194	790.201
750.245	807.893
750.296	787.601
750.347	786.768
750.398	787.641
750.45	789.196
750.501	779.283
750.552	779.827
750.603	782.979
750.654	768.439
750.705	764.566
750.756	761.594
750.807	780.071
750.859	784.432
750.91	791.795
750.961	777.201
751.012	763.685
751.063	771.487
751.114	755.099
751.165	775.43
751.216	773.13
751.268	760.119
751.319	770.925
751.37	785.258
751.421	759.648
751.472	764.999
751.523	756.75
751.574	765.229
751.625	772.584
751.677	780.255
751.728	762.456
751.779	765.135
751.83	752.44
751.881	764.93
751.932	776.009
751.983	764.859
752.034	764.149
752.086	762.66
752.137	756.192
752.188	779.63
752.239	743.618
752.29	752.388
752.341	754.973
752.392	760.841
752.443	759.856
752.494	730.654
752.546	754.293
752.597	738.075
752.648	734.565
752.699	748.611
752.75	759.433
752.801	748.938
752.852	753.64
752.903	753.153
752.954	754.334
753.005	737.18
753.057	752.094
753.108	747.305
753.159	741.361
753.21	751.287
753.261	760.79
753.312	739.133
753.363	740.209
753.414	745.628
753.465	740.656
753.516	747.301
753.568	745.943
753.619	742.46
753.67	757.912
753.721	738.065
753.772	751.227
753.823	736.98
753.874	724.838
753.925	718.449
753.976	734.41
754.027	744.784
754.079	752.099
754.13	736.751
754.181	735.366
754.232	720.746
754.283	702.104
754.334	730.493
754.385	723.532
754.436	734.713
754.487	728.28
754.538	738.436
754.589	714.393
754.641	724.454
754.692	738.109
754.743	733.125
754.794	742.127
754.845	731.533
754.896	712.682
754.947	715.949
754.998	710
755.049	707.175
755.1	694.133
755.151	718.336
755.202	729.748
755.253	689.837
755.305	700.965
755.356	726.801
755.407	714.566
755.458	729.591
755.509	722.031
755.56	680.157
755.611	714.463
755.662	720.317
755.713	719.841
755.764	738.249
755.815	704.801
755.866	730.561
755.917	720.3
755.968	680.82
756.02	690.303
756.071	696.371
756.122	706.978
756.173	686.225
756.224	694.224
756.275	725.373
756.326	679.543
756.377	717.871
756.428	728.522
756.479	705.714
756.53	703.462
756.581	710.019
756.632	685.974
756.683	703.355
756.734	682.214
756.785	703.743
756.837	686.72
756.888	681.477
756.939	685.287
756.99	713.749
757.041	687.473
757.092	709.869
757.143	701.131
757.194	666.247
757.245	681.154
757.296	678.851
757.347	655.182
757.398	681.802
757.449	684.085
757.5	668.477
757.551	669.285
757.602	698.683
757.653	696.823
757.704	669.229
757.755	677.566
757.807	675.068
757.858	670.591
757.909	666.677
757.917	666
757.968	668.016
758.02	638.162
758.071	674.026
758.122	671.886
758.173	684.103
758.224	681.955
758.276	679.962
758.327	634.58
758.378	652.47
758.429	670.262
758.48	670.193
758.532	689.296
758.583	663.735
758.634	638.508
758.685	674.197
758.736	652.351
758.788	649.953
758.839	648.455
758.89	666.163
758.941	637.086
758.992	667.58
759.044	677.492
759.095	654.304
759.146	651.979
759.197	664.766
759.248	684.56
759.3	653.035
759.351	668.603
759.402	676.178
759.453	654.855
759.504	661.836
759.556	657.804
759.607	648.082
759.658	673.807
759.709	653.057
759.76	664.439
759.811	647.279
759.863	631.916
759.914	640.541
759.965	630.557
760.016	647.669
760.067	663.174
760.119	629.455
760.17	660.443
760.221	610.648
760.272	629.244
760.323	634.827
760.375	622.124
760.426	631.393
760.477	626.121
760.528	645.088
760.579	647.461
760.63	637.361
760.682	633.012
760.733	638.266
760.784	650.878
760.835	624.241
760.886	632.021
760.937	630.047
760.989	638.657
761.04	634.495
761.091	595.045
761.142	623.358
761.193	601.499
761.245	626.613
761.296	624.389
761.347	611.045
761.398	611.989
761.449	650.782
761.5	628.808
761.552	626.861
761.603	630.051
761.654	626.401
761.705	619.957
761.756	610.721
761.807	631.931
761.859	617.711
761.91	617.729
761.961	604.02
762.012	605.592
762.063	589.073
762.114	613.097
762.165	619.393
762.217	608.739
762.268	616.362
762.319	595.833
762.37	609.653
762.421	605.076
762.472	614.239
762.524	584.795
762.575	600.324
762.626	617.777
762.677	597.493
762.728	578.04
762.779	609.389
762.831	621.582
762.882	599.795
762.933	598.765
762.984	592.559
763.035	615.4
763.086	605.533
763.137	611.657
763.189	585.125
763.24	593.941
763.291	601.465
763.342	620.878
763.393	604.606
763.444	567.863
763.495	595.007
763.547	587.918
763.598	584.808
763.649	597.192
763.7	601.724
763.751	607.001
763.802	575.362
763.853	577.97
763.905	554.391
763.956	566.603
764.007	596.314
764.058	581.571
764.109	562.793
764.16	594.576
764.211	587.123
764.263	584.412
764.314	599.919
764.365	581.352
764.416	575.479
764.467	587.676
764.518	575.186
764.569	567.429
764.621	577.706
764.672	578.685
764.723	592.919
764.774	585.595
764.825	572.552
764.876	589.633
764.927	588.297
764.978	579.596
765.03	588.566
765.081	582.224
765.132	584.314
765.183	581.723
765.234	569.224
765.285	590.647
765.336	562.191
765.387	547.115
765.439	556.842
765.49	565.457
765.541	578.558
765.592	572.602
765.643	560.167
765.694	574.51
765.745	572.519
765.796	571.885
765.848	569.153
765.899	587.783
765.95	552.997
766.001	562.769
766.052	575.393
766.103	578.211
766.154	568.671
766.205	552.719
766.256	557.779
766.308	566.297
766.359	570.301
766.41	554.872
766.461	552.68
766.512	546.578
766.563	562.746
766.614	550.607
766.665	553.61
766.716	556.039
766.768	556.788
766.819	559.109
766.87	562.895
766.921	555.13
766.972	554.055
767.023	563.518
767.074	547.62
767.125	545.853
767.176	546.49
767.227	558.181
767.279	527.012
767.33	566.173
767.381	561.783
767.432	552.557
767.483	533.169
767.534	550.539
767.585	537.457
767.636	546.418
767.687	536.232
767.739	556.97
767.79	543.943
767.841	549.24
767.892	533.727
767.943	541.636
767.994	541.049
768.045	536.496
768.096	542.873
768.147	521.544
768.198	538.236
768.249	531.518
768.301	549.514
768.352	542.315
768.403	538.093
768.454	531.252
768.505	544.59
768.556	522.994
768.607	530.184
768.658	536.432
768.709	542.032
768.76	519.384
768.811	515.705
768.862	543.584
768.914	533.688
768.965	507.98
769.016	524.258
769.067	521.646
769.118	530.163
769.169	537.879
769.22	519.07
769.271	518.091
769.322	524.201
769.373	531.635
769.424	519
769.475	513.614
769.526	517.355
769.578	537.066
769.629	504.348
769.68	527.067
769.731	497.63
769.782	508.036
769.833	512.086
769.884	517.572
769.935	526.914
769.986	528.565
770.037	508.712
770.088	500.408
770.139	517.549
770.19	516.025
770.242	505.719
770.293	492.683
770.344	521.753
770.395	517.457
770.446	496.7
770.497	529.985
770.548	513.089
770.599	519.158
770.65	519.008
770.701	511.016
770.752	515.124
770.803	505.489
770.854	510.328
770.905	506.941
770.956	506.189
771.007	488.294
771.058	490.763
771.11	504.783
771.161	495.257
771.212	493.908
771.263	491.182
771.314	510.615
771.365	504.245
771.416	500.573
771.467	503.262
771.518	502.011
771.569	494.28
771.62	498.767
771.671	513.975
771.722	498.651
771.773	501.087
771.824	493.023
771.875	500.25
771.926	484.746
771.977	487.44
772.028	490.067
772.079	486.275
772.131	472.377
772.182	482.141
772.233	489.901
772.284	495.961
772.335	479.79
772.386	493.472
772.437	482.887
772.488	483.87
772.539	486.654
772.59	483.321
772.641	473.387
772.692	473.422
772.743	477.336
772.794	467.504
772.845	469.857
772.896	474.849
772.947	486.803
772.998	491.699
773.049	479.579
773.1	483.471
773.151	473.378
773.202	475.298
773.253	467.138
773.304	473.405
773.355	483.564
773.406	479.281
773.457	476.658
773.508	460.103
773.56	472.786
773.611	478.157
773.662	465.118
773.713	461.433
773.764	470.048
773.815	467.089
773.866	465.318
773.917	470.379
773.968	454.753
774.019	454.636
774.07	462.956
774.121	468.445
774.172	461.521
774.223	479.239
774.274	458.609
774.325	459.316
774.376	446.118
774.427	462.849
774.478	465.34
774.529	462.669
774.58	462.44
774.631	441.763
774.682	454.97
774.733	452.023
774.784	446.231
774.835	451.488
774.886	450.184
774.937	462.349
774.988	455.008
775.039	449.565
775.09	448.396
775.141	463.361
775.192	466.048
775.243	457.722
775.294	446.186
775.345	450.171
775.396	443.649
775.447	443.259
775.498	450.624
775.549	435.636
775.6	443.136
775.651	441.873
775.702	437.492
775.753	437.825
775.804	443.158
775.855	440.631
775.906	428.153
775.957	440.823
776.008	452.766
776.059	438.207
776.11	434.293
776.161	442.294
776.212	447.041
776.263	441.764
776.314	432.036
776.365	436.209
776.416	450.491
776.467	439.572
776.518	428.945
776.569	428.97
776.62	432.57
776.671	423.716
776.722	421.22
776.773	428.064
776.824	444.212
776.875	439.444
776.926	437.551
776.977	437.619
777.028	426.893
777.079	420.157
777.13	426.961
777.181	430.157
777.232	419.963
777.283	430.3
777.334	424.154
777.385	426.197
777.436	441.201
777.487	431.125
777.538	421.467
777.589	415.829
777.64	413.558
777.691	417.571
777.742	426.373
777.793	421.413
777.844	418.187
777.895	416.773
777.946	422.161
777.997	429.153
778.047	431.68
778.098	417.42
778.149	411.176
778.2	414.635
778.251	421.368
778.302	419.965
778.353	412.886
778.404	413.752
778.455	410.075
778.506	406.884
778.557	409.28
778.608	409.061
778.659	418.071
778.71	412.581
778.761	404.873
778.812	409.617
778.863	402.402
778.914	411.931
778.965	418.047
779.016	406.013
779.067	403.126
779.118	408.368
779.169	398.527
779.22	391.533
779.271	401.674
779.322	407.809
779.373	414.847
779.424	406.232
779.474	400.791
779.525	408.546
779.576	405.987
779.627	404.627
779.678	400.203
779.729	408.555
779.78	404.119
779.831	406.245
779.882	395.898
779.933	397.601
779.984	386.464
780.035	391.975
780.086	387.747
780.137	396.213
780.188	401.306
780.239	402.705
780.29	407.457
780.341	420.373
780.392	415.277
780.442	404.188
780.493	385.449
780.544	389.806
780.595	393.227
780.646	390.512
780.697	387.116
780.748	395.382
780.799	393.224
780.85	388.302
780.901	382.413
780.952	398.042
781.003	394.387
781.054	392.276
781.105	383.016
781.156	401.199
781.207	388.637
781.257	372.606
781.308	382.703
781.359	387.463
781.41	382.731
781.461	383.008
781.512	382.19
781.563	376.592
781.614	381.471
781.665	381.026
781.716	386.402
781.767	391.025
781.818	389.495
781.869	384.956
781.919	380.613
781.97	391.891
782.021	372.02
782.072	370.918
782.123	382.66
782.174	379.707
782.225	378.11
782.276	372.135
782.327	371.169
782.378	376.18
782.429	372.186
782.48	378.017
782.531	376.649
782.581	375.345
782.632	389.185
782.683	380.044
782.734	371.311
782.785	373.808
782.836	378.592
782.887	368.335
782.938	360.613
782.989	372.711
783.04	374.115
783.091	388.486
783.141	371.054
783.192	365.244
783.243	351.419
783.294	366.305
783.345	357.017
783.396	361.729
783.447	348.16
783.498	367.136
783.549	380.556
783.6	364.914
783.651	376.538
783.701	377.548
783.752	368.261
783.803	361.346
783.854	367.824
783.905	366.917
783.956	361.707
784.007	361.68
784.058	367.617
784.1	356
784.151	348.002
784.202	369.97
784.253	360.021
784.304	346.028
784.355	361.967
784.406	351.982
784.458	387.533
784.509	367.756
784.56	365.978
784.611	373.505
784.662	367.52
784.713	353.858
784.764	342.166
784.815	344.512
784.866	363.903
784.917	365.966
784.968	344.7
785.019	349.725
785.07	352.032
785.121	355.691
785.172	352.192
785.223	364.836
785.274	344.395
785.326	340.287
785.377	344.145
785.428	334.347
785.479	336.634
785.53	336.618
785.581	348.898
785.632	346.078
785.683	345.673
785.734	358.053
785.785	343.403
785.836	335.483
785.887	340.27
785.938	351.342
785.989	333.714
786.04	340.644
786.091	347.032
786.142	337.148
786.193	369.318
786.244	336.424
786.295	352.161
786.346	337.149
786.397	339.026
786.448	349.191
786.5	341.205
786.551	331.127
786.602	333.041
786.653	338.769
786.704	324.653
786.755	315.411
786.806	344.218
786.857	331.109
786.908	343.982
786.959	341.309
787.01	335.662
787.061	341.474
787.112	339.926
787.163	334.4
787.214	328.468
787.265	331.754
787.316	333.233
787.367	319.3
787.418	342.961
787.469	323.487
787.52	347.827
787.571	324.163
787.622	327.998
787.673	309.904
787.724	330.345
787.775	327.716
787.826	333.146
787.877	300.894
787.928	319.15
787.979	323.424
788.03	332.491
788.081	331.001
788.132	322.763
788.183	317.386
788.234	321.202
788.285	322.669
788.336	318.732
788.387	320.473
788.438	331.697
788.49	321.166
788.541	324.827
788.591	336.988
788.643	316.369
788.694	328.324
788.745	323.21
788.796	297.348
788.847	313.122
788.898	309.928
788.949	310.392
789	311.835
789.051	317.707
789.102	311.707
789.153	312.207
789.204	322.302
789.255	305.091
789.306	319.723
789.357	307.086
789.408	304.049
789.459	307.013
789.51	317.669
789.561	292.295
789.612	316.301
789.663	301.919
789.714	311.279
789.765	315.554
789.816	315.766
789.867	315.013
789.918	300.328
789.969	320.202
790.02	315.606
790.071	301.567
790.122	307.294
790.173	307.407
790.224	303.945
790.275	304.876
790.326	317.147
790.377	308.074
790.428	297.846
790.479	291.312
790.53	307.243
790.581	298.08
790.632	302.907
790.682	284.835
790.734	297.403
790.784	299.507
790.836	297.587
790.886	294.977
790.937	294.051
790.988	300.447
791.039	311.416
791.09	299.561
791.141	295.462
791.192	296.331
791.243	309.333
791.294	298.261
791.345	288.32
791.396	306.982
791.447	300.994
791.498	296.662
791.549	287.708
791.6	294.773
791.651	290.887
791.702	297.161
791.753	287.491
791.804	279.71
791.855	295.283
791.906	300.768
791.957	296.966
792.008	287.081
792.059	293.239
792.11	300.921
792.161	286.776
792.212	287.243
792.263	288.931
792.314	276.443
792.365	298.71
792.416	283.252
792.467	290.029
792.518	285.839
792.569	281
792.62	286.005
792.671	283.169
792.722	294.311
792.773	286.473
792.823	292.282
792.874	288.119
792.925	292.65
792.976	283.28
793.027	269.033
793.078	279.374
793.129	280.422
793.18	277.35
793.231	276.772
793.282	268.954
793.333	279.859
793.384	281.607
793.435	285.301
793.486	282.346
793.537	267.458
793.588	289.89
793.639	278.433
793.69	285.507
793.741	290.478
793.792	280.724
793.843	291.784
793.894	274.87
793.945	273.352
793.995	277.427
794.046	264.175
794.097	282.134
794.148	277.839
794.199	274.809
794.25	265.805
794.301	263.212
794.352	277.449
794.403	254.691
794.454	268.08
794.505	266.647
794.556	275.712
794.607	272.197
794.658	276.516
794.709	267.749
794.76	270.814
794.811	269.211
794.862	274.617
794.912	268.354
794.963	270.337
795.014	263.833
795.065	264.377
795.116	262.843
795.167	267.072
795.218	263.213
795.269	265.468
795.32	263.482
795.371	271.082
795.422	272.64
795.473	263.376
795.524	256.361
795.575	273.317
795.625	262.676
795.676	266.422
795.727	260.924
795.778	258.621
795.829	256.353
795.88	262.354
795.931	261.843
795.982	260.64
796.033	257.846
796.084	266.673
796.135	259.623
796.186	260.057
796.237	263.273
796.287	261.726
796.338	245.677
796.389	242.866
796.44	247.538
796.491	248.374
796.542	264.077
796.593	268.687
796.644	259.512
796.695	257.366
796.746	259.645
796.797	257.783
796.848	256.825
796.898	259.287
796.949	251.712
797	253.535
797.051	254.841
797.102	244.973
797.153	248.232
797.204	260.807
797.255	249.07
797.306	252.915
797.357	257.813
797.408	256.91
797.458	250.965
797.509	249.438
797.56	242.447
797.611	241.9
797.662	256.807
797.713	256.554
797.764	249.654
797.815	243.886
797.866	242.16
797.917	249.77
797.968	241.942
798.018	246
798.069	248.177
798.12	244.43
798.171	238.834
798.222	244.346
798.273	240.569
798.324	248.122
798.375	237.838
798.426	244.701
798.477	250.083
798.527	249.158
798.578	241.329
798.629	247.022
798.68	244.405
798.731	240.577
798.782	242.493
798.833	234.641
798.884	238.294
798.935	242.444
798.985	239.26
799.036	238.401
799.087	234.388
799.138	246.542
799.189	242.198
799.24	240.534
799.291	235.485
799.342	240.442
799.393	229.007
799.443	221.722
799.494	238.378
799.545	234.099
799.596	231.491
799.647	236.82
799.698	232.783
799.749	234.765
799.8	237.5
799.85	239.104
799.901	246.111
799.952	225.718
800.003	230.883
800.054	232.928
800.105	229.063
800.156	234.145
800.207	235.962
800.257	230.387
800.308	231.177
800.359	232.886
800.41	232.918
800.461	233.314
800.512	237.863
800.563	228.897
800.613	223.112
800.664	241.938
800.715	237.816
800.766	232.047
800.817	239.692
800.868	233.305
800.919	229.767
800.97	217.045
801.02	224.51
801.071	224.681
801.122	227.623
801.173	223.251
801.224	241.395
801.275	234.05
801.326	236.531
801.376	222.155
801.427	229.257
801.478	223.999
801.529	228.466
801.58	221.01
801.631	224.189
801.682	214.77
801.732	223.694
801.783	223.863
801.834	220.475
801.885	218.25
801.936	219.198
801.987	224.38
802.038	218.98
802.088	211.672
802.139	218.958
802.19	226.309
802.241	225.354
802.292	222.503
802.343	217.009
802.393	217.213
802.444	218.155
802.495	220.824
802.546	220.149
802.597	223.738
802.648	213.423
802.698	211.753
802.749	211.306
802.8	220
802.851	221.685
802.902	217.85
802.953	213.913
803.004	219.698
803.054	219.617
803.105	225.546
803.156	223.447
803.207	213.329
803.258	217.582
803.309	217.083
803.359	210.503
803.41	202.547
803.461	220.387
803.512	224.132
803.563	216.795
803.614	202.197
803.664	204.658
803.715	217.074
803.766	209.187
803.817	210.19
803.868	206.493
803.919	206.55
803.969	209.902
804.02	204.276
804.071	200.934
804.122	217.848
804.173	200.345
804.223	208.675
804.274	213.356
804.325	213.023
804.376	218.528
804.427	209.632
804.478	215.446
804.528	203.389
804.579	213.887
804.63	222.286
804.681	209.698
804.732	222.089
804.782	203.8
804.833	198.447
804.884	212.553
804.935	208.149
804.986	216.215
805.036	209.375
805.087	214.301
805.138	212.072
805.189	197.252
805.24	204.566
805.291	194.065
805.341	210.758
805.392	202.577
805.443	203.473
805.494	208.302
805.545	205.477
805.595	205.799
805.646	197.146
805.697	205.345
805.748	213.922
805.799	199.215
805.849	186.768
805.9	192.483
805.951	203.877
806.002	201.333
806.053	199.563
806.103	202.307
806.154	210.876
806.205	197.215
806.256	200.277
806.307	193.159
806.357	189.061
806.408	194.86
806.459	202.719
806.51	205.913
806.561	202.214
806.611	211.02
806.662	194.709
806.713	193.771
806.764	201.782
806.815	201.18
806.865	195.498
806.916	198.984
806.967	198.777
807.018	199.037
807.068	193.02
807.119	197.905
807.17	186.062
807.221	187.507
807.272	191.104
807.322	188.002
807.373	200.762
807.424	196.231
807.475	183.39
807.526	205.409
807.576	197.191
807.627	193.419
807.678	198.376
807.729	193.837
807.779	200.708
807.83	195.327
807.881	193.445
807.932	195.101
807.982	182.982
808.033	189.572
808.084	196.233
808.135	198.968
808.186	192.718
808.236	183.569
808.287	186.692
808.338	198.09
808.389	190.651
808.439	191.712
808.49	202.321
808.541	178.077
808.592	183.458
808.643	193.828
808.693	181.382
808.744	177.184
808.795	184.854
808.846	193.834
808.896	199.281
808.947	190.609
808.998	182.637
809.049	181.051
809.099	185.79
809.15	192.543
809.201	180.41
809.252	185.05
809.302	187.557
809.353	184.105
809.404	197.825
809.455	187.02
809.505	185.441
809.556	184.228
809.607	178.094
809.658	177.437
809.708	176.978
809.759	181.353
809.81	186.832
809.861	177.515
809.911	182.473
809.962	184.099
810.013	180.774
810.064	185.217
810.114	173.831
810.133	166
810.183	192
810.234	183.984
810.285	177.984
810.336	181.946
810.387	187.834
810.438	179.978
810.489	172.141
810.54	179.959
810.591	187.795
810.642	179.875
810.693	179.936
810.743	172.217
810.794	193.605
810.845	171.865
810.896	182
810.947	172.284
810.998	187.848
811.049	180.177
811.1	187.881
811.151	166.332
811.202	162.27
811.253	191.33
811.303	178.429
811.354	193.337
811.405	174.598
811.456	179.747
811.507	187.574
811.558	170.726
811.609	177.557
811.66	177.456
811.711	168.523
811.762	182.049
811.813	170.344
811.863	183.769
811.914	174.11
811.965	164.447
812.016	172.435
812.067	158.735
812.118	185.141
812.169	166.337
812.22	158.304
812.271	178.951
812.321	188.485
812.372	181.725
812.423	172.624
812.474	168.871
812.525	166.833
812.576	175.938
812.627	174.064
812.678	167.95
812.729	158.833
812.779	175.72
812.83	184.733
812.881	171.737
812.932	167.466
812.983	164.386
813.034	171.725
813.085	175.115
813.136	171.691
813.187	174.884
813.237	160.177
813.288	164.405
813.339	159.092
813.39	163.144
813.441	176.993
813.492	157.416
813.543	171.332
813.594	165.374
813.644	155.476
813.695	174.876
813.746	160.816
813.797	174.783
813.848	174.059
813.899	165.861
813.95	168.12
814.001	168.506
814.051	163.093
814.102	168.887
814.153	163.393
814.204	161.395
814.255	171.5
814.306	158.896
814.357	163.362
814.408	161.677
814.458	163.166
814.509	157.818
814.56	174.304
814.611	155.171
814.662	161.914
814.713	169.042
814.764	150.513
814.814	157.882
814.865	152.149
814.916	169.999
814.967	160.289
815.018	160.777
815.069	161.717
815.12	164.915
815.17	164.392
815.221	176.072
815.272	160.768
815.323	166.03
815.374	156.997
815.425	165.4
815.476	156.208
815.526	164.331
815.577	158.322
815.628	171.478
815.679	148.781
815.73	155.968
815.781	159.385
815.832	162.864
815.882	162.764
815.933	146.702
815.984	154.401
816.035	153.872
816.086	172.351
816.137	159.017
816.188	158.119
816.238	156.585
816.289	146.515
816.34	153.625
816.391	155.637
816.442	161.156
816.493	152.483
816.543	142.14
816.594	151.901
816.645	157.737
816.696	158.004
816.747	153.497
816.798	150.507
816.848	147.532
816.899	156.037
816.95	165.803
817.001	157.05
817.052	153.047
817.103	146.104
817.153	156.152
817.204	154.701
817.255	160.801
817.306	145.205
817.357	155.601
817.408	154.38
817.458	163.901
817.509	152.061
817.56	147.86
817.611	151.856
817.662	163.986
817.713	146.04
817.763	142.378
817.814	159.431
817.865	145.811
817.916	149.324
817.967	144.144
818.018	157.782
818.068	150.023
818.119	142.469
818.17	151.434
818.221	142.788
818.272	145.923
818.323	138.077
818.373	150.95
818.424	151.5
818.475	154.233
818.526	145.847
818.577	142.855
818.627	145.74
818.678	141.592
818.729	148.016
818.78	137.902
818.831	138.306
818.881	154.26
818.932	158.788
818.983	138.99
819.034	149.715
819.085	141.014
819.135	147.911
819.186	142.92
819.237	152.744
819.288	139.397
819.339	143.488
819.39	133.652
819.44	141.61
819.491	141.981
819.542	151.031
819.593	144.853
819.644	143.661
819.694	143.993
819.745	149.415
819.796	150.104
819.847	148.07
819.898	145.443
819.948	143.974
819.999	145.205
820.05	139.787
820.101	142.111
820.152	142.765
820.202	143.831
820.253	136.924
820.304	142.781
820.355	139.846
820.406	143.352
820.456	145.452
820.507	135.377
820.558	148.973
820.609	145.115
820.66	147.407
820.71	128.579
820.761	143.225
820.812	150.151
820.863	147.489
820.914	133.381
820.964	145.172
821.015	143.713
821.066	143.951
821.117	137.06
821.167	142.412
821.218	137.728
821.269	150.289
821.32	141.199
821.371	141.034
821.421	129.218
821.472	133.054
821.523	142.246
821.574	144.111
821.624	144.032
821.675	144.064
821.726	145.768
821.777	135.664
821.828	134.2
821.878	141.941
821.929	140.995
821.98	131.046
822.031	143.212
822.081	136.667
822.132	130.054
822.183	131.672
822.234	148.346
822.285	128.789
822.335	134.564
822.386	135.709
822.437	136.264
822.488	134.867
822.538	138.873
822.589	132.747
822.64	131.914
822.691	143.352
822.741	136.202
822.792	140.063
822.843	134.977
822.894	140.909
822.945	133.961
822.995	139.855
823.046	131.326
823.097	133.727
823.148	136.152
823.198	138.079
823.249	137.049
823.3	131.658
823.351	126.149
823.401	132.988
823.452	133.79
823.503	124.968
823.554	131.847
823.604	128.867
823.655	139.023
823.706	136.043
823.757	132.846
823.807	129.657
823.858	142.305
823.909	128.038
823.96	135.64
824.01	127.784
824.061	132.063
824.112	123.406
824.163	128.926
824.213	133.398
824.264	136.37
824.315	129.368
824.366	126.286
824.416	126.794
824.467	125.344
824.518	130.048
824.569	136.276
824.619	131.715
824.67	129.172
824.721	128.295
824.772	120.679
824.822	129.94
824.873	128.282
824.924	129.772
824.974	131.057
825.025	129.423
825.076	137.334
825.127	128.273
825.177	123.343
825.228	127.588
825.279	130.634
825.33	122.037
825.38	129.934
825.431	123.309
825.482	135.758
825.533	120.402
825.583	127.136
825.634	126.354
825.685	133.793
825.735	105.738
825.786	125.297
825.837	123.908
825.888	129.433
825.938	126.946
825.989	121.27
826.04	131.815
826.091	128.626
826.141	126.461
826.192	129.587
826.243	126.756
826.293	125.8
826.344	119.61
826.395	121.999
826.446	135.286
826.496	132.48
826.547	127.189
826.598	119.787
826.648	127.956
826.699	129.81
826.75	121.384
826.801	122.808
826.851	138.8
826.902	120.311
826.953	118.251
827.003	122.195
827.054	120.26
827.105	121.421
827.156	125.006
827.206	116.752
827.257	122.467
827.308	122.062
827.358	117.112
827.409	113.401
827.46	123.248
827.511	119.331
827.561	118.862
827.612	121.52
827.663	124.356
827.713	119.502
827.764	122.661
827.815	123.947
827.865	128.241
827.916	124.347
827.967	124.059
828.018	121.436
828.068	129.039
828.119	118.226
828.17	124.74
828.22	124.381
828.271	118.949
828.322	115.368
828.372	125.809
828.423	122.019
828.474	127.738
828.525	127.36
828.575	122.245
828.626	118.049
828.677	121.657
828.727	120.192
828.778	121.835
828.829	118.303
828.879	121.122
828.93	119.905
828.981	124.293
829.031	115.608
829.082	110.132
829.133	114.977
829.183	116.168
829.234	112
829.285	125.893
829.336	124.375
829.386	120.42
829.437	114.536
829.488	114.515
829.538	115.909
829.589	118
829.64	120.515
829.69	113.211
829.741	114.275
829.792	115.134
829.842	113.061
829.893	114.388
829.944	114.91
829.994	117.98
830.045	110.23
830.096	115.48
830.146	111.362
830.197	107.842
830.248	113.373
830.298	114.462
830.349	111.937
830.4	112.486
830.45	115.508
830.501	122.308
830.552	121.534
830.602	113.347
830.653	112
830.704	113.832
830.754	117.166
830.805	122.833
830.856	119.721
830.906	113.284
830.957	114.875
831.008	113.782
831.058	111.967
831.109	108.962
831.16	111.285
831.21	115.039
831.261	111.722
831.312	112.879
831.362	109.973
831.413	111.495
831.464	117.401
831.514	116.519
831.565	118.683
831.616	114.817
831.666	113.033
831.717	109.517
831.767	114.279
831.818	113.086
831.869	114.357
831.919	119.399
831.97	115.255
832.021	110.549
832.071	109.885
832.122	115.28
832.173	118.793
832.223	115.815
832.274	120.378
832.325	116.469
832.375	105.61
832.426	110.025
832.477	109.112
832.527	99.9877
832.578	104.5
832.628	112.762
832.679	112.039
832.73	107.761
832.78	104.283
832.831	112.674
832.882	118.233
832.932	112.665
832.983	111.291
833.034	111.507
833.084	106.71
833.135	106.727
833.185	107.165
833.236	104.533
833.287	108.765
833.337	108.052
833.388	105.002
833.439	108.896
833.489	109.343
833.54	112.042
833.59	106.715
833.641	107.138
833.692	114.966
833.742	108.497
833.793	106.91
833.844	106.178
833.894	106.763
833.945	109.489
833.995	106.826
834.046	103.772
834.097	110.583
834.147	110.928
834.198	111.105
834.249	109.854
834.299	112.295
834.35	108.92
834.4	110.083
834.451	102.99
834.502	102.007
834.552	107.444
834.603	106.377
834.653	118.603
834.704	121.6
834.755	111.911
834.805	112.689
834.856	110.497
834.906	112.436
834.957	107.838
835.008	102.584
835.058	99.6592
835.109	105.959
835.16	108.682
835.21	103.71
835.261	104.479
835.311	104.304
835.362	105.198
835.413	103.886
835.463	109.362
835.514	108
835.564	106.462
835.615	100.154
835.666	96.7599
835.716	102.584
835.767	99.8986
835.817	106.541
835.868	107.113
835.919	103.147
835.969	102.996
836.02	111.86
836.07	107.291
836.121	117.162
836.161	106
836.212	118
836.263	105.998
836.314	108.003
836.365	100.033
836.415	107.953
836.466	92.0991
836.517	117.849
836.568	107.887
836.618	105.859
836.669	92.2536
836.72	101.91
836.771	102
836.821	103.893
836.872	109.745
836.923	107.83
836.974	105.842
837.024	103.926
837.075	104.087
837.126	111.597
837.177	101.968
837.227	101.47
837.278	96.0127
837.329	109.45
837.38	99.9584
837.43	97.8822
837.481	100.076
837.532	109.625
837.583	103.74
837.633	99.8117
837.684	86.9744
837.735	105.828
837.786	95.7389
837.836	107.494
837.887	103.345
837.938	94.6023
837.989	94.5508
838.039	101.053
838.09	101.541
838.141	103.283
838.192	101.896
838.242	102.265
838.293	101.753
838.344	100.597
838.395	96.154
838.445	103.578
838.496	102.972
838.547	106.841
838.598	101.13
838.648	98.9418
838.699	105.076
838.75	103.346
838.801	99.7398
838.851	114.049
838.902	104.833
838.953	103.518
839.003	99.7831
839.054	90.9423
839.105	103.558
839.156	96.1513
839.206	103.084
839.257	96.4596
839.308	102.988
839.359	101.58
839.409	99.9275
839.46	96.7295
839.511	100.18
839.562	95.0974
839.612	98.8614
839.663	97.3237
839.714	92.2964
839.764	92.1709
839.815	94
839.866	87.816
839.917	94.7835
839.967	92.2705
840.018	102.832
840.069	89.4927
840.119	99.2082
840.17	97.7032
840.221	102.092
840.272	92.1849
840.322	94.4424
840.373	92.0705
840.424	94.0789
840.474	107.016
840.525	100
840.576	103.915
840.627	105.115
840.677	96.4965
840.728	95.4057
840.779	97.4512
840.829	91.6339
840.88	100.522
840.931	95.8848
840.982	93.0978
841.032	101.661
841.083	93.1442
841.134	98.2308
841.184	98.2651
841.235	89.5812
841.286	90.6905
841.337	92.1778
841.387	96.5551
841.438	89.286
841.489	100.765
841.539	106.149
841.59	91.0048
841.641	94.0855
841.691	94.7923
841.742	98.2182
841.793	93.2775
841.844	89.0726
841.894	94.2274
841.945	100.22
841.996	99.7803
842.046	95.3334
842.097	90.445
842.148	103.06
842.198	94.747
842.249	91.2968
842.3	95.4554
842.351	96.227
842.401	86.8231
842.452	87.0129
842.503	92.9718
842.553	97.2518
842.604	94.7182
842.655	98.8237
842.705	99.8273
842.756	93.7413
842.807	90.4083
842.857	88.8995
842.908	84.7433
842.959	94.7197
843.009	89.8454
843.06	86.9176
843.111	96.1573
843.161	94.6869
843.212	86.1526
843.263	93.3744
843.314	95.5815
843.364	96.369
843.415	91.5579
843.466	81.8299
843.516	87.4557
843.567	88.7944
843.618	88.6817
843.668	90.8532
843.719	90.1593
843.77	84.5098
843.82	89.7224
843.871	91.1114
843.922	92.3652
843.972	92.4543
844.023	93.0155
844.074	91.0521
844.124	95.8629
844.175	93.4508
844.226	96.4233
844.276	90.8982
844.327	94.0783
844.378	88.894
844.428	104.008
844.479	83.1147
844.53	100.16
844.58	88.844
844.631	93.657
844.682	79.5406
844.732	92.2196
844.783	94.6563
844.834	90.6711
844.884	84.189
844.935	96.0678
844.986	84.8624
845.036	92.2147
845.087	92.683
845.138	89.6347
845.188	83.7017
845.239	84.1271
845.29	84.3539
845.34	94.8043
845.391	88.6172
845.442	91.3776
845.492	88.1123
845.543	95.4872
845.594	90.4793
845.644	91.1902
845.695	86.4793
845.745	91.6009
845.796	83.0903
845.847	92.2126
845.897	88.6267
845.948	89.9782
845.999	88.6261
846.049	87.9854
846.1	83.3434
846.151	92.1051
846.201	82.1674
846.252	89.681
846.303	89.5611
846.353	95.1919
846.404	87.4941
846.455	80.5393
846.505	84.3053
846.556	85.3544
846.606	86.3973
846.657	87.9155
846.708	85.0752
846.758	91.8603
846.809	84.3317
846.86	85.6256
846.91	88.8513
846.961	87.6395
847.012	86.8443
847.062	83.8385
847.113	85.7982
847.163	88.4702
847.214	86.5378
847.265	87.9066
847.315	88.0126
847.366	87.6038
847.417	95.7053
847.467	89.1331
847.518	88
847.568	86.3112
847.619	83.6407
847.67	85.2543
847.72	88.8035
847.771	78.7962
847.822	95.2682
847.872	85.0256
847.923	85.8043
847.973	87.0291
848.024	84.7901
848.075	74.3023
848.125	87.4782
848.176	82.4945
848.227	88.7781
848.277	80.6828
848.328	84.6938
848.378	87.5809
848.429	89.1443
848.48	84.9452
848.53	79.9825
848.581	90.4834
848.631	87.9857
848.682	77.3948
848.733	90.2113
848.783	80.9887
848.834	84.7341
848.885	83.2993
848.935	86.0743
848.986	88.9435
849.036	89.7714
849.087	78.3279
849.138	90.0701
849.188	83.8231
849.239	87.6948
849.289	74.0545
849.34	79.118
849.391	82.9843
849.441	81.7733
849.492	76.157
849.542	80.1862
849.593	88.8608
849.644	79.1704
849.694	85.9713
849.745	85.9139
849.795	83.0243
849.846	83.8224
849.897	77.857
849.947	83.9745
849.998	78.1431
850.048	83.9936
850.099	79.2139
850.15	86.7756
850.2	77.2426
850.251	75.859
850.301	83.9477
850.352	86.8956
850.403	80.2273
850.453	73.7434
850.504	79.1594
850.554	77.7301
850.605	82.9762
850.656	83.4952
850.706	85.8484
850.757	85.2749
850.807	83.6262
850.858	79.9999
850.908	81.2317
850.959	83.3508
851.01	81.4704
851.06	81.6092
851.111	81.1333
851.161	78.3053
851.212	84.3089
851.263	74.8231
851.313	77.1902
851.364	81.2018
851.414	76.9763
851.465	76.2696
851.515	78.4053
851.566	84.4916
851.617	81.8264
851.667	81.1567
851.718	81.0673
851.768	73.5988
851.819	75.7219
851.869	80.1614
851.92	78.4149
851.971	80.4311
852.021	90.4348
852.072	83.8381
852.122	72.3063
852.173	81.6546
852.223	81.3998
852.274	76.6712
852.325	82.4468
852.375	79.5597
852.426	83.499
852.476	73.2636
852.527	77.6154
852.577	77.2622
852.628	80.5312
852.678	75.7502
852.729	72.3349
852.78	75.7832
852.83	85.5724
852.881	75.1052
852.931	80.379
852.982	82.2223
853.032	84.0235
853.083	73.8321
853.133	74.7185
853.184	74.8428
853.235	84.2048
853.285	74.4489
853.336	75.1988
853.386	76.449
853.437	77.7759
853.487	77.3307
853.538	80
853.588	77.6389
853.639	78.4985
853.69	74.2462
853.74	79.4483
853.791	75.0281
853.841	74.0802
853.892	72.2667
853.942	74.3593
853.993	76.8038
854.043	78.3477
854.094	73.2756
854.144	77.1846
854.195	72.4794
854.246	70.5659
854.296	69.8141
854.347	74.4779
854.397	81.2596
854.448	76.3854
854.498	72.7956
854.549	76.8979
854.599	74.7653
854.65	77.6374
854.7	71.3579
854.751	74.2995
854.801	77.8701
854.852	77.6271
854.902	74.5922
854.953	70.6426
855.004	68.5853
855.054	68.5051
855.105	74.614
855.155	77.0466
855.206	81.0358
855.256	76.3281
855.307	69.7222
855.357	75.3708
855.408	80.1066
855.458	71.9978
855.509	73.4247
855.559	73.9726
855.61	68.2474
855.66	73.2176
855.711	77.0213
855.761	72.4991
855.812	76
855.862	75.5325
855.913	71.638
855.964	78.405
856.014	82.2288
856.065	76.5937
856.115	75.0724
856.166	71.7993
856.216	68.8741
856.267	68.6685
856.317	73.6993
856.368	73.8444
856.418	79.643
856.469	80.2109
856.519	75.4788
856.57	71.9476
856.62	74.4204
856.671	72.8056
856.721	75.1416
856.772	81.2451
856.822	80.6508
856.873	69.7735
856.923	66.7615
856.974	75.9596
857.024	77.9504
857.075	71.3661
857.125	73.1476
857.176	72.8788
857.226	74.0885
857.277	72.6507
857.327	69.3204
857.378	70.4097
857.428	71.8394
857.479	73.3179
857.529	71.9569
857.58	73.7919
857.63	72.9913
857.681	69.5217
857.731	70
857.782	71.0039
857.832	72.4768
857.883	72.885
857.933	70.3229
857.984	68.5499
858.034	70.6098
858.085	71.3489
858.135	69.019
858.186	71.5061
858.236	67.5159
858.287	67.0861
858.337	67.7084
858.388	67.137
858.438	67.9262
858.489	68.1741
858.539	75.6171
858.589	78.6955
858.64	74.1786
858.69	73.915
858.741	71.2447
858.791	73.4873
858.842	75.7389
858.892	75.2943
858.943	71.7124
858.993	79.4051
859.044	78.3035
859.094	70.4658
859.145	69.5421
859.195	73.2986
859.246	76.0098
859.296	71.5629
859.347	67.9765
859.397	73.2878
859.448	69.8678
859.498	70.8365
859.549	71.5852
859.599	76.8472
859.649	69.6134
859.7	68.1792
859.75	71.8626
859.801	75.9426
859.851	76.3538
859.902	71.2176
859.952	67.6673
860.003	71.3479
860.053	73.0041
860.104	67.5321
860.154	71.4106
860.205	75.9248
860.255	64.9038
860.305	69.8652
860.356	68.7239
860.406	76.7515
860.457	76.3816
860.507	71.5624
860.558	68.1409
860.608	77.7062
860.659	73.212
860.709	69.7565
860.76	66.7678
860.81	73.7006
860.861	72.7195
860.911	70.184
860.961	71.0655
861.012	74
861.062	71.2343
861.113	66.5253
861.163	73.3104
861.214	77.4265
861.264	74.2498
861.315	70.675
861.365	71.1743
861.415	68.6083
861.466	68.3714
861.516	78.8242
861.567	69.0326
861.617	66.7269
861.668	67.1956
861.718	60.7813
861.769	70.4891
861.819	75.3481
861.869	83.9272
861.92	71.2716
861.97	73.4539
862.021	64.8296
862.071	68.4001
862.112	69.998
862.162	79.9612
862.213	70.0112
862.263	75.9315
862.314	71.9386
862.365	69.9252
862.415	67.9928
862.466	77.8042
862.516	64.0353
862.567	66.0062
862.618	67.943
862.668	73.8749
862.719	62.0776
862.77	75.6946
862.82	77.8626
862.871	71.9308
862.921	60.2425
862.972	67.7878
863.023	66.0186
863.073	69.8869
863.124	66.025
863.174	77.3754
863.225	75.1603
863.276	60.1818
863.326	66.1369
863.377	71.4649
863.427	62.1535
863.478	62.0577
863.529	63.6172
863.579	69.7541
863.63	71.9348
863.68	83.0062
863.731	62.3222
863.782	66.06
863.832	73.462
863.883	62.2768
863.933	69.8668
863.984	79.0371
864.034	73.2495
864.085	65.6852
864.136	67.2045
864.186	63.6869
864.237	65.664
864.287	66.0116
864.338	72.088
864.389	75.0176
864.439	69.3678
864.49	67.7228
864.54	60.657
864.591	64.68
864.642	71.8955
864.692	64.7103
864.743	73.2867
864.793	73.1657
864.844	62.4249
864.894	69.2587
864.945	69.2112
864.996	71.2223
865.046	65.8784
865.097	71.7346
865.147	66.5098
865.198	67.212
865.248	61.3796
865.299	63.4807
865.35	65.4971
865.4	72.2404
865.451	61.4815
865.501	60.4304
865.552	69.3001
865.603	60.3176
865.653	63.8393
865.704	58.3176
865.754	67.3582
865.805	61.4721
865.855	59.4191
865.906	68.5506
865.956	66
866.007	69.5197
866.058	72.9574
866.108	62.6199
866.159	62.1246
866.209	70.2821
866.26	65.4922
866.31	63.7873
866.361	70.9023
866.412	70.1801
866.462	67.5337
866.513	60.0357
866.563	64.4486
866.614	66.9532
866.664	64.902
866.715	63.6205
866.766	58.359
866.816	67.6657
866.867	64.4461
866.917	62.556
866.968	66.5763
867.018	66.2142
867.069	54.7819
867.119	62.2664
867.17	62.1165
867.22	69.3676
867.271	66.668
867.322	61.3242
867.372	67.0513
867.423	66.6324
867.473	71.4943
867.524	66
867.574	65.5999
867.625	66.1903
867.675	69.9456
867.726	64.4347
867.776	70.0184
867.827	67.3019
867.878	65.2399
867.928	56.5162
867.979	67.3387
868.029	56.8533
868.08	62.5933
868.13	60.7417
868.181	69.5104
868.231	65.1243
868.282	60.1704
868.332	58.981
868.383	60.4538
868.433	64.9354
868.484	63.9394
868.535	60.1014
868.585	63.8811
868.636	70.7363
868.686	64.1263
868.737	61.1604
868.787	62.9669
868.838	65.7935
868.888	59.5995
868.939	62.5735
868.989	67.6978
869.04	67.4915
869.09	59.6452
869.141	67.6403
869.191	68.0476
869.242	55.625
869.292	59.4625
869.343	63.5619
869.394	62.8959
869.444	69.0489
869.495	58.4571
869.545	52.8614
869.596	63.402
869.646	66.3623
869.697	59.978
869.747	66.5906
869.798	67.6777
869.848	61.8941
869.899	61.0842
869.949	62.4663
870	58.7797
870.05	58.4682
870.101	57.2096
870.151	58.7563
870.202	61.3026
870.252	59.2372
870.303	63.9103
870.353	64.2684
870.404	62.4407
870.454	60.13
870.505	52.3009
870.555	65.2596
870.606	59.4848
870.656	56.1194
870.707	52.0709
870.757	71.1139
870.808	61.0915
870.858	64.5698
870.909	53.6278
870.959	63.2942
871.01	65.1676
871.06	61.1663
871.111	56.3438
871.161	61.833
871.212	63.1852
871.262	63.2327
871.313	58.6498
871.363	63.1384
871.414	63.1228
871.464	55.4464
871.515	52.6946
871.565	59.1895
871.616	63.2651
871.666	65.7836
871.717	55.7135
871.767	58.2398
871.818	65.7069
871.868	61.1674
871.919	59.9079
871.969	66
872.02	57.2657
872.07	64.9201
872.121	60
872.171	61.2222
872.222	58.8269
872.272	56.6926
872.323	64.4211
872.373	59.603
872.424	62.7569
872.474	58.0319
872.525	56.7994
872.575	57.1959
872.626	60.3664
872.676	55.1872
872.727	61.9921
872.777	61.2903
872.828	54.8634
872.878	63.1376
872.929	62.142
872.979	61.2206
873.03	53.5594
873.08	57.5936
873.13	61.6565
873.181	62.8558
873.231	63.1694
873.282	55.7916
873.332	59.3632
873.383	62.333
873.433	57.7505
873.484	56.9226
873.534	60.2441
873.585	64.2008
873.635	65.0018
873.686	53.7157
873.736	62.7956
873.787	61.4128
873.837	59.7473
873.888	60.0702
873.938	58.0728
873.988	57.3983
874.039	62.7621
874.089	58.3958
874.14	60.054
874.19	54.8426
874.241	55.8469
874.291	58.0216
874.342	60.2259
874.392	62.615
874.443	64.9288
874.493	55.0928
874.544	61.3896
874.594	64.7773
874.644	61.2218
874.695	57.9848
874.745	57.9185
874.796	59.0585
874.846	58.5471
874.897	54.2318
874.947	62.8798
874.998	59.4593
875.048	61.3969
875.099	59.7138
875.149	60.8965
875.199	59.0894
875.25	55.7004
875.3	55.9072
875.351	59.278
875.401	54.1784
875.452	53.7615
875.502	54.2562
875.553	58.3712
875.603	53.3058
875.653	56.7413
875.704	49.2167
875.754	58.6577
875.805	59.5503
875.855	53.5151
875.906	51.6194
875.956	57.6037
876.006	61.3932
876.057	56.3119
876.107	57.4669
876.158	56.5304
876.208	55.6477
876.259	60.091
876.309	55.8034
876.36	62.3805
876.41	53.4803
876.46	50.353
876.511	56.113
876.561	56.6491
876.612	57.4757
876.662	62.8495
876.713	53.7917
876.763	56.8087
876.813	55.438
876.864	55.0882
876.914	54.127
876.965	61.8007
877.015	56.0816
877.065	54.1636
877.116	58.3386
877.166	60.3195
877.217	55.721
877.267	50.4728
877.318	60.1205
877.368	58.7096
877.418	52.7008
877.469	56.2621
877.519	57.9352
877.57	52.3157
877.62	53.2664
877.671	52.401
877.721	55.2472
877.771	58.3762
877.822	55.9745
877.872	53.2745
877.923	59.7063
877.973	55.3926
878.023	52.3193
878.074	57.755
878.124	53.7836
878.175	57.1182
878.225	54.8475
878.276	51.1558
878.326	54.1653
878.376	54.4136
878.427	51.8935
878.477	51.5632
878.528	51.7687
878.578	53.7631
878.628	54.3804
878.679	54.0556
878.729	59.8544
878.78	54.4425
878.83	57.2243
878.88	55.2963
878.931	58.3177
878.981	56.9039
879.031	56.0757
879.082	55.1697
879.132	56.8445
879.183	57.7978
879.233	53.8879
879.284	50.4658
879.334	56.2762
879.384	56.0884
879.435	55.9272
879.485	51.3107
879.535	57.5434
879.586	57.1239
879.636	56.7728
879.687	56.4239
879.737	56.7565
879.787	53.7954
879.838	53.2492
879.888	54.083
879.939	55.0666
879.989	53.602
880.039	51.0702
880.09	53.4226
880.14	58.3896
880.19	53.78
880.241	48.5815
880.291	51.2027
880.342	55.1566
880.392	57.2281
880.442	49.9795
880.493	52.6951
880.543	59.0675
880.594	59.4788
880.644	51.7376
880.694	49.9306
880.745	54.0408
880.795	55.9694
880.845	53.3469
880.896	50.0265
880.946	45.8246
880.996	48.7861
881.047	54.3946
881.097	55.3122
881.148	59.7558
881.198	57.8136
881.248	55.3362
881.299	55.452
881.349	54
881.399	51.582
881.45	49.0381
881.5	52.8924
881.551	57.0476
881.601	58.8741
881.651	56.8985
881.702	54.0154
881.752	56.1682
881.802	51.1009
881.853	50.9204
881.903	46.5884
881.953	50.5796
882.004	53.3174
882.054	55.2001
882.104	52.4488
882.155	58.4101
882.205	53.3779
882.256	52.0734
882.306	53.3742
882.356	52.4767
882.407	53.0909
882.457	54.8585
882.507	53.6298
882.558	55.5709
882.608	54.6393
882.658	55.1056
882.709	54.0186
882.759	54.091
882.809	55.3597
882.86	58.5605
882.91	53.4566
882.96	49.8568
883.011	50.4688
883.061	52.9719
883.111	56.0734
883.162	54.8843
883.212	50.6216
883.262	54.1572
883.313	51.8243
883.363	55.9479
883.413	51.9535
883.464	47.1034
883.514	46.6634
883.565	52.955
883.615	50.2795
883.665	55.5037
883.716	56.3089
883.766	51.5694
883.816	48.8148
883.867	50.8636
883.917	54.3669
883.967	48.3938
884.017	47.1631
884.068	50.4304
884.118	51.9934
884.168	55.7055
884.219	51.1377
884.269	52.8524
884.319	57.1012
884.37	57.5791
884.42	50.533
884.47	51.3888
884.521	56.4002
884.571	54.2189
884.621	53.7009
884.672	48.263
884.722	54.0159
884.772	46.7182
884.823	44.9718
884.873	47.6054
884.923	53.9487
884.974	53.379
885.024	53.377
885.074	50.8077
885.125	47.5648
885.175	49.4693
885.225	52.2038
885.276	49.3446
885.326	52.6506
885.376	50.3437
885.426	48
885.477	48.114
885.527	54.6085
885.577	53.2964
885.628	47.1622
885.678	49.7259
885.728	54.0396
885.779	48.9593
885.829	51.4769
885.879	51.2837
885.93	49.1581
885.98	44.6489
886.03	53.5603
886.08	50.5023
886.131	58.8414
886.181	51.7717
886.231	51.2869
886.282	46.0963
886.332	50.6393
886.382	50.2079
886.432	49.0622
886.483	53.5367
886.533	50.5106
886.583	51.8794
886.634	50
886.684	50.8501
886.734	54.9823
886.785	46.5185
886.835	49.4575
886.885	52.0827
886.935	53.6189
886.986	44.2789
887.036	51.3953
887.086	53.7736
887.137	46
887.187	46.5598
887.237	55.4956
887.287	52.1608
887.338	56.1656
887.388	53.6664
887.438	55.5791
887.489	52.1467
887.539	52
887.589	54.0471
887.639	51.9161
887.69	50.0675
887.74	46.2111
887.79	53.8095
887.841	53.8571
887.891	61.7292
887.941	52.3183
887.943	51.9763
887.993	47.9771
888.044	50.0073
888.094	47.9444
888.144	49.7549
888.195	51.721
888.245	53.8359
888.296	42.2822
888.346	53.8142
888.397	49.9747
888.447	50.0954
888.498	61.409
888.548	59.2502
888.599	53.4808
888.649	53.3519
888.699	50.9046
888.75	49.2252
888.8	47.8465
888.851	42.3766
888.901	58.9793
888.952	47.9427
889.002	55.0664
889.053	47.9894
889.103	57.3265
889.153	42.5185
889.204	52.9996
889.254	55.6531
889.305	52.9829
889.355	51.0937
889.406	48.0449
889.456	50.3708
889.507	51.6525
889.557	49.6428
889.607	47.6328
889.658	44.1649
889.708	54.7047
889.759	42.6224
889.809	47.5942
889.86	42.6773
889.91	51.7345
889.96	47.5655
890.011	50.8624
890.061	49.8162
890.112	54.4332
890.162	53.151
890.213	45.4181
890.263	47.2235
890.313	52.8588
890.364	44.4311
890.414	53.0396
890.465	49.4741
890.515	55.3859
890.566	47.0579
890.616	50.5285
890.666	49.5394
890.717	55.4531
890.767	45.5228
890.818	48.8479
890.868	48.6975
890.919	47.9064
890.969	42.96
891.019	51.7873
891.07	56.9639
891.12	49.578
891.171	46.9365
891.221	52.4463
891.271	54.1165
891.322	46
891.372	48.6447
891.423	43.9166
891.473	48.9863
891.523	49.3983
891.574	48.8934
891.624	45.4015
891.675	45.4499
891.725	46.1473
891.776	46.9079
891.826	46.4581
891.876	50.51
891.927	46.8499
891.977	50.6183
892.028	45.3154
892.078	46.7053
892.128	48.5975
892.179	48.491
892.229	44.2653
892.28	51.0134
892.33	45.0078
892.38	42.1934
892.431	46.6676
892.481	49.9693
892.532	52.9932
892.582	45.7638
892.632	47.4497
892.683	53.4358
892.733	42.7967
892.784	43.0527
892.834	47.0406
892.884	44.8911
892.935	49.5058
892.985	50.2502
893.036	44.9132
893.086	51.3029
893.136	48.4159
893.187	43.4855
893.237	48.4647
893.288	51.8068
893.338	40.3063
893.388	44.7782
893.439	45.8783
893.489	51.116
893.539	47.5766
893.59	44.1502
893.64	50.8469
893.691	48.995
893.741	43.25
893.791	51.2979
893.842	49.8885
893.892	47.9259
893.943	39.0169
893.993	44.0133
894.043	47.9891
894.094	48
894.144	39.9903
894.194	45.0085
894.245	46.9831
894.295	51.0145
894.346	43.0338
894.396	43.9879
894.446	45.9565
894.497	47.9819
894.547	47.0652
894.597	47.0242
894.648	48.9734
894.698	46.9698
894.749	47.9674
894.799	39.1812
894.849	44.8804
894.9	50.913
894.95	45.0918
895	41.1486
895.051	45.896
895.101	46
895.151	43.1184
895.202	42.8768
895.252	44.0652
895.303	49.587
895.353	45.214
895.403	46.1498
895.454	46.0785
895.504	47.7536
895.554	39.5925
895.605	43.3913
895.655	47
895.706	46.1884
895.756	43.9033
895.806	45
895.857	49.8961
895.907	47.4256
895.957	44.4505
896.008	46.1135
896.058	49.1161
896.108	45.8804
896.159	47.1221
896.209	45.2512
896.259	46.6123
896.31	44.2636
896.36	46.1353
896.41	41.8622
896.461	48.715
896.511	44.1461
896.561	42.5949
896.612	42.6957
896.662	43.8452
896.713	42.3164
896.763	40.4825
896.813	41.1787
896.864	44.3362
896.914	46.1425
896.964	43.5224
897.015	38.3551
897.065	49.2793
897.115	41
897.166	48.1874
897.216	44
897.266	47
897.317	43.1971
897.367	45.0024
897.417	45.7811
897.468	44.3797
897.518	46.4203
897.568	49.2128
897.619	46.2164
897.669	50.2198
897.719	41.2225
897.77	37.2261
897.82	42.2295
897.87	46.8331
897.921	42.7642
897.971	38.4348
898.021	45.7848
898.072	49.7727
898.122	43.4946
898.172	42.7572
898.223	44.4873
898.273	42.5175
898.323	43
898.374	39.7944
898.424	45.5761
898.474	44.5441
898.524	40.2757
898.575	44.3906
898.625	48.0278
898.675	44.4208
898.726	46.5611
898.776	43
898.826	46.295
898.877	42.5973
898.927	43
898.977	42
899.028	47.4583
899.078	46.243
899.128	41.2576
899.179	37.364
899.229	48.0774
899.279	45.9722
899.33	41.6385
899.38	44.3374
899.43	42
899.48	46.9758
899.531	45.023
899.581	44.3785
899.631	44.9589
899.682	43.948
899.732	44.7715
899.782	39.7158
899.833	41.1923
899.883	42.4559
899.933	38.2648
899.984	41
